1624457684.00
64.000000
-0.00
-0.00
-0.00
-0.00
-0.00
-0.00
-0.00
-0.00
-0.00
-0.00
0.00
0.01
0.01
-0.00
-0.03
-0.05
-0.05
0.00
0.13
0.36
0.66
1.01
1.37
1.72
2.06
2.40
2.79
3.24
3.80
4.42
5.06
5.66
6.20
6.68
7.15
7.68
8.31
9.14
10.09
11.04
11.88
12.56
13.14
13.76
14.65
15.96
17.91
20.32
22.90
25.38
27.58
29.57
31.68
34.32
37.81
42.54
48.15
54.10
59.83
64.97
69.58
74.14
79.34
85.71
93.76
103.00
112.62
121.73
129.77
136.75
143.30
150.75
157.77
166.64
177.95
191.79
206.97
220.57
228.25
225.36
208.53
176.87
132.76
80.05
23.07
-34.94
-92.44
-149.16
-205.23
-260.37
-313.74
-363.87
-409.83
-450.91
-486.50
-515.74
-537.23
-549.22
-549.96
-538.37
-514.21
-478.67
-433.88
-382.45
-327.02
-269.84
-212.63
-156.66
-102.95
-52.37
-5.90
35.58
71.43
101.35
125.50
144.38
158.69
169.15
176.37
180.75
182.57
182.07
179.51
175.23
169.65
163.18
156.15
148.81
141.30
133.69
126.02
118.33
110.69
103.16
95.80
88.68
81.83
75.25
68.95
62.95
57.25
51.86
46.78
42.03
37.59
33.45
29.61
26.07
22.81
19.83
17.11
14.67
12.48
10.54
8.83
7.35
6.07
4.97
4.05
3.27
2.62
2.09
1.65
1.30
1.01
0.79
0.61
0.47
0.37
0.29
0.23
0.19
0.16
0.15
0.14
0.15
0.17
0.19
0.22
0.25
0.29
0.33
0.37
0.42
0.47
0.51
0.56
0.61
0.67
0.72
0.78
0.85
0.92
1.00
1.09
1.19
1.30
1.42
1.56
1.71
1.89
2.08
2.29
2.53
2.79
3.08
3.40
3.75
4.14
4.55
5.01
5.50
6.03
6.59
7.21
7.86
8.55
9.29
10.08
10.91
11.79
12.71
13.68
14.70
15.80
16.95
18.18
19.44
20.74
22.01
23.20
24.20
24.90
25.19
24.91
24.00
22.37
20.00
16.92
13.18
8.96
4.44
-0.19
-4.68
-8.81
-12.39
-15.29
-17.42
-18.79
-19.45
-19.51
-19.10
-18.34
-17.34
-16.16
-14.87
-13.52
-12.13
-10.73
-9.35
-8.03
-6.71
-5.35
-3.89
-2.29
-0.56
1.25
3.10
4.85
6.42
7.86
9.31
10.90
12.70
14.73
16.88
19.11
21.05
22.59
23.82
24.97
26.31
28.01
30.05
32.26
34.42
35.89
36.43
36.19
35.60
35.13
35.08
35.36
35.54
35.16
33.21
29.33
23.65
16.63
8.59
-0.66
-12.16
-28.03
-46.18
-66.78
-90.28
-117.09
-147.06
-178.95
-209.87
-235.34
-249.91
-248.42
-228.15
-188.78
-132.56
-63.69
12.47
90.29
164.12
228.60
279.02
311.30
323.32
315.41
290.32
252.96
209.47
166.04
127.37
95.69
70.34
49.26
30.77
14.95
3.57
-1.49
-0.31
4.23
7.56
5.97
-0.94
-9.96
-16.39
-17.23
-12.98
-7.16
-3.84
-5.20
-11.00
-19.74
-30.50
-43.61
-59.80
-78.46
-96.83
-110.92
-117.64
-116.64
-110.56
-103.47
-98.60
-96.98
-97.57
-98.63
-99.20
-99.63
-100.95
-103.80
-107.65
-110.83
-111.44
-108.27
-101.40
-92.06
-81.83
-71.93
-62.76
-53.94
-44.96
-35.67
-26.59
-18.63
-12.71
-9.12
-7.42
-6.59
-5.53
-3.53
-0.53
3.00
6.29
8.71
9.92
9.97
9.13
7.74
6.08
4.30
2.45
0.57
-1.37
-3.37
-5.46
-7.74
-10.34
-13.48
-17.38
-22.16
-27.68
-33.38
-38.29
-41.26
-41.31
-38.04
-31.84
-23.70
-14.86
-6.32
1.47
8.60
15.44
22.19
28.72
34.56
39.06
41.84
42.94
42.86
42.34
42.03
42.15
42.44
42.35
41.39
39.44
36.85
34.21
32.01
30.28
28.56
26.19
22.61
17.75
11.97
5.92
0.18
-5.00
-9.79
-14.65
-20.14
-26.70
-34.52
-43.34
-52.42
-60.54
-66.19
-67.91
-64.73
-56.52
-44.11
-29.14
-13.52
1.08
13.64
23.88
32.16
38.99
44.73
49.31
52.32
53.28
51.92
48.46
43.55
38.05
32.69
27.84
23.40
18.94
13.89
7.80
0.44
-8.25
-18.19
-29.22
-41.09
-53.45
-65.86
-77.77
-88.69
-98.21
-106.23
-112.95
-118.99
-125.20
-132.55
-141.97
-154.23
-169.90
-189.02
-210.70
-232.57
-250.83
-260.92
-258.76
-242.34
-212.47
-172.59
-127.36
-80.99
-35.82
8.00
51.59
95.93
140.78
184.63
225.45
261.67
292.58
318.07
338.08
352.27
360.42
363.06
361.96
359.79
359.01
360.59
363.26
364.07
359.41
346.48
324.06
292.64
254.08
211.11
166.96
124.70
86.74
54.14
26.68
3.25
-17.29
-35.39
-50.64
-62.22
-69.60
-73.07
-73.71
-72.94
-71.94
-71.30
-70.96
-70.61
-69.90
-68.76
-67.36
-66.01
-64.96
-64.25
-63.76
-63.29
-62.66
-61.84
-60.85
-59.72
-58.43
-56.91
-55.19
-53.49
-52.22
-51.79
-52.37
-53.79
-55.56
-57.05
-57.81
-57.68
-56.94
-56.13
-55.90
-56.77
-58.96
-62.15
-65.53
-67.94
-68.21
-65.48
-59.51
-50.70
-40.01
-28.65
-17.88
-8.75
-1.96
2.28
4.31
4.94
5.09
5.50
6.39
7.40
7.89
7.23
5.21
2.04
-1.61
-4.83
-6.62
-6.15
-2.95
2.79
10.11
17.49
23.21
25.98
25.37
21.86
16.53
10.57
4.80
-0.53
-5.54
-10.47
-15.31
-19.72
-23.12
-24.94
-24.93
-23.26
-20.57
-17.65
-15.02
-12.63
-9.79
-5.49
0.98
9.53
19.10
27.97
34.45
37.56
37.30
34.50
30.35
25.83
21.48
17.44
13.72
10.40
7.70
5.86
4.95
4.65
4.35
3.31
0.97
-2.76
-7.38
-11.99
-15.62
-17.71
-18.39
-18.45
-19.05
-21.08
-24.81
-29.56
-34.11
-37.07
-37.48
-35.19
-30.70
-24.95
-18.81
-12.82
-7.12
-1.66
3.57
8.39
12.37
15.09
16.29
16.07
14.87
13.29
11.93
11.26
11.50
12.63
14.40
16.43
18.29
19.66
20.33
20.36
19.88
19.08
17.92
16.22
13.67
10.05
5.49
0.36
-4.83
-9.72
-14.18
-18.30
-22.11
-25.38
-27.53
-27.97
-26.34
-22.77
-17.91
-12.60
-7.58
-3.24
0.41
3.56
6.40
8.99
11.31
13.29
14.83
15.86
16.23
15.87
14.70
12.87
10.64
8.42
6.58
5.39
4.84
4.67
4.49
3.82
2.37
0.07
-2.85
-5.94
-8.70
-10.81
-12.22
-13.11
-13.83
-14.72
-16.02
-17.79
-19.89
-22.00
-23.63
-24.32
-23.70
-21.65
-18.40
-14.34
-10.00
-5.76
-1.90
1.46
4.24
6.37
7.80
8.57
8.83
8.84
8.82
8.88
8.94
8.83
8.38
7.48
6.24
4.90
3.76
3.04
2.76
2.66
2.39
1.62
0.19
-1.81
-4.07
-6.16
-7.70
-8.50
-8.60
-8.41
-8.45
-9.21
-10.80
-12.82
-14.50
-15.07
-14.16
-11.98
-9.20
-6.56
-4.50
-3.05
-2.02
-1.21
-0.64
-0.44
-0.71
-1.34
-2.03
-2.53
-2.71
-2.69
-2.67
-2.75
-2.80
-2.53
-1.65
-0.15
1.76
3.62
4.92
5.39
5.00
4.02
2.79
1.54
0.36
-0.82
-2.11
-3.55
-5.10
-6.68
-8.26
-9.83
-11.31
-12.46
-12.96
-12.52
-11.05
-8.80
-6.27
-3.97
-2.18
-0.84
0.40
1.86
3.66
5.57
7.13
7.93
7.87
7.26
6.61
6.38
6.73
7.46
8.16
8.50
8.39
7.95
7.39
6.82
6.13
5.19
3.92
2.47
1.13
0.21
-0.20
-0.28
-0.37
-0.82
-1.83
-3.36
-5.18
-6.95
-8.25
-8.73
-8.16
-6.52
-4.05
-1.17
1.55
3.69
5.01
5.57
5.66
5.65
5.77
6.13
6.58
6.93
6.99
6.67
5.95
4.86
3.44
1.71
-0.31
-2.51
-4.80
-7.02
-9.20
-11.42
-13.94
-17.00
-20.73
-25.05
-29.68
-34.30
-38.66
-42.78
-46.89
-51.28
-56.18
-61.53
-66.99
-72.01
-76.09
-79.00
-80.91
-82.30
-83.86
-86.13
-89.34
-93.25
-97.06
-99.43
-98.68
-93.27
-82.30
-66.09
-46.30
-25.56
-6.66
8.35
18.66
24.70
27.62
28.55
28.21
26.88
24.71
22.01
19.33
17.20
15.76
14.70
13.32
10.94
7.30
2.69
-2.22
-6.73
-10.44
-13.25
-15.38
-17.10
-18.77
-20.63
-22.79
-25.12
-27.07
-27.80
-26.47
-22.70
-16.93
-10.30
-4.11
0.88
4.86
8.86
13.96
20.71
28.75
37.22
45.36
53.12
61.13
70.33
81.26
93.65
106.49
118.43
128.39
135.85
140.84
143.68
144.69
144.05
141.88
138.23
133.16
126.71
118.95
109.97
100.09
89.87
80.02
71.16
63.57
57.07
51.24
45.81
40.83
36.59
33.30
30.75
28.29
25.19
21.02
15.97
10.54
5.09
-0.47
-6.61
-13.61
-21.08
-27.84
-32.62
-34.82
-35.05
-34.89
-35.93
-38.80
-42.92
-46.96
-49.96
-51.90
-53.54
-55.56
-57.75
-59.01
-58.15
-54.95
-50.53
-46.92
-45.71
-47.12
-49.81
-51.82
-51.71
-49.41
-45.99
-42.81
-40.57
-38.99
-37.12
-34.15
-29.88
-24.87
-20.00
-15.94
-12.82
-10.32
-7.93
-5.30
-2.59
-0.41
0.43
-0.60
-3.32
-6.69
-9.09
-8.96
-5.48
1.01
9.26
17.66
24.92
30.43
34.25
36.65
37.91
38.22
37.89
37.45
37.61
38.94
41.62
45.48
50.26
55.78
61.95
68.54
74.95
80.30
83.85
85.49
85.77
85.61
85.50
85.20
83.69
79.78
72.84
63.11
51.61
39.63
28.14
17.60
7.94
-1.11
-9.78
-18.08
-25.81
-32.69
-38.39
-42.81
-46.03
-48.48
-50.79
-53.59
-57.22
-61.56
-66.08
-70.04
-72.81
-74.22
-74.54
-74.37
-74.28
-74.64
-75.50
-76.66
-77.78
-78.51
-78.46
-77.23
-74.45
-69.90
-63.62
-55.98
-47.66
-39.45
-32.05
-25.93
-21.31
-18.16
-16.27
-15.34
-15.00
-14.90
-14.73
-14.37
-13.87
-13.40
-13.20
-13.41
-14.02
-14.88
-15.85
-16.77
-17.58
-18.24
-18.72
-19.00
-19.17
-19.39
-19.90
-20.88
-22.35
-24.29
-26.61
-29.33
-32.53
-36.26
-40.31
-44.07
-46.62
-46.94
-44.36
-38.81
-30.88
-21.66
-12.26
-3.52
4.23
11.03
17.08
22.44
26.92
30.23
32.12
32.63
32.08
30.93
29.57
28.22
26.93
25.72
24.64
23.82
23.34
23.12
22.93
22.45
21.40
19.67
17.30
14.40
11.12
7.58
3.88
0.08
-3.76
-7.62
-11.43
-14.93
-17.60
-18.78
-17.86
-14.53
-9.01
-1.97
5.66
12.99
19.40
24.58
28.43
30.96
32.19
32.20
31.11
29.24
27.02
24.96
23.50
22.83
22.85
23.10
23.01
22.10
20.14
17.30
13.96
10.55
7.35
4.40
1.60
-1.25
-4.27
-7.63
-11.43
-15.79
-20.66
-25.83
-30.71
-34.50
-36.35
-35.64
-32.22
-26.44
-19.02
-10.76
-2.39
5.63
13.08
19.76
25.44
29.82
32.62
33.74
33.38
32.01
30.19
28.40
26.85
25.50
24.07
22.29
19.97
17.19
14.26
11.60
9.61
8.39
7.71
7.00
5.54
2.71
-1.75
-7.70
-14.49
-21.09
-26.12
-28.19
-26.40
-20.74
-12.30
-2.89
5.63
12.15
16.67
19.98
23.08
26.42
29.67
32.02
32.75
31.72
29.40
26.62
24.10
22.12
20.64
19.36
18.06
16.62
15.12
13.79
12.80
12.20
11.83
11.34
10.29
8.38
5.51
1.82
-2.40
-6.88
-11.35
-15.43
-18.63
-20.27
-19.72
-16.64
-11.23
-4.15
3.62
11.17
17.91
23.67
28.49
32.44
35.42
37.18
37.44
36.08
33.27
29.46
25.25
21.21
17.74
14.98
12.79
10.89
9.07
7.13
5.08
2.96
0.81
-1.39
-3.72
-6.27
-9.14
-12.35
-15.93
-19.89
-24.21
-28.70
-32.92
-36.14
-37.56
-36.50
-32.71
-26.48
-18.55
-9.92
-1.53
5.91
12.06
16.82
20.27
22.57
23.86
24.23
23.83
22.80
21.36
19.75
18.25
17.03
16.20
15.73
15.46
15.22
14.80
14.07
12.99
11.57
9.85
7.86
5.61
3.11
0.39
-2.52
-5.63
-9.02
-12.77
-16.83
-20.93
-24.47
-26.65
-26.74
-24.39
-19.78
-13.59
-6.74
-0.14
5.61
10.27
13.91
16.72
18.89
20.57
21.76
22.50
22.84
22.92
22.89
22.87
22.86
22.77
22.45
21.77
20.65
19.12
17.19
14.89
12.26
9.36
6.34
3.35
0.51
-2.11
-4.55
-6.93
-9.34
-11.94
-14.88
-18.27
-22.06
-25.95
-29.28
-31.23
-31.10
-28.58
-23.99
-18.12
-11.97
-6.34
-1.61
2.26
5.53
8.42
10.97
13.06
14.51
15.27
15.47
15.40
15.38
15.57
15.98
16.46
16.76
16.69
16.20
15.32
14.16
12.79
11.19
9.28
6.94
4.08
0.75
-2.87
-6.48
-9.72
-12.34
-14.27
-15.67
-16.90
-18.33
-20.16
-22.28
-24.26
-25.49
-25.47
-24.02
-21.34
-17.96
-14.55
-11.72
-9.87
-9.15
-9.48
-10.48
-11.48
-11.63
-10.03
-6.09
0.26
8.39
17.16
25.15
31.19
34.58
35.27
33.68
30.46
26.24
21.52
16.66
11.97
7.70
4.05
1.09
-1.29
-3.32
-5.29
-7.37
-9.56
-11.74
-13.79
-15.67
-17.47
-19.32
-21.26
-23.13
-24.60
-25.24
-24.77
-23.13
-20.55
-17.46
-14.34
-11.50
-9.02
-6.79
-4.65
-2.52
-0.49
1.27
2.56
3.34
3.75
4.01
4.34
4.80
5.36
5.85
6.13
6.13
5.84
5.30
4.52
3.49
2.15
0.49
-1.46
-3.56
-5.66
-7.59
-9.23
-10.60
-11.75
-12.80
-13.89
-15.15
-16.58
-18.09
-19.44
-20.29
-20.28
-19.18
-17.01
-14.02
-10.67
-7.51
-4.94
-3.18
-2.22
-1.90
-1.97
-2.18
-2.34
-2.35
-2.19
-1.98
-1.86
-1.97
-2.36
-2.99
-3.68
-4.28
-4.65
-4.74
-4.59
-4.35
-4.16
-4.23
-4.72
-5.69
-7.10
-8.76
-10.42
-11.81
-12.79
-13.34
-13.53
-13.46
-13.17
-12.62
-11.68
-10.24
-8.29
-5.93
-3.36
-0.84
1.42
3.29
4.74
5.75
6.31
6.41
6.08
5.35
4.36
3.20
1.95
0.63
-0.78
-2.24
-3.64
-4.77
-5.43
-5.57
-5.23
-4.61
-3.93
-3.33
-2.89
-2.59
-2.38
-2.24
-2.19
-2.24
-2.42
-2.74
-3.23
-3.90
-4.71
-5.54
-6.19
-6.39
-5.91
-4.65
-2.72
-0.44
1.80
3.61
4.78
5.29
5.27
4.88
4.25
3.42
2.45
1.44
0.60
0.17
0.28
0.92
1.84
2.71
3.26
3.40
3.24
2.93
2.60
2.19
1.56
0.53
-0.93
-2.73
-4.65
-6.45
-7.95
-9.11
-9.97
-10.71
-11.45
-12.30
-13.16
-13.77
-13.78
-12.90
-11.01
-8.29
-5.18
-2.26
-0.05
1.16
1.35
0.83
0.01
-0.66
-0.95
-0.84
-0.56
-0.41
-0.62
-1.25
-2.14
-3.10
-3.94
-4.60
-5.11
-5.54
-5.94
-6.31
-6.68
-7.12
-7.75
-8.68
-9.93
-11.40
-12.91
-14.33
-15.59
-16.79
-18.10
-19.71
-21.60
-23.59
-25.23
-26.00
-25.47
-23.46
-20.18
-16.10
-11.81
-7.79
-4.26
-1.25
1.35
3.60
5.47
6.85
7.65
7.82
7.43
6.62
5.56
4.47
3.62
3.31
3.76
5.03
6.98
9.17
11.07
12.17
12.24
11.33
9.78
7.97
6.18
4.44
2.66
0.70
-1.53
-3.95
-6.47
-8.97
-11.35
-13.44
-14.97
-15.57
-14.93
-12.98
-9.97
-6.47
-3.07
-0.27
1.73
2.98
3.69
4.09
4.35
4.55
4.72
4.85
4.90
4.78
4.44
3.90
3.24
2.66
2.33
2.35
2.68
3.11
3.31
2.96
1.84
-0.02
-2.39
-4.94
-7.39
-9.62
-11.74
-13.95
-16.45
-19.33
-22.55
-25.93
-29.14
-31.77
-33.24
-32.98
-30.57
-25.95
-19.59
-12.27
-4.95
1.65
7.15
11.53
14.92
17.48
19.25
20.25
20.52
20.23
19.61
18.85
18.12
17.47
16.94
16.56
16.37
16.35
16.40
16.39
16.08
15.27
13.81
11.65
8.87
5.65
2.17
-1.45
-5.24
-9.36
-13.91
-18.79
-23.51
-27.27
-29.17
-28.57
-25.31
-19.78
-12.74
-5.07
2.54
9.60
15.82
20.97
24.83
27.20
28.00
27.40
25.79
23.71
21.68
20.12
19.17
18.82
18.82
18.82
18.46
17.44
15.63
13.13
10.28
7.51
5.25
3.69
2.75
2.10
1.24
-0.34
-3.03
-6.96
-12.02
-17.76
-23.36
-27.85
-30.20
-29.71
-26.16
-19.97
-12.00
-3.37
4.88
12.04
17.72
21.93
24.83
26.68
27.69
28.03
27.80
27.08
25.94
24.48
22.81
21.05
19.35
17.78
16.43
15.29
14.23
13.02
11.37
9.01
5.82
1.88
-2.52
-7.00
-11.17
-14.87
-18.08
-21.04
-24.09
-27.57
-31.62
-36.07
-40.33
-43.53
-44.72
-43.18
-38.65
-31.44
-22.32
-12.23
-2.08
7.49
16.09
23.65
30.14
35.54
39.68
42.32
43.22
42.36
40.14
37.35
34.97
33.73
33.85
34.85
35.82
35.85
34.42
31.57
27.80
23.66
19.60
15.74
11.93
7.95
3.68
-1.03
-6.32
-12.41
-19.55
-27.70
-36.18
-43.57
-47.95
-47.68
-42.27
-32.74
-21.40
-10.83
-2.84
2.20
5.14
7.32
9.68
12.34
14.86
16.70
17.70
18.14
18.48
18.88
19.23
19.20
18.58
17.48
16.23
15.14
14.45
14.12
13.87
13.33
12.10
9.98
6.94
3.17
-1.01
-5.25
-9.36
-13.35
-17.48
-22.01
-27.06
-32.30
-36.98
-40.01
-40.35
-37.40
-31.30
-22.92
-13.56
-4.51
3.32
9.59
14.42
18.10
20.87
22.75
23.61
23.37
22.13
20.24
18.18
16.41
15.21
14.63
14.51
14.57
14.51
14.09
13.17
11.68
9.60
6.98
3.94
0.62
-2.85
-6.37
-9.97
-13.77
-17.99
-22.85
-28.46
-34.65
-40.80
-45.88
-48.64
-47.98
-43.35
-35.06
-24.23
-12.46
-1.32
8.09
15.32
20.49
24.02
26.30
27.63
28.13
27.93
27.20
26.20
25.20
24.39
23.82
23.41
22.98
22.33
21.31
19.79
17.75
15.22
12.28
8.97
5.29
1.28
-2.99
-7.40
-11.80
-16.13
-20.53
-25.31
-30.71
-36.58
-42.17
-46.22
-47.38
-44.68
-38.00
-28.18
-16.68
-5.12
5.19
13.52
19.69
23.91
26.56
28.03
28.56
28.34
27.48
26.08
24.33
22.52
20.91
19.70
18.84
18.09
17.14
15.73
13.77
11.35
8.63
5.72
2.66
-0.60
-4.09
-7.81
-11.71
-15.76
-20.04
-24.76
-30.13
-36.07
-42.11
-47.24
-50.21
-49.93
-45.85
-38.26
-28.12
-16.78
-5.47
4.95
14.03
21.66
27.75
32.19
34.88
35.80
35.19
33.52
31.39
29.39
27.93
27.13
26.80
26.57
25.97
24.67
22.50
19.52
15.94
11.99
7.87
3.70
-0.44
-4.56
-8.75
-13.28
-18.56
-24.99
-32.76
-41.55
-50.42
-57.95
-62.62
-63.20
-59.24
-51.08
-39.78
-26.69
-13.09
-0.02
11.81
21.82
29.60
34.82
37.45
37.81
36.56
34.54
32.45
30.79
29.61
28.81
28.11
27.20
25.82
23.75
20.90
17.33
13.28
8.96
4.48
-0.34
-5.81
-12.24
-19.74
-28.13
-36.89
-45.17
-51.89
-55.86
-56.11
-52.19
-44.40
-33.75
-21.70
-9.68
1.35
10.97
19.21
26.13
31.65
35.48
37.32
37.15
35.30
32.44
29.30
26.50
24.36
22.87
21.75
20.56
18.97
16.77
13.97
10.73
7.24
3.65
0.02
-3.67
-7.53
-11.73
-16.46
-21.96
-28.26
-35.05
-41.56
-46.57
-48.71
-46.93
-40.89
-31.19
-19.16
-6.49
5.35
15.47
23.57
29.80
34.43
37.62
39.35
39.56
38.36
36.13
33.47
30.95
28.94
27.37
25.88
23.93
21.18
17.64
13.66
9.82
6.57
4.06
1.97
-0.32
-3.56
-8.38
-15.04
-23.40
-32.80
-42.14
-49.98
-54.80
-55.39
-51.20
-42.57
-30.65
-17.05
-3.36
9.25
20.16
29.22
36.38
41.57
44.57
45.26
43.73
40.47
36.26
31.95
28.21
25.36
23.29
21.62
19.85
17.65
14.90
11.72
8.38
5.16
2.22
-0.49
-3.16
-6.13
-9.81
-14.59
-20.66
-27.88
-35.61
-42.76
-47.91
-49.78
-47.55
-41.20
-31.46
-19.61
-7.03
5.03
15.71
24.49
31.18
35.86
38.76
40.24
40.63
40.18
38.97
37.04
34.46
31.52
28.71
26.53
25.30
24.97
25.11
25.03
24.08
21.87
18.42
14.08
9.42
4.95
0.95
-2.66
-6.28
-10.45
-15.67
-22.13
-29.58
-37.21
-43.83
-48.02
-48.64
-45.08
-37.56
-27.05
-15.06
-3.11
7.60
16.41
23.21
28.15
31.44
33.24
33.60
32.60
30.46
27.50
24.16
20.84
17.80
15.12
12.70
10.37
7.95
5.39
2.72
0.05
-2.46
-4.77
-6.90
-8.93
-10.93
-12.98
-15.18
-17.71
-20.87
-24.88
-29.72
-34.91
-39.52
-42.39
-42.54
-39.40
-33.09
-24.32
-14.12
-3.62
6.23
14.77
21.67
26.83
30.35
32.42
33.25
33.09
32.24
31.03
29.86
29.03
28.66
28.57
28.33
27.44
25.48
22.36
18.37
14.01
9.82
6.17
3.16
0.63
-1.71
-4.20
-7.13
-10.71
-15.07
-20.22
-26.00
-31.96
-37.39
-41.34
-42.88
-41.37
-36.68
-29.27
-20.13
-10.49
-1.50
6.07
11.95
16.27
19.37
21.57
23.01
23.64
23.40
22.29
20.52
18.47
16.55
14.98
13.74
12.62
11.29
9.51
7.23
4.57
1.73
-1.01
-3.44
-5.43
-6.95
-8.11
-9.18
-10.57
-12.68
-15.80
-20.03
-25.16
-30.69
-35.91
-39.95
-41.93
-41.18
-37.41
-30.86
-22.28
-12.77
-3.46
4.78
11.52
16.70
20.52
23.20
24.90
25.65
25.41
24.20
22.10
19.35
16.29
13.24
10.47
8.10
6.18
4.65
3.46
2.51
1.61
0.52
-0.98
-3.01
-5.47
-8.07
-10.40
-12.13
-13.16
-13.61
-13.81
-14.25
-15.40
-17.54
-20.65
-24.22
-27.32
-28.83
-27.80
-23.81
-17.20
-8.89
-0.11
8.05
14.84
19.98
23.49
25.49
26.06
25.22
23.02
19.58
15.18
10.33
5.57
1.43
-1.81
-4.12
-5.71
-6.88
-7.88
-8.84
-9.76
-10.60
-11.38
-12.12
-12.90
-13.79
-14.83
-16.00
-17.30
-18.76
-20.48
-22.58
-25.20
-28.35
-31.83
-35.16
-37.64
-38.56
-37.39
-34.01
-28.71
-22.09
-14.87
-7.74
-1.23
4.30
8.63
11.67
13.42
14.00
13.59
12.40
10.67
8.66
6.70
5.11
4.17
4.04
4.71
6.01
7.66
9.30
10.52
10.92
10.19
8.25
5.23
1.52
-2.40
-6.13
-9.47
-12.44
-15.24
-18.11
-21.27
-24.77
-28.45
-31.84
-34.23
-34.90
-33.26
-29.21
-23.16
-15.94
-8.52
-1.72
3.95
8.40
11.76
14.27
16.14
17.45
18.20
18.32
17.85
16.95
15.91
15.08
14.67
14.69
14.86
14.74
13.88
12.08
9.37
6.08
2.58
-0.78
-3.84
-6.65
-9.39
-12.23
-15.29
-18.59
-22.00
-25.25
-27.97
-29.67
-29.85
-28.14
-24.39
-18.84
-12.09
-4.97
1.64
7.14
11.27
14.14
16.05
17.35
18.27
18.90
19.22
19.19
18.75
17.86
16.47
14.52
12.01
9.03
5.82
2.73
0.15
-1.59
-2.35
-2.20
-1.42
-0.44
0.32
0.58
0.23
-0.72
-2.18
-4.14
-6.58
-9.43
-12.46
-15.18
-16.97
-17.30
-15.89
-12.90
-8.91
-4.75
-1.24
1.03
1.77
1.05
-0.87
-3.60
-6.79
-10.11
-13.25
-15.91
-17.79
-18.62
-18.27
-16.83
-14.65
-12.33
-10.49
-9.61
-9.83
-10.97
-12.57
-14.17
-15.52
-16.65
-17.86
-19.47
-21.73
-24.68
-28.13
-31.69
-34.90
-37.19
-38.01
-36.89
-33.62
-28.29
-21.37
-13.54
-5.50
2.16
9.05
14.96
19.81
23.51
26.01
27.30
27.47
26.83
25.79
24.88
24.51
24.81
25.64
26.59
27.24
27.32
26.75
25.67
24.29
22.67
20.80
18.49
15.60
11.96
7.50
2.23
-3.72
-9.96
-15.83
-20.43
-22.87
-22.51
-19.20
-13.36
-5.84
2.27
9.94
16.39
21.21
24.29
25.84
26.18
25.74
24.93
24.13
23.56
23.31
23.30
23.38
23.38
23.18
22.71
21.96
20.91
19.48
17.56
15.09
12.02
8.35
4.08
-0.87
-6.57
-13.02
-20.05
-27.21
-33.84
-39.11
-42.17
-42.35
-39.27
-32.98
-24.02
-13.36
-2.24
7.98
16.06
21.05
22.46
20.34
15.34
8.55
1.31
-5.12
-9.92
-12.81
-13.96
-13.85
-12.92
-11.50
-9.82
-8.11
-6.62
-5.62
-5.24
-5.49
-6.30
-7.70
-9.85
-13.09
-17.65
-23.51
-30.21
-36.85
-42.28
-45.34
-45.18
-41.46
-34.46
-25.01
-14.31
-3.57
6.19
14.40
20.87
25.66
28.91
30.71
31.12
30.28
28.47
26.14
23.82
21.99
20.91
20.60
20.80
21.12
21.18
20.70
19.55
17.74
15.32
12.38
9.00
5.30
1.38
-2.63
-6.72
-10.95
-15.48
-20.37
-25.39
-29.95
-33.13
-33.94
-31.68
-26.21
-18.08
-8.32
1.79
11.12
18.95
24.96
29.16
31.71
32.70
32.22
30.42
27.63
24.38
21.33
19.06
17.89
17.78
18.39
19.29
20.09
20.57
20.64
20.32
19.62
18.52
17.00
15.08
12.80
10.18
7.20
3.74
-0.38
-5.34
-11.20
-17.74
-24.42
-30.37
-34.50
-35.82
-33.68
-27.98
-19.30
-8.68
2.53
13.06
22.03
28.99
33.96
37.23
39.15
39.98
39.82
38.70
36.71
34.02
30.90
27.56
24.11
20.48
16.49
12.02
7.10
2.03
-2.75
-6.84
-10.07
-12.66
-15.12
-18.12
-22.22
-27.66
-34.33
-41.87
-49.88
-58.02
-66.00
-73.45
-79.77
-84.17
-85.84
-84.21
-79.21
-71.21
-60.98
-49.41
-37.35
-25.56
-14.64
-5.12
2.55
8.09
11.43
12.79
12.68
11.83
11.02
10.93
11.92
13.99
16.77
19.73
22.37
24.33
25.47
25.80
25.36
24.19
22.28
19.68
16.52
12.96
9.19
5.27
1.18
-3.24
-8.08
-13.30
-18.52
-23.01
-25.79
-25.88
-22.70
-16.29
-7.47
2.43
11.95
19.96
25.93
29.85
32.05
32.91
32.69
31.54
29.61
27.17
24.59
22.28
20.55
19.55
19.20
19.22
19.20
18.73
17.52
15.50
12.82
9.74
6.56
3.42
0.30
-2.89
-6.28
-9.98
-14.02
-18.39
-23.02
-27.72
-32.10
-35.56
-37.37
-36.87
-33.65
-27.85
-20.11
-11.48
-3.09
4.16
9.85
13.98
16.92
19.02
20.51
21.41
21.65
21.24
20.30
19.09
17.85
16.71
15.72
14.78
13.81
12.74
11.50
10.02
8.20
5.95
3.18
-0.11
-3.81
-7.73
-11.60
-15.22
-18.57
-21.78
-25.17
-28.97
-33.11
-37.04
-39.83
-40.45
-38.17
-32.91
-25.29
-16.44
-7.66
0.03
6.12
10.61
13.87
16.32
18.29
19.93
21.20
22.10
22.68
23.05
23.36
23.68
23.96
24.06
23.80
23.08
21.82
19.99
17.54
14.44
10.72
6.47
1.91
-2.70
-7.09
-11.07
-14.53
-17.53
-20.33
-23.27
-26.74
-30.78
-34.97
-38.35
-39.73
-38.12
-33.15
-25.37
-16.02
-6.58
1.71
8.15
12.68
15.66
17.56
18.77
19.46
19.72
19.53
18.94
18.04
16.98
15.88
14.73
13.45
11.91
10.06
7.93
5.64
3.29
0.85
-1.80
-4.73
-7.87
-10.89
-13.32
-14.76
-15.11
-14.55
-13.63
-12.99
-13.24
-14.68
-17.25
-20.48
-23.51
-25.38
-25.25
-22.72
-17.90
-11.39
-4.00
3.44
10.34
16.27
21.00
24.38
26.39
27.13
26.89
26.07
25.09
24.24
23.71
23.51
23.53
23.62
23.54
23.12
22.18
20.65
18.45
15.63
12.25
8.48
4.54
0.68
-2.81
-5.76
-8.10
-9.96
-11.66
-13.63
-16.36
-20.16
-25.02
-30.44
-35.50
-39.03
-40.00
-37.82
-32.65
-25.26
-16.79
-8.40
-0.95
5.11
9.68
12.86
14.86
15.88
16.10
15.74
14.97
13.98
12.90
11.90
11.16
10.90
11.34
12.61
14.62
17.04
19.33
20.85
21.11
19.86
17.16
13.30
8.71
3.78
-1.17
-5.91
-10.38
-14.65
-18.92
-23.44
-28.35
-33.43
-38.03
-41.20
-41.96
-39.67
-34.33
-26.54
-17.34
-7.80
1.22
9.19
15.90
21.32
25.48
28.39
30.08
30.62
30.20
29.09
27.67
26.26
25.09
24.18
23.42
22.63
21.69
20.57
19.28
17.77
15.90
13.45
10.27
6.38
2.06
-2.27
-6.21
-9.54
-12.32
-14.86
-17.60
-21.02
-25.38
-30.67
-36.44
-41.84
-45.81
-47.28
-45.58
-40.64
-33.03
-23.79
-14.09
-4.93
3.09
9.77
15.18
19.51
22.88
25.32
26.83
27.45
27.39
26.92
26.36
25.92
25.58
25.19
24.51
23.38
21.84
20.08
18.31
16.63
14.94
12.94
10.27
6.74
2.42
-2.28
-6.87
-10.86
-14.08
-16.71
-19.24
-22.22
-26.12
-31.02
-36.60
-42.15
-46.71
-49.37
-49.37
-46.41
-40.65
-32.76
-23.70
-14.44
-5.78
1.85
8.33
13.68
17.94
21.11
23.17
24.18
24.31
23.88
23.19
22.40
21.55
20.52
19.21
17.63
15.96
14.42
13.16
12.16
11.17
9.80
7.72
4.74
0.92
-3.45
-7.96
-12.27
-16.14
-19.54
-22.63
-25.67
-28.97
-32.77
-37.09
-41.59
-45.60
-48.19
-48.49
-45.92
-40.44
-32.58
-23.19
-13.23
-3.44
5.64
13.71
20.60
26.12
30.13
32.57
33.60
33.54
32.84
31.91
30.98
30.06
29.01
27.67
25.98
24.04
22.03
20.11
18.32
16.53
14.51
12.03
8.99
5.46
1.65
-2.15
-5.67
-8.74
-11.36
-13.74
-16.34
-19.65
-24.07
-29.55
-35.44
-40.59
-43.61
-43.39
-39.51
-32.37
-23.01
-12.71
-2.59
6.63
14.66
21.44
26.96
31.15
33.88
35.09
34.82
33.29
30.89
28.12
25.52
23.50
22.23
21.53
21.04
20.32
19.14
17.52
15.70
13.96
12.36
10.70
8.59
5.68
1.90
-2.48
-6.93
-10.97
-14.35
-17.22
-19.97
-23.12
-27.14
-32.26
-38.44
-45.28
-51.99
-57.48
-60.51
-60.08
-55.78
-47.95
-37.63
-26.12
-14.63
-3.95
5.57
13.83
20.75
26.19
30.01
32.22
33.12
33.17
32.90
32.64
32.43
32.12
31.47
30.36
28.83
27.10
25.46
24.08
22.98
21.96
20.64
18.63
15.65
11.62
6.76
1.49
-3.67
-8.30
-12.20
-15.40
-18.24
-21.17
-24.71
-29.23
-34.82
-41.09
-47.17
-51.80
-53.69
-51.96
-46.43
-37.78
-27.27
-16.37
-6.19
2.66
10.13
16.46
21.87
26.45
30.14
32.96
35.01
36.56
37.79
38.73
39.18
38.88
37.64
35.55
32.96
30.28
27.81
25.58
23.33
20.70
17.40
13.37
8.81
4.12
-0.29
-4.13
-7.33
-10.03
-12.59
-15.39
-18.81
-23.05
-28.11
-33.65
-39.03
-43.33
-45.58
-44.96
-41.05
-34.00
-24.48
-13.58
-2.43
7.97
16.98
24.31
29.87
33.74
35.97
36.68
36.08
34.55
32.56
30.64
29.15
28.19
27.64
27.22
26.65
25.71
24.33
22.46
20.06
17.04
13.32
8.91
3.98
-1.16
-6.07
-10.35
-13.78
-16.37
-18.43
-20.45
-22.99
-26.42
-30.82
-35.77
-40.41
-43.59
-44.24
-41.69
-35.93
-27.67
-18.12
-8.59
-0.08
6.92
12.44
16.78
20.27
23.09
25.27
26.78
27.65
28.04
28.16
28.19
28.19
28.11
27.88
27.42
26.77
25.99
25.10
23.99
22.45
20.20
17.07
13.04
8.28
3.15
-1.95
-6.74
-11.08
-15.03
-18.85
-22.87
-27.46
-32.76
-38.58
-44.28
-48.86
-51.20
-50.41
-46.16
-38.81
-29.27
-18.74
-8.37
0.99
8.87
15.14
19.84
23.09
25.02
25.85
25.87
25.43
24.87
24.41
24.09
23.80
23.35
22.59
21.47
20.04
18.40
16.65
14.76
12.63
10.10
7.06
3.46
-0.62
-4.95
-9.23
-13.13
-16.40
-19.03
-21.25
-23.52
-26.36
-30.09
-34.56
-39.11
-42.65
-44.04
-42.51
-37.90
-30.75
-22.07
-12.96
-4.27
3.46
10.05
15.42
19.49
22.16
23.35
23.19
21.99
20.21
18.33
16.68
15.39
14.40
13.59
12.78
11.89
10.85
9.65
8.23
6.54
4.49
2.03
-0.83
-3.95
-7.14
-10.17
-12.90
-15.33
-17.58
-19.95
-22.68
-25.88
-29.38
-32.65
-34.88
-35.15
-32.78
-27.52
-19.80
-10.58
-1.08
7.63
14.89
20.50
24.59
27.40
29.12
29.82
29.57
28.54
27.00
25.28
23.73
22.51
21.66
21.06
20.48
19.71
18.64
17.27
15.68
13.91
11.94
9.64
6.85
3.54
-0.16
-3.92
-7.41
-10.40
-12.91
-15.24
-17.82
-21.07
-25.21
-30.08
-35.09
-39.30
-41.59
-41.02
-37.14
-30.14
-20.83
-10.45
-0.29
8.65
15.77
20.97
24.46
26.63
27.87
28.52
28.80
28.77
28.33
27.19
24.94
21.13
15.52
8.16
-0.42
-9.46
-18.17
-26.18
-33.65
-41.23
-49.63
-59.16
-69.37
-79.10
-87.03
-92.31
-95.05
-96.46
-98.27
-101.95
-107.88
-114.90
-120.52
-121.46
-114.49
-97.09
-67.95
-27.32
22.58
77.51
131.56
178.25
212.09
230.01
232.20
221.68
202.99
180.46
156.92
133.26
109.13
84.11
58.84
35.40
16.70
5.36
2.55
7.49
17.85
30.79
44.07
56.67
68.56
79.95
90.54
99.35
105.18
107.40
106.47
103.79
101.00
99.13
98.00
96.30
92.08
83.54
69.65
50.55
27.48
2.47
-22.17
-44.38
-62.77
-76.82
-86.75
-93.25
-97.08
-98.79
-98.71
-97.06
-94.20
-90.73
-87.29
-84.41
-82.25
-80.56
-78.90
-76.83
-74.23
-71.25
-68.33
-65.96
-64.46
-63.83
-63.74
-63.65
-63.04
-61.65
-59.67
-57.57
-55.91
-55.05
-54.93
-55.10
-55.05
-54.42
-53.29
-52.08
-51.35
-51.53
-52.74
-54.73
-56.92
-58.57
-58.92
-57.31
-53.41
-47.24
-39.21
-30.04
-20.49
-11.23
-2.69
4.91
11.41
16.66
20.45
22.71
23.51
23.17
22.14
20.87
19.58
18.26
16.74
14.83
12.47
9.83
7.17
4.71
2.48
0.33
-1.93
-4.46
-7.21
-9.96
-12.43
-14.45
-16.00
-17.31
-18.72
-20.66
-23.52
-27.59
-32.86
-38.96
-45.07
-50.04
-52.65
-51.99
-47.75
-40.31
-30.64
-19.99
-9.55
-0.22
7.52
13.54
17.93
20.89
22.63
23.35
23.36
23.02
22.76
22.94
23.75
25.05
26.52
27.71
28.37
28.48
28.31
28.17
28.21
28.21
27.71
26.19
23.28
19.02
13.84
8.40
3.31
-1.04
-4.68
-7.97
-11.46
-15.75
-21.17
-27.68
-34.76
-41.44
-46.45
-48.56
-46.91
-41.35
-32.50
-21.57
-9.98
1.05
10.72
18.70
24.99
29.62
32.65
34.10
34.18
33.26
31.91
30.66
29.89
29.67
29.77
29.88
29.68
29.04
28.04
26.85
25.59
24.17
22.33
19.73
16.19
11.79
6.87
1.92
-2.68
-6.73
-10.32
-13.75
-17.35
-21.45
-26.23
-31.63
-37.22
-42.17
-45.34
-45.59
-42.17
-35.06
-24.98
-13.24
-1.28
9.74
19.16
26.76
32.60
36.80
39.40
40.43
40.04
38.56
36.54
34.61
33.27
32.71
32.83
33.26
33.55
33.39
32.71
31.63
30.41
29.16
27.87
26.22
23.83
20.39
15.84
10.43
4.68
-0.93
-6.09
-10.88
-15.72
-21.20
-27.78
-35.56
-44.11
-52.49
-59.43
-63.60
-63.96
-60.00
-51.91
-40.53
-27.18
-13.29
-0.14
11.43
21.06
28.76
34.72
39.14
42.17
43.93
44.58
44.39
43.67
42.75
41.84
40.98
40.10
39.06
37.75
36.15
34.28
32.23
30.00
27.54
24.67
21.16
16.85
11.73
6.06
0.30
-4.98
-9.34
-12.61
-14.96
-16.85
-18.82
-21.38
-24.87
-29.29
-34.32
-39.21
-42.94
-44.39
-42.74
-37.68
-29.66
-19.71
-9.11
0.94
9.68
16.82
22.40
26.63
29.71
31.74
32.76
32.83
32.06
30.72
29.13
27.58
26.25
25.10
23.93
22.56
20.93
19.19
17.60
16.39
15.58
14.88
13.81
11.93
8.98
5.00
0.30
-4.66
-9.47
-13.84
-17.72
-21.26
-24.77
-28.59
-33.00
-38.04
-43.48
-48.74
-52.95
-55.15
-54.51
-50.58
-43.50
-33.97
-23.09
-12.14
-2.22
5.99
12.26
16.73
19.76
21.67
22.69
22.95
22.55
21.67
20.59
19.61
18.88
18.43
18.13
17.83
17.43
16.94
16.39
15.75
14.84
13.38
11.06
7.73
3.50
-1.29
-6.13
-10.57
-14.37
-17.60
-20.64
-23.97
-28.04
-32.97
-38.44
-43.70
-47.65
-49.17
-47.44
-42.24
-34.01
-23.78
-12.86
-2.48
6.49
13.67
19.00
22.64
24.75
25.54
25.27
24.36
23.25
22.28
21.60
21.09
20.47
19.51
18.14
16.53
14.91
13.45
12.10
10.64
8.81
6.45
3.55
0.25
-3.33
-7.07
-10.91
-14.76
-18.49
-22.08
-25.62
-29.43
-33.85
-39.02
-44.59
-49.69
-53.08
-53.62
-50.68
-44.33
-35.38
-25.00
-14.37
-4.38
4.41
11.77
17.64
22.03
25.02
26.75
27.51
27.69
27.64
27.57
27.52
27.42
27.22
26.96
26.76
26.70
26.65
26.34
25.37
23.42
20.36
16.25
11.35
5.97
0.36
-5.30
-10.86
-16.25
-21.44
-26.47
-31.52
-36.75
-42.35
-48.23
-53.98
-58.78
-61.47
-60.97
-56.68
-48.74
-38.12
-26.19
-14.22
-2.88
7.75
17.91
27.66
36.52
43.53
47.76
48.76
46.96
43.54
39.88
37.00
35.20
34.12
33.11
31.72
29.81
27.52
24.99
22.16
18.72
14.39
9.15
3.32
-2.46
-7.55
-11.58
-14.58
-17.02
-19.57
-22.91
-27.44
-33.21
-39.75
-46.20
-51.41
-54.24
-53.87
-49.99
-42.96
-33.60
-22.95
-11.98
-1.42
8.29
16.83
23.95
29.45
33.18
35.22
35.79
35.30
34.19
32.82
31.46
30.23
29.17
28.21
27.27
26.26
25.10
23.72
22.08
20.07
17.59
14.52
10.85
6.69
2.27
-2.05
-5.96
-9.27
-12.10
-14.82
-18.01
-22.19
-27.52
-33.52
-39.11
-42.82
-43.35
-40.02
-33.09
-23.62
-13.09
-2.89
6.04
13.32
19.01
23.33
26.47
28.54
29.59
29.79
29.42
28.86
28.48
28.46
28.73
29.02
28.97
28.31
27.05
25.39
23.67
22.13
20.79
19.44
17.73
15.38
12.26
8.48
4.33
0.11
-3.93
-7.70
-11.17
-14.46
-17.77
-21.38
-25.51
-30.20
-35.10
-39.37
-41.87
-41.49
-37.60
-30.35
-20.64
-9.81
0.80
10.28
18.24
24.71
29.85
33.81
36.51
37.83
37.65
36.04
33.34
30.04
26.71
23.81
21.57
19.94
18.74
17.70
16.65
15.58
14.57
13.69
12.91
12.01
10.72
8.77
6.03
2.68
-0.96
-4.45
-7.45
-9.85
-11.78
-13.59
-15.69
-18.48
-22.15
-26.74
-32.03
-37.52
-42.46
-45.90
-46.98
-45.07
-40.10
-32.61
-23.63
-14.36
-5.86
1.25
6.82
11.07
14.31
16.77
18.49
19.43
19.56
19.08
18.33
17.71
17.47
17.61
17.90
18.00
17.75
17.15
16.38
15.63
14.94
14.18
13.03
11.19
8.47
4.87
0.67
-3.76
-7.96
-11.61
-14.61
-17.11
-19.47
-22.12
-25.38
-29.30
-33.55
-37.45
-40.12
-40.71
-38.64
-33.81
-26.64
-17.95
-8.77
-0.07
7.51
13.64
18.35
21.74
24.00
25.23
25.53
25.05
24.02
22.74
21.53
20.62
20.05
19.71
19.38
18.87
18.08
17.05
15.90
14.72
13.53
12.20
10.49
8.15
5.04
1.21
-3.07
-7.43
-11.50
-15.05
-18.09
-20.84
-23.67
-26.96
-30.99
-35.85
-41.32
-46.83
-51.46
-54.14
-53.94
-50.37
-43.57
-34.32
-23.76
-13.12
-3.37
4.97
11.76
17.13
21.29
24.41
26.60
27.86
28.25
27.87
26.97
25.89
24.91
24.20
23.69
23.14
22.30
21.01
19.36
17.56
15.84
14.29
12.80
11.09
8.87
5.99
2.50
-1.35
-5.27
-9.00
-12.43
-15.58
-18.58
-21.61
-24.84
-28.44
-32.57
-37.27
-42.37
-47.39
-51.45
-53.47
-52.52
-48.14
-40.66
-31.12
-20.88
-11.22
-2.89
3.95
9.55
14.15
17.82
20.38
21.67
21.66
20.67
19.21
17.87
17.02
16.86
17.30
18.15
19.19
20.27
21.34
22.33
23.22
23.87
24.12
23.73
22.46
20.20
16.87
12.59
7.59
2.19
-3.27
-8.48
-13.26
-17.61
-21.69
-25.82
-30.32
-35.37
-40.85
-46.18
-50.45
-52.60
-51.78
-47.56
-40.22
-30.57
-19.79
-8.99
0.94
9.50
16.50
21.87
25.60
27.70
28.26
27.55
25.98
24.00
22.04
20.33
18.95
17.83
16.92
16.19
15.76
15.68
15.92
16.28
16.38
15.74
13.98
10.92
6.64
1.50
-4.01
-9.41
-14.43
-19.08
-23.66
-28.61
-34.32
-40.90
-47.97
-54.71
-59.91
-62.35
-61.11
-55.94
-47.36
-36.52
-24.79
-13.39
-3.10
5.77
13.19
19.23
23.90
27.21
29.20
30.08
30.15
29.75
29.15
28.44
27.59
26.51
25.15
23.54
21.75
19.92
18.11
16.30
14.34
12.00
9.04
5.31
0.87
-4.06
-9.18
-14.20
-19.03
-23.82
-28.93
-34.79
-41.64
-49.32
-57.09
-63.73
-67.79
-68.06
-63.97
-55.80
-44.61
-31.85
-19.00
-7.12
3.21
11.86
18.89
24.44
28.61
31.48
33.23
34.14
34.56
34.83
35.11
35.35
35.37
34.97
34.11
32.93
31.66
30.46
29.27
27.79
25.57
22.30
17.89
12.61
6.89
1.17
-4.25
-9.31
-14.15
-19.01
-24.20
-29.99
-36.52
-43.60
-50.60
-56.46
-59.90
-59.84
-55.77
-48.04
-37.69
-26.15
-14.72
-4.33
4.61
12.01
17.94
22.45
25.58
27.44
28.26
28.43
28.34
28.28
28.31
28.28
27.98
27.29
26.28
25.17
24.27
23.72
23.43
23.01
22.00
20.03
17.01
13.15
8.88
4.59
0.44
-3.77
-8.47
-14.25
-21.45
-30.08
-39.52
-48.63
-55.78
-59.14
-57.26
-49.59
-36.85
-21.00
-4.60
9.97
21.38
29.49
35.13
39.33
42.70
45.25
46.64
46.68
45.56
43.86
42.17
40.73
39.33
37.54
35.04
31.90
28.59
25.74
23.81
22.81
22.26
21.40
19.46
15.97
11.00
5.12
-0.79
-5.88
-9.70
-12.31
-14.34
-16.73
-20.32
-25.48
-31.82
-38.28
-43.37
-45.69
-44.41
-39.49
-31.61
-21.91
-11.55
-1.44
7.89
16.28
23.74
30.31
35.94
40.47
43.74
45.68
46.38
46.16
45.38
44.34
43.16
41.75
39.94
37.64
34.93
32.14
29.60
27.54
25.88
24.27
22.27
19.51
15.93
11.76
7.38
3.13
-0.86
-4.67
-8.54
-12.75
-17.49
-22.86
-28.80
-35.14
-41.42
-46.93
-50.74
-52.00
-50.15
-45.24
-37.91
-29.24
-20.34
-12.02
-4.68
1.70
7.28
12.16
16.23
19.32
21.23
22.00
21.82
21.08
20.12
19.20
18.42
17.70
16.98
16.17
15.31
14.46
13.73
13.14
12.57
11.85
10.79
9.41
7.96
6.82
6.43
6.93
8.07
9.24
9.68
8.69
5.98
1.71
-3.62
-9.22
-14.28
-17.98
-19.67
-18.88
-15.50
-9.87
-2.71
5.00
12.26
18.37
23.05
26.41
28.70
30.08
30.50
29.76
27.77
24.81
21.56
18.91
17.63
18.01
19.69
21.77
23.20
23.15
21.34
18.12
14.25
10.60
7.79
5.96
4.86
3.95
2.72
0.82
-1.80
-4.94
-8.29
-11.50
-14.38
-16.87
-19.13
-21.45
-24.23
-27.85
-32.56
-38.20
-44.16
-49.46
-52.96
-53.78
-51.53
-46.42
-39.13
-30.54
-21.51
-12.74
-4.70
2.29
8.06
12.56
15.88
18.20
19.77
20.78
21.34
21.46
21.13
20.32
19.10
17.57
15.83
13.97
12.02
9.93
7.66
5.19
2.56
-0.20
-3.13
-6.38
-10.11
-14.40
-19.13
-23.99
-28.55
-32.42
-35.44
-37.65
-39.25
-40.44
-41.42
-42.30
-43.17
-44.10
-44.99
-45.48
-44.94
-42.64
-37.98
-30.76
-21.33
-10.55
0.43
10.44
18.52
24.16
27.32
28.44
28.31
27.84
27.84
28.76
30.59
32.98
35.31
37.02
37.79
37.63
36.91
36.04
35.41
35.08
34.81
34.15
32.65
30.10
26.59
22.36
17.66
12.62
7.26
1.66
-3.92
-8.96
-12.94
-15.57
-17.05
-18.08
-19.68
-22.68
-27.41
-33.38
-39.46
-44.20
-46.32
-45.09
-40.55
-33.39
-24.71
-15.68
-7.22
0.10
6.08
10.66
13.89
15.78
16.36
15.83
14.60
13.26
12.43
12.58
13.74
15.56
17.43
18.79
19.24
18.76
17.56
15.97
14.30
12.72
11.27
9.86
8.36
6.62
4.48
1.70
-1.99
-6.87
-13.11
-20.64
-29.05
-37.75
-46.10
-53.70
-60.42
-66.35
-71.46
-75.43
-77.53
-76.95
-73.08
-65.89
-55.95
-44.26
-31.95
-19.94
-8.85
0.97
9.35
16.21
21.46
25.06
27.08
27.69
27.20
26.06
24.72
23.58
22.89
22.65
22.69
22.70
22.41
21.70
20.59
19.26
17.92
16.70
15.64
14.61
13.39
11.67
9.16
5.69
1.33
-3.65
-8.86
-13.93
-18.70
-23.26
-27.89
-32.86
-38.29
-44.03
-49.65
-54.50
-57.86
-59.02
-57.46
-52.92
-45.60
-36.17
-25.67
-15.23
-5.83
1.97
8.03
12.48
15.60
17.56
18.50
18.54
17.90
16.97
16.19
15.94
16.42
17.56
19.06
20.54
21.64
22.13
21.93
21.17
19.99
18.54
16.88
14.97
12.72
10.09
7.11
3.87
0.50
-2.92
-6.46
-10.28
-14.61
-19.60
-25.23
-31.14
-36.74
-41.18
-43.62
-43.39
-40.27
-34.54
-27.02
-18.73
-10.61
-3.26
3.16
8.82
13.92
18.45
22.18
24.71
25.81
25.51
24.19
22.45
20.78
19.53
18.67
18.01
17.26
16.25
14.94
13.39
11.76
10.10
8.38
6.39
3.92
0.82
-2.85
-6.83
-10.75
-14.20
-16.96
-19.07
-20.79
-22.60
-25.04
-28.56
-33.35
-39.14
-45.25
-50.56
-53.84
-54.05
-50.67
-43.93
-34.75
-24.48
-14.48
-5.66
1.57
7.37
12.11
16.10
19.41
21.89
23.36
23.84
23.67
23.39
23.55
24.42
25.89
27.54
28.91
29.74
30.11
30.33
30.72
31.30
31.78
31.60
30.22
27.32
22.97
17.59
11.72
5.88
0.39
-4.69
-9.48
-14.25
-19.29
-24.87
-31.05
-37.57
-43.80
-48.80
-51.53
-51.16
-47.36
-40.43
-31.21
-20.81
-10.31
-0.60
7.74
14.39
19.24
22.27
23.70
23.80
22.94
21.52
19.89
18.31
16.96
15.92
15.16
14.63
14.21
13.86
13.60
13.47
13.44
13.37
12.94
11.80
9.75
6.77
3.10
-0.90
-4.89
-8.72
-12.42
-16.19
-20.29
-24.94
-30.21
-35.92
-41.60
-46.44
-49.44
-49.65
-46.46
-39.84
-30.42
-19.27
-7.65
3.36
13.04
21.06
27.34
31.86
34.62
35.61
35.00
33.17
30.73
28.39
26.71
25.88
25.74
25.84
25.74
25.23
24.36
23.35
22.32
21.20
19.64
17.27
13.95
9.87
5.49
1.33
-2.25
-5.23
-7.83
-10.47
-13.58
-17.54
-22.52
-28.47
-34.93
-41.05
-45.66
-47.59
-46.02
-40.80
-32.58
-22.53
-11.99
-2.00
6.86
14.48
20.97
26.41
30.75
33.80
35.47
35.89
35.42
34.58
33.83
33.42
33.40
33.57
33.74
33.73
33.47
32.94
32.15
31.09
29.62
27.57
24.73
20.97
16.34
11.08
5.64
0.44
-4.25
-8.47
-12.43
-16.45
-20.75
-25.33
-29.92
-34.04
-37.05
-38.22
-36.91
-32.74
-25.74
-16.43
-5.72
5.36
15.87
25.10
32.62
38.17
41.57
42.70
41.59
38.49
33.89
28.47
22.94
17.90
13.70
10.52
8.35
7.10
6.62
6.71
7.12
7.48
7.45
6.75
5.27
3.11
0.49
-2.41
-5.51
-8.84
-12.43
-16.28
-20.25
-24.19
-28.05
-32.01
-36.44
-41.72
-47.94
-54.72
-61.04
-65.52
-66.68
-63.50
-55.75
-44.13
-30.10
-15.49
-1.92
9.53
18.40
24.72
28.74
30.68
30.76
29.33
27.03
24.78
23.50
23.77
25.56
28.17
30.56
31.76
31.28
29.28
26.45
23.59
21.31
19.70
18.39
16.72
14.09
10.24
5.31
-0.19
-5.71
-10.86
-15.51
-19.80
-23.95
-28.16
-32.58
-37.31
-42.43
-47.89
-53.30
-57.86
-60.41
-59.72
-55.01
-46.31
-34.49
-21.10
-7.83
3.99
13.66
21.09
26.56
30.44
32.98
34.30
34.52
33.88
32.75
31.55
30.57
29.87
29.33
28.75
28.02
27.15
26.24
25.36
24.37
22.98
20.74
17.33
12.70
7.11
1.04
-4.97
-10.58
-15.71
-20.59
-25.58
-31.01
-36.97
-43.18
-48.99
-53.48
-55.64
-54.65
-50.20
-42.54
-32.58
-21.56
-10.79
-1.30
6.36
12.09
16.10
18.72
20.22
20.83
20.75
20.26
19.65
19.25
19.22
19.60
20.19
20.71
20.84
20.39
19.37
17.90
16.21
14.41
12.48
10.30
7.69
4.62
1.22
-2.28
-5.64
-8.78
-11.86
-15.26
-19.41
-24.71
-31.26
-38.77
-46.47
-53.12
-57.25
-57.52
-53.18
-44.34
-32.07
-18.05
-4.05
8.52
18.95
27.11
33.27
37.76
40.80
42.50
42.93
42.30
40.93
39.23
37.55
36.09
34.88
33.85
32.89
31.99
31.23
30.67
30.28
29.78
28.71
26.54
22.87
17.65
11.16
3.99
-3.23
-9.99
-16.05
-21.47
-26.56
-31.77
-37.50
-43.91
-50.74
-57.22
-62.18
-64.33
-62.68
-56.92
-47.54
-35.75
-23.11
-11.13
-0.91
6.98
12.47
15.89
17.73
18.53
18.80
18.94
19.25
19.96
21.14
22.75
24.56
26.29
27.65
28.47
28.74
28.60
28.17
27.45
26.24
24.27
21.25
17.12
12.06
6.46
0.80
-4.60
-9.63
-14.42
-19.32
-24.66
-30.69
-37.33
-44.14
-50.23
-54.45
-55.66
-53.03
-46.40
-36.40
-24.26
-11.48
0.62
11.19
19.87
26.61
31.50
34.56
35.89
35.65
34.23
32.17
30.06
28.38
27.41
27.22
27.66
28.47
29.33
29.90
29.92
29.26
27.89
25.82
23.02
19.42
15.01
9.98
4.72
-0.26
-4.54
-8.06
-11.20
-14.71
-19.42
-25.80
-33.73
-42.36
-50.20
-55.52
-56.81
-53.31
-45.22
-33.70
-20.48
-7.33
4.43
14.11
21.61
27.17
31.10
33.59
34.74
34.66
33.57
31.80
29.74
27.75
26.06
24.78
23.86
23.19
22.64
22.09
21.46
20.61
19.37
17.51
14.88
11.48
7.50
3.30
-0.71
-4.29
-7.44
-10.42
-13.74
-17.92
-23.24
-29.53
-35.98
-41.32
-44.06
-43.01
-37.70
-28.57
-16.88
-4.37
7.26
16.69
23.20
26.71
27.57
26.41
23.90
20.64
17.13
13.81
11.10
9.41
9.02
9.85
11.48
13.10
13.88
13.19
10.93
7.45
3.39
-0.65
-4.27
-7.38
-10.05
-12.46
-14.75
-17.12
-19.78
-23.04
-27.07
-31.75
-36.40
-39.93
-41.06
-38.85
-33.06
-24.32
-13.95
-3.51
5.72
13.01
18.20
21.52
23.26
23.64
22.83
21.03
18.66
16.28
14.50
13.76
14.19
15.62
17.59
19.51
20.79
20.95
19.73
17.12
13.37
8.85
3.94
-1.18
-6.56
-12.38
-18.89
-26.23
-34.29
-42.75
-50.98
-58.09
-63.01
-64.66
-62.22
-55.50
-45.01
-31.92
-17.78
-4.06
8.19
18.43
26.63
32.97
37.69
40.90
42.67
43.06
42.22
40.41
37.98
35.23
32.47
29.86
27.57
25.68
24.23
23.12
22.12
20.88
18.97
16.08
12.09
7.19
1.75
-3.73
-8.85
-13.43
-17.59
-21.72
-26.24
-31.37
-36.92
-42.21
-46.23
-47.94
-46.67
-42.28
-35.29
-26.67
-17.52
-8.88
-1.47
4.33
8.45
11.04
12.41
12.93
12.97
12.83
12.76
12.92
13.40
14.18
15.19
16.23
17.12
17.69
17.84
17.56
16.91
15.84
14.28
12.09
9.21
5.66
1.65
-2.55
-6.66
-10.52
-14.22
-18.01
-22.26
-27.25
-32.88
-38.61
-43.38
-45.96
-45.28
-40.83
-32.88
-22.43
-10.93
0.16
9.78
17.41
23.08
27.13
29.95
31.83
32.90
33.25
33.01
32.49
32.03
31.89
32.09
32.38
32.32
31.62
30.19
28.28
26.25
24.39
22.67
20.75
18.12
14.35
9.37
3.53
-2.49
-7.98
-12.44
-15.85
-18.64
-21.61
-25.54
-30.88
-37.51
-44.67
-51.13
-55.57
-56.93
-54.69
-49.05
-40.76
-30.94
-20.74
-11.11
-2.64
4.45
10.18
14.75
18.35
21.11
23.11
24.38
24.95
24.94
24.51
23.89
23.26
22.69
22.13
21.48
20.63
19.63
18.59
17.66
16.83
15.89
14.43
12.10
8.70
4.36
-0.54
-5.54
-10.26
-14.53
-18.37
-21.96
-25.59
-29.67
-34.58
-40.54
-47.39
-54.47
-60.64
-64.55
-65.08
-61.69
-54.65
-44.87
-33.70
-22.43
-12.01
-2.95
4.69
11.07
16.38
20.73
24.11
26.54
28.09
28.96
29.40
29.65
29.82
29.93
29.96
29.88
29.71
29.47
29.14
28.60
27.73
26.37
24.42
21.85
18.66
14.85
10.48
5.66
0.59
-4.46
-9.22
-13.54
-17.45
-21.16
-25.04
-29.48
-34.73
-40.80
-47.37
-53.68
-58.73
-61.37
-60.66
-56.15
-48.05
-37.29
-25.25
-13.33
-2.58
6.48
13.88
19.82
24.51
27.96
30.03
30.70
30.16
28.85
27.28
25.84
24.66
23.69
22.79
21.92
21.14
20.57
20.26
20.13
19.96
19.46
18.35
16.37
13.41
9.50
4.88
-0.04
-4.78
-9.03
-12.72
-16.13
-19.79
-24.22
-29.72
-36.09
-42.64
-48.25
-51.65
-51.80
-48.20
-41.10
-31.42
-20.45
-9.44
0.72
9.58
17.09
23.34
28.33
31.94
33.96
34.33
33.26
31.25
29.03
27.32
26.51
26.60
27.16
27.60
27.41
26.43
24.84
22.98
21.13
19.29
17.19
14.46
10.89
6.56
1.76
-3.06
-7.60
-11.70
-15.44
-19.01
-22.65
-26.61
-31.13
-36.39
-42.44
-48.98
-55.25
-60.12
-62.28
-60.76
-55.24
-46.21
-34.84
-22.59
-10.72
-0.00
9.28
17.17
23.76
29.01
32.74
34.84
35.34
34.60
33.21
31.81
30.89
30.60
30.76
30.97
30.88
30.32
29.37
28.28
27.21
26.18
24.95
23.22
20.70
17.29
13.06
8.24
3.05
-2.31
-7.75
-13.27
-18.93
-24.89
-31.31
-38.39
-46.11
-54.20
-61.98
-68.41
-72.29
-72.52
-68.54
-60.48
-49.23
-36.15
-22.73
-10.21
0.65
9.54
16.47
21.61
25.08
27.07
27.79
27.59
26.88
26.09
25.50
25.22
25.19
25.26
25.33
25.34
25.31
25.25
25.15
24.84
24.09
22.63
20.24
16.88
12.78
8.37
4.12
0.36
-2.92
-6.07
-9.67
-14.37
-20.59
-28.42
-37.45
-46.79
-55.17
-61.17
-63.60
-61.79
-55.82
-46.52
-35.18
-23.18
-11.61
-1.11
8.05
15.82
22.21
27.18
30.68
32.77
33.62
33.54
32.87
31.91
30.85
29.76
28.62
27.42
26.22
25.06
23.99
22.94
21.70
19.95
17.42
13.92
9.54
4.54
-0.68
-5.79
-10.60
-15.15
-19.63
-24.35
-29.58
-35.48
-41.95
-48.52
-54.28
-58.01
-58.46
-54.76
-46.76
-35.14
-21.29
-6.90
6.49
17.81
26.58
32.81
36.78
38.82
39.23
38.29
36.37
33.94
31.55
29.68
28.62
28.32
28.55
28.97
29.30
29.38
29.10
28.30
26.74
24.13
20.21
15.01
8.81
2.12
-4.50
-10.71
-16.51
-22.31
-28.75
-36.53
-45.88
-56.36
-66.67
-74.87
-78.81
-76.72
-67.91
-53.10
-34.34
-14.51
3.49
17.63
27.17
32.65
35.34
36.58
37.25
37.62
37.63
37.13
36.20
35.08
34.08
33.33
32.71
31.97
30.83
29.07
26.58
23.33
19.38
14.81
9.77
4.45
-0.99
-6.37
-11.60
-16.64
-21.59
-26.66
-32.19
-38.52
-45.69
-53.27
-60.22
-65.04
-66.23
-62.80
-54.64
-42.63
-28.40
-13.82
-0.49
10.59
19.08
25.19
29.37
32.10
33.74
34.51
34.55
34.04
33.18
32.19
31.24
30.39
29.58
28.71
27.67
26.34
24.60
22.36
19.53
16.12
12.23
8.03
3.71
-0.70
-5.22
-9.98
-15.12
-20.73
-26.91
-33.66
-40.80
-47.79
-53.64
-57.04
-56.75
-52.04
-43.12
-31.12
-17.76
-4.77
6.59
15.85
23.16
28.99
33.71
37.40
39.86
40.87
40.39
38.66
36.18
33.50
31.06
29.10
27.64
26.63
25.92
25.36
24.73
23.73
22.08
19.52
15.99
11.60
6.66
1.49
-3.58
-8.47
-13.33
-18.56
-24.64
-31.80
-39.75
-47.52
-53.57
-56.29
-54.55
-48.13
-37.86
-25.26
-12.06
0.37
11.22
20.23
27.43
32.93
36.79
39.07
39.95
39.74
38.86
37.76
36.76
35.99
35.40
34.79
33.98
32.81
31.27
29.44
27.43
25.25
22.79
19.78
15.94
11.11
5.41
-0.75
-6.77
-12.10
-16.52
-20.27
-23.97
-28.40
-34.11
-41.14
-48.86
-56.09
-61.30
-63.16
-60.85
-54.35
-44.39
-32.26
-19.38
-6.99
4.15
13.77
21.89
28.66
34.14
38.26
40.89
42.02
41.80
40.62
39.03
37.55
36.60
36.30
36.49
36.75
36.63
35.84
34.32
32.27
29.92
27.40
24.64
21.32
17.19
12.10
6.24
0.02
-6.04
-11.53
-16.27
-20.38
-24.19
-28.10
-32.49
-37.63
-43.54
-49.96
-56.28
-61.58
-64.75
-64.74
-60.92
-53.35
-42.85
-30.76
-18.53
-7.28
2.47
10.71
17.71
23.66
28.54
32.14
34.30
35.06
34.77
33.94
33.05
32.43
32.12
32.01
31.92
31.67
31.16
30.32
29.12
27.54
25.63
23.42
20.95
18.21
15.17
11.77
8.02
3.97
-0.26
-4.52
-8.68
-12.67
-16.42
-20.00
-23.52
-27.22
-31.34
-35.98
-40.87
-45.27
-48.07
-48.09
-44.57
-37.50
-27.69
-16.53
-5.53
4.11
11.83
17.69
22.10
25.53
28.25
30.27
31.45
31.69
31.08
29.92
28.62
27.51
26.75
26.27
25.91
25.52
25.01
24.36
23.51
22.31
20.53
17.87
14.13
9.33
3.76
-2.16
-7.92
-13.17
-17.84
-22.11
-26.38
-31.05
-36.41
-42.55
-49.33
-56.36
-62.94
-68.15
-70.96
-70.45
-66.13
-58.18
-47.42
-35.12
-22.58
-10.79
-0.24
9.00
17.13
24.24
30.29
35.04
38.22
39.76
39.85
38.95
37.66
36.52
35.81
35.53
35.39
35.09
34.35
33.09
31.34
29.15
26.51
23.32
19.42
14.74
9.40
3.67
-2.08
-7.55
-12.58
-17.19
-21.48
-25.62
-29.76
-34.09
-38.84
-44.26
-50.41
-57.02
-63.35
-68.24
-70.44
-68.94
-63.44
-54.40
-42.97
-30.61
-18.66
-8.01
0.99
8.33
14.22
18.83
22.26
24.58
25.95
26.63
26.93
27.19
27.58
28.13
28.70
29.05
28.92
28.14
26.71
24.79
22.66
20.61
18.75
16.96
14.90
12.18
8.56
4.00
-1.27
-6.88
-12.46
-17.74
-22.60
-27.04
-31.13
-35.06
-39.08
-43.49
-48.47
-53.84
-58.97
-62.80
-64.09
-61.81
-55.63
-46.01
-34.07
-21.31
-9.05
1.83
10.95
18.31
24.01
28.09
30.56
31.51
31.26
30.31
29.27
28.60
28.47
28.72
28.99
28.89
28.12
26.63
24.55
22.20
19.86
17.71
15.73
13.66
11.13
7.88
3.84
-0.72
-5.36
-9.63
-13.28
-16.34
-19.16
-22.22
-25.99
-30.80
-36.63
-43.06
-49.24
-53.99
-56.05
-54.55
-49.17
-40.35
-29.14
-16.92
-4.98
5.77
14.84
22.16
27.78
31.71
33.88
34.23
32.92
30.47
27.69
25.42
24.27
24.32
25.17
26.16
26.69
26.46
25.49
24.01
22.22
20.18
17.76
14.82
11.26
7.13
2.64
-2.01
-6.59
-11.00
-15.26
-19.46
-23.79
-28.45
-33.67
-39.57
-46.06
-52.67
-58.50
-62.36
-63.04
-59.75
-52.45
-41.95
-29.65
-17.08
-5.49
4.45
12.58
19.05
24.04
27.61
29.78
30.68
30.56
29.83
28.95
28.24
27.84
27.69
27.59
27.32
26.75
25.87
24.81
23.72
22.61
21.29
19.42
16.65
12.80
7.99
2.62
-2.80
-7.83
-12.24
-16.09
-19.65
-23.36
-27.70
-33.10
-39.74
-47.33
-54.99
-61.30
-64.60
-63.54
-57.53
-47.07
-33.57
-18.95
-4.99
7.10
16.89
24.54
30.46
34.97
38.20
40.11
40.72
40.32
39.42
38.61
38.27
38.40
38.65
38.49
37.57
35.84
33.61
31.33
29.30
27.55
25.75
23.42
20.09
15.55
9.93
3.64
-2.74
-8.68
-13.86
-18.23
-22.05
-25.76
-29.89
-34.91
-41.03
-48.09
-55.43
-61.88
-66.02
-66.52
-62.63
-54.43
-42.85
-29.43
-15.83
-3.39
7.14
15.53
21.91
26.52
29.60
31.30
31.79
31.35
30.35
29.20
28.20
27.45
26.82
26.02
24.86
23.29
21.52
19.85
18.51
17.47
16.43
14.89
12.41
8.79
4.20
-0.92
-6.01
-10.62
-14.57
-18.02
-21.40
-25.33
-30.30
-36.48
-43.50
-50.39
-55.77
-58.24
-56.78
-51.13
-41.84
-30.06
-17.20
-4.54
7.00
16.86
24.80
30.72
34.63
36.62
36.91
35.87
34.07
32.12
30.57
29.78
29.75
30.16
30.50
30.28
29.27
27.57
25.50
23.35
21.18
18.76
15.67
11.57
6.43
0.57
-5.45
-11.11
-16.10
-20.42
-24.36
-28.36
-32.87
-38.31
-44.85
-52.33
-60.07
-66.86
-71.11
-71.41
-66.93
-57.87
-45.40
-31.27
-17.20
-4.45
6.45
15.50
22.94
28.88
33.27
36.00
37.06
36.80
35.83
34.84
34.35
34.52
35.10
35.65
35.70
35.11
33.99
32.70
31.50
30.41
29.11
27.06
23.76
18.99
12.96
6.29
-0.24
-5.98
-10.63
-14.39
-17.84
-21.65
-26.37
-32.28
-39.21
-46.60
-53.47
-58.54
-60.47
-58.17
-51.26
-40.26
-26.51
-11.83
2.12
14.17
23.92
31.54
37.41
41.83
44.91
46.63
47.06
46.48
45.34
44.16
43.37
43.08
43.07
42.83
41.81
39.63
36.29
32.11
27.61
23.17
18.86
14.49
9.76
4.53
-1.04
-6.56
-11.62
-16.06
-20.06
-24.13
-28.89
-34.86
-42.26
-50.97
-60.48
-69.92
-78.07
-83.62
-85.40
-82.66
-75.42
-64.42
-51.00
-36.75
-23.14
-11.23
-1.60
5.63
10.61
13.68
15.27
15.89
16.10
16.45
17.32
18.83
20.84
22.99
24.93
26.43
27.48
28.19
28.70
28.98
28.84
27.98
26.07
22.90
18.45
13.01
7.08
1.26
-3.95
-8.33
-12.03
-15.58
-19.61
-24.67
-30.88
-37.84
-44.51
-49.46
-51.21
-48.76
-41.94
-31.56
-19.21
-6.69
4.56
13.80
21.03
26.67
31.10
34.51
36.87
38.08
38.28
37.75
36.91
36.03
35.16
34.18
32.91
31.24
29.19
26.96
24.69
22.46
20.17
17.51
14.13
9.76
4.38
-1.74
-8.06
-14.10
-19.58
-24.61
-29.66
-35.35
-42.10
-49.90
-58.14
-65.65
-70.98
-72.73
-70.03
-62.81
-51.88
-38.70
-24.94
-12.01
-0.68
8.85
16.83
23.56
29.19
33.71
37.05
39.25
40.52
41.22
41.71
42.22
42.79
43.35
43.74
43.85
43.65
43.18
42.43
41.29
39.50
36.70
32.56
26.97
20.13
12.55
4.84
-2.42
-8.96
-14.90
-20.69
-26.99
-34.44
-43.38
-53.61
-64.21
-73.66
-80.11
-81.95
-78.30
-69.43
-56.57
-41.54
-26.15
-11.68
1.28
12.74
22.88
31.90
39.74
46.19
51.01
54.11
55.66
56.08
55.90
55.55
55.22
54.80
53.95
52.41
50.08
47.20
44.11
41.03
37.86
34.17
29.40
23.16
15.55
7.14
-1.22
-8.73
-14.95
-19.98
-24.42
-29.15
-35.10
-42.84
-52.43
-63.13
-73.47
-81.52
-85.30
-83.32
-75.04
-61.04
-43.01
-23.29
-4.34
11.89
24.35
32.95
38.39
41.69
43.74
45.06
45.80
45.98
45.73
45.34
45.19
45.40
45.79
45.83
45.00
43.06
40.22
37.04
34.05
31.55
29.31
26.77
23.27
18.46
12.45
5.82
-0.68
-6.45
-11.26
-15.35
-19.30
-23.74
-29.24
-36.04
-43.99
-52.46
-60.37
-66.30
-68.84
-66.95
-60.36
-49.72
-36.41
-22.18
-8.60
3.26
13.02
20.78
26.83
31.38
34.43
35.91
35.85
34.60
32.74
30.91
29.54
28.67
28.02
27.19
25.91
24.21
22.31
20.53
19.04
17.78
16.51
14.88
12.56
9.40
5.38
0.70
-4.27
-9.14
-13.56
-17.39
-20.74
-23.94
-27.52
-31.97
-37.66
-44.53
-51.97
-58.78
-63.33
-64.02
-59.87
-50.85
-38.07
-23.35
-8.65
4.50
15.34
23.85
30.45
35.59
39.56
42.40
44.08
44.62
44.21
43.19
41.95
40.79
39.83
38.95
37.97
36.67
35.03
33.14
31.25
29.50
27.91
26.23
24.09
21.10
17.03
11.91
5.98
-0.35
-6.67
-12.65
-18.13
-23.10
-27.67
-32.07
-36.58
-41.58
-47.39
-54.10
-61.30
-67.97
-72.59
-73.54
-69.68
-60.87
-48.15
-33.38
-18.59
-5.35
5.64
14.53
21.89
28.22
33.68
38.07
41.12
42.73
43.19
42.98
42.58
42.27
41.95
41.35
40.10
38.05
35.29
32.13
28.96
26.05
23.45
20.98
18.33
15.22
11.53
7.34
2.90
-1.53
-5.72
-9.62
-13.27
-16.79
-20.35
-24.17
-28.54
-33.75
-40.02
-47.17
-54.51
-60.84
-64.61
-64.50
-59.83
-50.87
-38.80
-25.29
-11.96
0.03
10.14
18.38
24.93
29.97
33.51
35.52
36.05
35.36
33.95
32.41
31.23
30.65
30.59
30.69
30.52
29.73
28.17
25.97
23.37
20.60
17.76
14.72
11.26
7.18
2.38
-2.96
-8.54
-13.95
-18.90
-23.26
-27.13
-30.72
-34.33
-38.22
-42.61
-47.65
-53.34
-59.41
-65.15
-69.43
-70.95
-68.61
-61.97
-51.46
-38.33
-24.20
-10.65
1.24
10.99
18.59
24.30
28.38
31.08
32.57
33.06
32.80
32.09
31.26
30.55
30.09
29.83
29.61
29.17
28.31
26.96
25.20
23.18
21.07
18.90
16.55
13.85
10.65
6.91
2.78
-1.56
-5.88
-10.03
-13.96
-17.70
-21.28
-24.85
-28.61
-32.87
-37.98
-44.16
-51.34
-58.88
-65.63
-70.11
-70.88
-67.10
-58.79
-46.92
-33.14
-19.23
-6.62
3.93
12.36
19.02
24.38
28.71
32.06
34.35
35.54
35.81
35.49
34.96
34.48
34.07
33.56
32.64
31.16
29.11
26.70
24.20
21.80
19.49
17.08
14.24
10.71
6.38
1.40
-3.87
-9.01
-13.66
-17.62
-20.95
-23.87
-26.69
-29.66
-32.95
-36.61
-40.56
-44.53
-47.99
-50.11
-49.97
-46.83
-40.47
-31.31
-20.42
-9.09
1.53
10.73
18.31
24.36
29.05
32.40
34.35
34.88
34.20
32.74
31.00
29.41
28.13
27.09
26.06
24.87
23.52
22.17
21.02
20.18
19.55
18.82
17.58
15.47
12.32
8.17
3.30
-1.87
-6.91
-11.52
-15.62
-19.39
-23.20
-27.55
-32.85
-39.25
-46.41
-53.49
-59.15
-62.01
-60.96
-55.61
-46.48
-34.83
-22.25
-10.18
0.45
9.35
16.63
22.60
27.43
31.09
33.47
34.52
34.38
33.42
32.11
30.87
29.88
29.09
28.26
27.14
25.63
23.78
21.84
20.04
18.45
16.99
15.34
13.14
10.12
6.19
1.58
-3.31
-8.04
-12.25
-15.84
-19.00
-22.15
-25.80
-30.39
-36.14
-42.89
-50.01
-56.41
-60.74
-61.70
-58.49
-51.08
-40.32
-27.69
-14.84
-3.12
6.76
14.66
20.82
25.55
29.04
31.36
32.54
32.78
32.40
31.84
31.39
31.13
30.85
30.23
29.01
27.13
24.76
22.19
19.68
17.28
14.81
11.97
8.45
4.07
-1.11
-6.81
-12.61
-18.07
-22.95
-27.19
-31.01
-34.84
-39.21
-44.65
-51.46
-59.56
-68.33
-76.60
-82.86
-85.64
-83.91
-77.47
-66.99
-53.78
-39.44
-25.43
-12.81
-2.14
6.37
12.73
17.08
19.60
20.57
20.40
19.60
18.67
18.07
18.00
18.47
19.26
20.07
20.60
20.63
20.08
18.84
16.91
14.21
10.81
6.82
2.51
-1.82
-5.88
-9.51
-12.71
-15.69
-18.77
-22.29
-26.54
-31.56
-37.06
-42.35
-46.35
-47.87
-45.91
-40.09
-30.80
-19.07
-6.30
6.22
17.62
27.53
35.90
42.78
48.13
51.81
53.70
53.88
52.68
50.61
48.18
45.74
43.43
41.24
39.12
37.05
35.08
33.20
31.33
29.19
26.41
22.59
17.53
11.28
4.17
-3.25
-10.45
-17.01
-22.76
-27.81
-32.57
-37.57
-43.41
-50.47
-58.60
-66.98
-74.12
-78.26
-77.88
-72.30
-61.92
-48.11
-32.70
-17.39
-3.34
8.98
19.52
28.35
35.53
40.97
44.67
46.81
47.79
48.15
48.38
48.73
49.18
49.56
49.61
49.25
48.52
47.53
46.29
44.62
42.14
38.44
33.34
26.98
19.88
12.76
6.29
0.85
-3.59
-7.46
-11.45
-16.23
-22.24
-29.44
-37.17
-44.24
-49.16
-50.60
-47.76
-40.78
-30.63
-18.89
-7.24
2.99
11.12
17.10
21.28
24.14
26.11
27.41
28.16
28.41
28.20
27.63
26.83
25.91
24.99
24.13
23.39
22.74
22.14
21.44
20.45
18.89
16.49
13.05
8.53
3.13
-2.75
-8.58
-13.90
-18.50
-22.54
-26.56
-31.30
-37.32
-44.72
-52.80
-60.16
-65.00
-65.67
-61.29
-51.99
-38.98
-24.09
-9.24
4.09
15.19
24.00
30.94
36.48
40.91
44.20
46.16
46.66
45.77
43.90
41.63
39.53
37.94
36.95
36.37
35.87
35.16
33.96
32.05
29.25
25.39
20.40
14.38
7.62
0.61
-6.05
-11.84
-16.55
-20.38
-23.94
-28.07
-33.39
-39.95
-46.96
-52.90
-55.99
-54.76
-48.61
-38.04
-24.48
-9.75
4.42
16.82
26.86
34.45
39.78
43.07
44.51
44.31
42.75
40.25
37.33
34.52
32.18
30.48
29.35
28.54
27.79
26.86
25.65
24.06
22.02
19.41
16.08
12.00
7.27
2.19
-2.95
-7.96
-12.86
-17.92
-23.45
-29.63
-36.23
-42.50
-47.26
-49.19
-47.23
-41.01
-30.96
-18.28
-4.60
8.50
19.88
28.95
35.64
40.15
42.77
43.75
43.32
41.81
39.66
37.39
35.52
34.35
33.96
34.16
34.62
34.96
34.94
34.46
33.56
32.33
30.84
29.08
27.05
24.78
22.42
20.21
18.36
16.81
15.18
12.74
8.69
2.48
-5.82
-15.36
-24.60
-31.68
-34.87
-33.00
-25.79
-13.90
1.22
17.50
32.78
45.09
53.08
56.24
54.96
50.26
43.47
35.77
27.93
20.20
12.59
5.06
-2.20
-8.77
-14.14
-17.97
-20.14
-20.91
-20.78
-20.46
-20.74
-22.46
-26.32
-32.74
-41.59
-52.03
-62.52
-71.06
-75.64
-74.81
-68.18
-56.65
-42.26
-27.61
-15.10
-6.16
-0.89
1.88
4.00
7.29
12.92
21.12
31.28
42.27
52.80
61.69
67.98
70.92
70.00
65.02
56.21
44.42
31.03
17.77
6.26
-2.44
-8.12
-11.39
-13.36
-15.12
-17.43
-20.50
-24.21
-28.34
-32.81
-37.65
-42.90
-48.43
-53.90
-58.88
-62.99
-66.08
-68.22
-69.66
-70.67
-71.45
-72.07
-72.54
-72.89
-73.21
-73.75
-74.76
-76.35
-78.25
-79.70
-79.52
-76.51
-69.80
-59.30
-45.81
-30.78
-15.79
-2.10
9.66
19.44
27.51
34.17
39.51
43.47
46.01
47.28
47.67
47.68
47.72
47.86
47.84
47.25
45.80
43.52
40.81
38.22
36.09
34.33
32.42
29.64
25.47
19.90
13.48
7.11
1.68
-2.29
-4.71
-5.94
-6.50
-6.99
-7.92
-9.67
-12.25
-15.00
-16.48
-14.65
-7.51
6.06
25.56
48.72
72.14
92.27
106.48
113.53
113.58
107.62
96.90
82.67
66.15
48.65
31.62
16.40
3.90
-5.62
-12.68
-18.34
-23.76
-29.76
-36.47
-43.34
-49.35
-53.55
-55.40
-55.11
-53.43
-51.29
-49.40
-48.06
-47.12
-46.35
-45.62
-45.14
-45.30
-46.51
-49.06
-52.87
-57.57
-62.43
-66.49
-68.72
-68.19
-64.39
-57.39
-47.84
-36.83
-25.54
-14.99
-5.77
1.93
8.29
13.67
18.42
22.75
26.67
30.04
32.65
34.38
35.25
35.36
34.84
33.74
32.04
29.75
26.96
23.89
20.81
17.85
14.95
11.90
8.44
4.50
0.22
-4.06
-8.04
-11.58
-14.74
-17.73
-20.72
-23.83
-27.04
-30.23
-33.17
-35.49
-36.66
-36.06
-33.19
-27.88
-20.52
-11.96
-3.31
4.38
10.45
14.75
17.50
19.16
20.20
20.98
21.71
22.50
23.32
24.09
24.68
24.96
24.78
24.05
22.75
20.92
18.71
16.29
13.85
11.45
8.99
6.20
2.81
-1.36
-6.18
-11.26
-15.99
-19.80
-22.36
-23.74
-24.38
-24.92
-26.02
-28.06
-31.04
-34.49
-37.59
-39.43
-39.22
-36.63
-31.79
-25.33
-18.08
-10.82
-4.16
1.56
6.12
9.41
11.31
11.82
11.10
9.52
7.61
5.88
4.72
4.26
4.43
4.97
5.61
6.15
6.46
6.55
6.45
6.21
5.79
5.08
3.96
2.36
0.33
-1.93
-4.15
-6.12
-7.80
-9.30
-10.86
-12.71
-15.01
-17.82
-21.09
-24.64
-28.12
-31.01
-32.66
-32.46
-30.04
-25.48
-19.30
-12.32
-5.41
0.74
5.80
9.72
12.58
14.44
15.27
15.04
13.84
11.97
9.92
8.24
7.24
6.91
6.97
6.98
6.67
6.02
5.19
4.40
3.73
3.06
2.13
0.75
-1.11
-3.31
-5.60
-7.76
-9.70
-11.48
-13.26
-15.21
-17.50
-20.24
-23.49
-27.18
-31.07
-34.64
-37.18
-37.92
-36.29
-32.12
-25.82
-18.22
-10.37
-3.16
2.85
7.57
11.17
13.91
15.98
17.43
18.25
18.49
18.29
17.90
17.54
17.31
17.16
16.92
16.48
15.78
14.92
14.01
13.11
12.17
11.02
9.43
7.23
4.41
1.11
-2.43
-5.96
-9.33
-12.57
-15.82
-19.36
-23.43
-28.14
-33.27
-38.22
-42.05
-43.77
-42.58
-38.22
-31.09
-22.11
-12.47
-3.25
4.82
11.38
16.37
19.88
22.02
22.96
22.88
22.07
20.96
19.94
19.33
19.28
19.65
20.13
20.35
20.04
19.13
17.76
16.15
14.47
12.68
10.55
7.75
4.11
-0.30
-5.18
-10.08
-14.64
-18.79
-22.71
-26.83
-31.60
-37.23
-43.58
-50.07
-55.75
-59.53
-60.49
-58.10
-52.42
-44.11
-34.22
-23.85
-13.93
-5.01
2.67
9.06
14.20
18.12
20.84
22.48
23.28
23.56
23.64
23.75
23.92
24.02
23.85
23.34
22.53
21.63
20.85
20.26
19.69
18.78
17.14
14.46
10.71
6.08
0.88
-4.49
-9.79
-14.89
-19.93
-25.18
-31.02
-37.68
-45.02
-52.37
-58.61
-62.42
-62.68
-58.85
-51.15
-40.51
-28.23
-15.71
-3.99
6.29
14.89
21.83
27.14
30.88
33.10
34.03
34.10
33.90
33.97
34.59
35.68
36.83
37.58
37.64
37.00
35.85
34.42
32.78
30.75
27.98
24.16
19.20
13.36
7.14
1.17
-4.08
-8.45
-12.13
-15.67
-19.72
-24.89
-31.44
-39.18
-47.31
-54.54
-59.30
-60.17
-56.33
-47.83
-35.67
-21.47
-7.04
6.13
17.15
25.71
31.95
36.20
38.80
40.04
40.24
39.75
39.00
38.42
38.25
38.56
39.14
39.67
39.88
39.65
39.01
38.07
36.83
35.10
32.59
28.99
24.16
18.25
11.63
4.79
-1.83
-7.99
-13.63
-18.92
-24.13
-29.60
-35.58
-42.11
-48.76
-54.61
-58.39
-58.84
-55.13
-47.23
-36.00
-22.92
-9.63
2.51
12.72
20.73
26.64
30.70
33.13
34.18
34.09
33.26
32.11
31.03
30.32
30.06
30.12
30.26
30.19
29.70
28.74
27.36
25.68
23.67
21.18
17.95
13.79
8.75
3.17
-2.43
-7.55
-12.00
-15.96
-19.97
-24.70
-30.62
-37.72
-45.37
-52.34
-57.16
-58.41
-55.24
-47.56
-36.16
-22.47
-8.21
5.10
16.45
25.41
32.08
36.75
39.74
41.23
41.37
40.36
38.59
36.58
34.84
33.70
33.14
32.87
32.51
31.71
30.30
28.25
25.62
22.41
18.57
13.95
8.48
2.18
-4.75
-11.96
-19.04
-25.63
-31.55
-36.86
-41.83
-46.88
-52.36
-58.37
-64.59
-70.20
-74.02
-74.72
-71.20
-62.93
-50.04
-33.40
-14.40
5.27
23.80
39.63
51.63
59.39
63.26
64.17
63.28
61.63
59.87
58.23
56.78
55.55
54.66
54.15
53.86
53.45
52.52
50.89
48.74
46.49
44.52
42.85
41.17
38.85
35.34
30.45
24.31
17.39
10.21
3.25
-3.23
-9.09
-14.45
-19.61
-25.05
-31.27
-38.56
-46.66
-54.68
-61.14
-64.33
-62.93
-56.46
-45.49
-31.48
-16.37
-1.95
10.55
20.70
28.71
35.10
40.34
44.70
48.15
50.59
51.95
52.40
52.21
51.69
50.98
50.07
48.81
47.07
44.85
42.28
39.61
37.01
34.58
32.25
29.79
26.89
23.21
18.55
12.91
6.60
0.10
-6.05
-11.50
-16.13
-20.12
-23.82
-27.69
-32.12
-37.39
-43.62
-50.63
-57.86
-64.25
-68.47
-69.15
-65.42
-57.25
-45.55
-31.92
-18.13
-5.58
4.99
13.57
20.51
26.21
30.77
34.11
36.04
36.57
36.06
35.09
34.21
33.74
33.60
33.47
32.92
31.73
29.96
27.87
25.80
23.88
22.00
19.79
16.89
13.04
8.33
3.12
-2.10
-6.89
-11.00
-14.51
-17.66
-20.81
-24.29
-28.38
-33.17
-38.59
-44.20
-49.19
-52.43
-52.78
-49.46
-42.37
-32.24
-20.39
-8.28
2.89
12.48
20.36
26.66
31.48
34.82
36.62
36.92
36.02
34.51
33.06
32.19
32.06
32.43
32.83
32.73
31.81
30.05
27.72
25.13
22.52
19.89
17.06
13.75
9.78
5.12
-0.04
-5.39
-10.60
-15.42
-19.75
-23.66
-27.32
-31.00
-34.99
-39.57
-44.90
-50.86
-56.93
-62.10
-65.09
-64.68
-60.14
-51.53
-39.73
-26.24
-12.62
-0.11
10.57
19.22
25.90
30.75
33.93
35.60
36.02
35.52
34.48
33.23
32.04
31.08
30.47
30.21
30.18
30.14
29.82
29.04
27.74
26.07
24.18
22.14
19.82
16.96
13.35
8.92
3.82
-1.65
-7.09
-12.18
-16.69
-20.58
-24.01
-27.30
-30.89
-35.22
-40.47
-46.40
-52.29
-57.02
-59.36
-58.39
-53.82
-46.09
-36.18
-25.34
-14.68
-4.96
3.47
10.60
16.49
21.21
24.77
27.11
28.27
28.41
27.77
26.72
25.65
24.83
24.42
24.36
24.45
24.41
24.05
23.24
21.99
20.35
18.35
16.06
13.47
10.59
7.34
3.70
-0.37
-4.82
-9.50
-14.18
-18.58
-22.49
-25.83
-28.72
-31.43
-34.38
-37.96
-42.44
-47.73
-53.34
-58.32
-61.43
-61.55
-57.99
-50.80
-40.77
-29.18
-17.47
-6.83
2.05
8.94
14.01
17.54
19.85
21.14
21.58
21.31
20.59
19.71
19.00
18.69
18.84
19.29
19.76
19.96
19.71
19.02
18.03
16.90
15.63
14.07
11.95
9.04
5.30
0.93
-3.67
-8.03
-11.78
-14.84
-17.36
-19.69
-22.27
-25.44
-29.38
-34.01
-38.98
-43.65
-47.19
-48.67
-47.34
-42.90
-35.62
-26.36
-16.31
-6.65
1.82
8.76
14.23
18.43
21.45
23.23
23.73
23.08
21.70
20.27
19.39
19.38
20.12
21.14
21.85
21.81
20.90
19.27
17.26
15.20
13.28
11.54
9.87
8.07
5.92
3.17
-0.41
-4.94
-10.35
-16.36
-22.45
-28.09
-32.91
-36.86
-40.29
-43.73
-47.68
-52.27
-57.06
-61.11
-63.21
-62.34
-57.96
-50.26
-40.05
-28.54
-16.94
-6.23
3.09
10.82
17.02
21.76
25.11
27.12
27.92
27.80
27.11
26.24
25.45
24.79
24.10
23.13
21.70
19.83
17.72
15.70
14.06
12.86
12.02
11.24
10.19
8.57
6.16
2.90
-1.09
-5.59
-10.28
-14.84
-19.10
-23.05
-26.86
-30.83
-35.30
-40.52
-46.54
-53.07
-59.36
-64.28
-66.57
-65.23
-59.85
-50.86
-39.36
-26.84
-14.69
-3.87
5.20
12.51
18.29
22.76
26.03
28.18
29.32
29.64
29.44
29.02
28.65
28.47
28.49
28.62
28.68
28.44
27.72
26.39
24.48
22.15
19.58
16.88
14.03
10.84
7.15
2.89
-1.83
-6.72
-11.46
-15.84
-19.80
-23.52
-27.34
-31.68
-36.90
-43.20
-50.32
-57.58
-63.86
-67.92
-68.72
-65.74
-59.13
-49.61
-38.26
-26.21
-14.41
-3.55
5.85
13.46
18.99
22.27
23.37
22.65
20.82
18.77
17.34
16.99
17.70
19.00
20.15
20.48
19.62
17.66
15.12
12.91
11.97
12.98
16.04
20.50
25.10
28.41
29.37
27.61
23.53
17.92
11.50
4.65
-2.69
-10.77
-19.74
-29.37
-39.08
-47.96
-54.94
-58.99
-59.32
-55.68
-48.40
-38.41
-26.97
-15.31
-4.34
5.44
13.80
20.61
25.67
28.82
30.11
29.93
28.96
27.99
27.59
27.92
28.73
29.53
29.85
29.51
28.60
27.45
26.34
25.28
23.93
21.78
18.35
13.52
7.59
1.21
-4.92
-10.40
-15.21
-19.74
-24.51
-29.97
-36.39
-43.75
-51.76
-59.83
-67.03
-72.18
-74.10
-71.88
-65.28
-54.80
-41.66
-27.41
-13.55
-1.21
9.09
17.28
23.67
28.67
32.66
35.96
38.91
41.82
44.99
48.45
51.85
54.48
55.56
54.59
51.71
47.70
43.61
40.26
37.82
35.74
33.12
29.18
23.70
17.07
10.07
3.45
-2.39
-7.51
-12.35
-17.50
-23.49
-30.70
-39.10
-48.28
-57.29
-64.82
-69.40
-69.84
-65.56
-56.86
-44.81
-30.89
-16.59
-3.01
9.23
19.87
28.86
36.17
41.75
45.63
47.99
49.16
49.63
49.84
50.05
50.29
50.38
50.04
49.11
47.60
45.75
43.83
42.02
40.18
37.93
34.79
30.38
24.70
18.13
11.27
4.72
-1.11
-6.22
-10.91
-15.75
-21.32
-28.11
-36.22
-45.27
-54.29
-61.87
-66.45
-66.79
-62.35
-53.45
-41.31
-27.51
-13.62
-0.80
10.32
19.63
27.28
33.45
38.24
41.72
43.99
45.28
45.93
46.33
46.71
47.10
47.31
47.09
46.28
44.94
43.31
41.68
40.24
38.88
37.24
34.83
31.26
26.41
20.54
14.20
8.04
2.61
-1.90
-5.73
-9.47
-13.90
-19.66
-26.98
-35.49
-44.12
-51.38
-55.70
-55.92
-51.61
-43.26
-32.07
-19.56
-7.13
4.31
14.37
23.04
30.42
36.50
41.13
44.18
45.73
46.20
46.19
46.34
47.00
48.11
49.32
50.15
50.27
49.66
48.51
47.09
45.50
43.60
41.07
37.53
32.82
27.08
20.77
14.48
8.77
3.85
-0.41
-4.45
-8.80
-13.94
-20.13
-27.35
-35.31
-43.39
-50.61
-55.82
-57.85
-55.98
-50.18
-41.30
-30.81
-20.33
-11.10
-3.67
2.06
6.59
10.37
13.59
16.16
17.85
18.47
17.97
16.44
14.04
11.01
7.72
4.74
2.82
2.69
4.82
9.17
15.18
21.78
27.75
31.99
33.83
33.17
30.57
27.10
23.99
22.30
22.51
24.32
26.77
28.58
28.64
26.30
21.61
15.15
7.83
0.68
-5.15
-8.46
-8.13
-3.29
6.20
19.61
35.40
51.57
66.27
78.20
86.74
91.69
92.94
90.21
83.06
71.10
54.31
33.35
9.55
-15.20
-38.66
-58.61
-73.28
-81.76
-84.26
-82.01
-76.91
-70.81
-64.97
-59.79
-55.04
-50.31
-45.47
-40.81
-36.74
-33.53
-31.05
-28.83
-26.44
-23.80
-21.32
-19.73
-19.72
-21.64
-25.48
-30.88
-37.36
-44.27
-50.81
-55.87
-58.22
-56.80
-51.12
-41.58
-29.35
-16.07
-3.31
7.90
17.21
24.80
31.05
36.21
40.31
43.18
44.64
44.66
43.37
41.04
37.91
34.19
30.04
25.68
21.39
17.60
14.61
12.58
11.34
10.50
9.50
7.86
5.30
1.80
-2.43
-7.05
-11.72
-16.17
-20.30
-24.20
-28.11
-32.38
-37.29
-42.98
-49.27
-55.69
-61.37
-65.31
-66.55
-64.48
-59.11
-51.06
-41.51
-31.81
-23.20
-16.48
-11.96
-9.49
-8.67
-8.92
-9.56
-9.76
-8.65
-5.46
0.20
8.22
17.99
28.67
39.50
50.12
60.51
70.78
80.82
90.13
97.77
102.68
103.90
100.80
93.13
81.11
65.51
47.59
29.09
11.81
-2.83
-14.21
-22.75
-29.62
-36.37
-44.21
-53.63
-64.24
-74.94
-84.33
-91.17
-94.68
-94.62
-91.29
-85.34
-77.59
-68.91
-60.02
-51.51
-43.75
-36.89
-30.96
-25.87
-21.51
-17.76
-14.51
-11.59
-8.92
-6.43
-4.22
-2.44
-1.26
-0.68
-0.51
-0.46
-0.25
0.18
0.67
0.89
0.47
-0.78
-2.87
-5.60
-8.67
-11.79
-14.80
-17.69
-20.58
-23.67
-27.17
-31.31
-36.16
-41.63
-47.26
-52.17
-55.23
-55.33
-51.77
-44.59
-34.65
-23.33
-12.05
-1.83
6.90
14.20
20.28
25.29
29.15
31.73
33.05
33.39
33.26
33.17
33.42
34.01
34.72
35.22
35.29
34.88
34.07
32.98
31.69
30.16
28.29
25.90
22.86
19.16
14.88
10.27
5.73
1.60
-1.90
-4.82
-7.46
-10.26
-13.62
-17.81
-22.87
-28.64
-34.73
-40.44
-44.88
-47.03
-46.14
-41.99
-35.05
-26.37
-17.25
-8.76
-1.56
4.20
8.68
12.16
14.83
16.80
18.13
18.92
19.28
19.42
19.52
19.74
20.09
20.47
20.65
20.41
19.63
18.41
16.92
15.37
13.79
12.05
9.95
7.34
4.28
0.99
-2.23
-5.14
-7.64
-9.82
-11.90
-14.18
-16.96
-20.45
-24.70
-29.45
-34.12
-37.84
-39.65
-38.80
-35.01
-28.60
-20.44
-11.57
-2.98
4.73
11.36
16.93
21.52
25.07
27.42
28.41
28.07
26.68
24.78
22.89
21.42
20.49
19.96
19.59
19.14
18.53
17.77
16.94
16.08
15.14
13.93
12.24
9.87
6.74
3.01
-1.00
-4.81
-7.99
-10.34
-12.00
-13.48
-15.57
-19.07
-24.55
-32.07
-41.06
-50.39
-58.57
-64.17
-66.18
-64.31
-58.99
-51.20
-42.08
-32.56
-23.28
-14.55
-6.46
0.84
7.20
12.43
16.41
19.19
20.94
21.91
22.40
22.60
22.60
22.43
22.05
21.45
20.68
19.81
19.00
18.34
17.85
17.39
16.68
15.35
13.13
9.90
5.81
1.24
-3.38
-7.71
-11.68
-15.51
-19.58
-24.33
-29.96
-36.42
-43.26
-49.75
-54.97
-57.96
-57.99
-54.69
-48.26
-39.44
-29.28
-18.93
-9.27
-0.80
6.33
12.21
16.95
20.66
23.36
25.17
26.27
26.93
27.36
27.73
28.04
28.15
27.93
27.24
26.10
24.60
22.98
21.49
20.34
19.53
18.84
17.87
16.16
13.37
9.48
4.80
-0.12
-4.71
-8.60
-11.76
-14.54
-17.52
-21.34
-26.46
-32.96
-40.41
-47.87
-54.07
-57.67
-57.69
-53.77
-46.28
-36.20
-24.82
-13.38
-2.88
6.09
13.26
18.62
22.31
24.53
25.61
25.95
26.02
26.25
26.91
27.99
29.26
30.33
30.89
30.78
30.08
29.00
27.71
26.28
24.59
22.41
19.47
15.65
10.97
5.68
0.19
-5.10
-9.92
-14.28
-18.48
-23.03
-28.43
-34.92
-42.31
-49.82
-56.24
-60.22
-60.68
-57.15
-49.96
-40.09
-28.89
-17.60
-7.10
2.16
10.07
16.67
21.97
25.94
28.53
29.89
30.27
30.14
29.95
30.03
30.50
31.19
31.83
32.13
32.05
31.72
31.40
31.18
30.91
30.12
28.26
24.90
19.99
13.82
6.97
-0.00
-6.77
-13.27
-19.70
-26.40
-33.64
-41.53
-49.87
-58.10
-65.25
-70.19
-71.81
-69.44
-63.04
-53.30
-41.43
-28.83
-16.68
-5.69
3.89
12.06
18.93
24.51
28.76
31.72
33.64
34.95
36.13
37.50
39.07
40.55
41.50
41.55
40.63
38.96
36.91
34.79
32.70
30.44
27.63
23.91
19.09
13.24
6.71
-0.01
-6.47
-12.42
-17.91
-23.26
-29.01
-35.72
-43.67
-52.73
-62.18
-70.75
-76.86
-79.01
-76.21
-68.35
-56.23
-41.40
-25.60
-10.41
3.20
14.79
24.38
32.08
37.97
42.11
44.63
45.89
46.44
46.85
47.49
48.40
49.30
49.81
49.61
48.62
47.01
45.08
43.07
41.04
38.79
35.89
31.87
26.49
19.80
12.23
4.50
-2.72
-9.02
-14.46
-19.51
-24.85
-31.11
-38.60
-47.22
-56.30
-64.71
-71.01
-73.74
-71.84
-65.01
-53.88
-39.83
-24.59
-9.78
3.53
14.78
23.90
30.99
36.18
39.66
41.67
42.61
42.94
43.07
43.26
43.53
43.77
43.84
43.68
43.30
42.74
41.97
40.86
39.15
36.57
32.90
28.10
22.34
16.01
9.61
3.58
-1.82
-6.68
-11.40
-16.62
-22.96
-30.74
-39.71
-48.88
-56.66
-61.27
-61.22
-55.89
-45.72
-32.16
-17.19
-2.71
9.97
20.27
28.24
34.25
38.62
41.54
43.09
43.37
42.70
41.55
40.42
39.65
39.27
39.04
38.58
37.64
36.13
34.19
31.97
29.48
26.55
22.86
18.16
12.41
5.85
-0.96
-7.40
-12.98
-17.57
-21.45
-25.36
-30.14
-36.53
-44.67
-53.99
-63.11
-70.24
-73.62
-72.07
-65.30
-54.03
-39.73
-24.13
-8.88
4.92
16.70
26.38
34.11
40.08
44.44
47.31
48.89
49.47
49.39
48.97
48.41
47.78
47.02
46.02
44.72
43.08
41.17
39.04
36.67
33.92
30.55
26.30
20.99
14.67
7.65
0.44
-6.42
-12.49
-17.66
-22.19
-26.69
-31.91
-38.45
-46.43
-55.28
-63.72
-70.10
-72.78
-70.73
-63.84
-52.92
-39.43
-24.96
-10.83
2.24
14.03
24.61
34.01
42.05
48.35
52.54
54.56
54.77
53.86
52.66
51.76
51.32
51.09
50.57
49.31
47.15
44.19
40.78
37.27
33.83
30.40
26.74
22.55
17.61
11.91
5.67
-0.70
-6.76
-12.16
-16.83
-20.95
-24.95
-29.37
-34.66
-41.07
-48.39
-55.92
-62.47
-66.62
-67.13
-63.30
-55.33
-44.18
-31.32
-18.26
-6.10
4.58
13.69
21.35
27.67
32.67
36.28
38.49
39.41
39.34
38.75
38.08
37.65
37.53
37.49
37.16
36.17
34.41
32.05
29.45
26.92
24.52
22.01
18.95
15.03
10.22
4.89
-0.37
-5.04
-8.88
-12.11
-15.22
-18.86
-23.51
-29.39
-36.33
-43.74
-50.72
-56.12
-58.80
-57.88
-53.07
-44.75
-33.99
-22.16
-10.58
-0.16
8.68
15.94
21.75
26.17
29.15
30.62
30.72
29.82
28.47
27.27
26.54
26.33
26.37
26.30
25.79
24.72
23.20
21.41
19.57
17.70
15.63
13.08
9.78
5.61
0.72
-4.50
-9.55
-14.01
-17.68
-20.69
-23.40
-26.36
-30.07
-34.84
-40.66
-47.15
-53.46
-58.48
-60.96
-59.92
-54.98
-46.50
-35.59
-23.70
-12.26
-2.17
6.22
13.13
18.90
23.77
27.69
30.45
31.85
31.95
31.16
30.00
28.97
28.27
27.82
27.36
26.63
25.54
24.19
22.79
21.45
20.17
18.75
16.96
14.56
11.47
7.73
3.48
-1.08
-5.71
-10.15
-14.17
-17.64
-20.65
-23.54
-26.91
-31.38
-37.30
-44.50
-52.11
-58.79
-63.06
-63.77
-60.47
-53.49
-43.78
-32.65
-21.36
-10.86
-1.68
6.08
12.56
18.01
22.59
26.34
29.20
31.11
32.12
32.40
32.21
31.77
31.18
30.40
29.36
27.99
26.32
24.46
22.55
20.62
18.61
16.33
13.58
10.20
6.21
1.73
-3.00
-7.71
-12.17
-16.21
-19.79
-22.93
-25.82
-28.74
-32.09
-36.23
-41.33
-47.17
-53.03
-57.83
-60.37
-59.75
-55.65
-48.47
-39.16
-28.94
-18.85
-9.63
-1.57
5.32
11.11
15.92
19.76
22.64
24.65
25.91
26.61
26.90
26.89
26.63
26.11
25.33
24.33
23.21
22.09
21.03
20.02
18.89
17.37
15.19
12.13
8.21
3.66
-1.10
-5.60
-9.53
-12.86
-15.86
-19.02
-22.82
-27.55
-33.13
-39.06
-44.46
-48.30
-49.62
-47.83
-42.88
-35.28
-26.00
-16.15
-6.71
1.67
8.76
14.57
19.21
22.76
25.24
26.64
27.05
26.69
25.87
24.92
24.08
23.40
22.80
22.09
21.14
19.91
18.47
16.92
15.30
13.47
11.24
8.36
4.72
0.44
-4.21
-8.82
-13.07
-16.78
-19.96
-22.78
-25.50
-28.46
-31.99
-36.33
-41.48
-47.04
-52.21
-55.86
-56.84
-54.40
-48.48
-39.76
-29.40
-18.67
-8.51
0.57
8.42
15.03
20.34
24.22
26.58
27.52
27.41
26.81
26.27
26.15
26.46
26.98
27.31
27.16
26.42
25.25
23.90
22.61
21.36
19.91
17.85
14.81
10.67
5.62
0.14
-5.23
-10.03
-14.05
-17.30
-20.08
-22.83
-26.06
-30.19
-35.41
-41.41
-47.38
-52.15
-54.42
-53.30
-48.56
-40.75
-30.97
-20.53
-10.52
-1.57
6.10
12.53
17.79
21.88
24.79
26.57
27.47
27.84
28.05
28.32
28.69
29.00
29.04
28.65
27.82
26.73
25.56
24.50
23.56
22.61
21.36
19.48
16.72
13.01
8.48
3.46
-1.60
-6.31
-10.46
-14.03
-17.32
-20.76
-24.78
-29.66
-35.29
-41.16
-46.40
-49.97
-50.88
-48.50
-42.80
-34.34
-24.25
-13.86
-4.31
3.68
10.01
15.04
19.25
23.05
26.53
29.50
31.70
32.97
33.28
32.80
31.75
30.31
28.63
26.85
25.05
23.32
21.65
19.94
17.99
15.58
12.55
8.84
4.62
0.17
-4.14
-7.99
-11.21
-13.95
-16.62
-19.77
-23.87
-29.03
-34.79
-40.23
-44.12
-45.34
-43.22
-37.74
-29.59
-19.87
-9.83
-0.47
7.57
14.15
19.37
23.43
26.46
28.44
29.32
29.15
28.14
26.71
25.34
24.37
23.90
23.81
23.81
23.62
23.08
22.08
20.54
18.38
15.49
11.83
7.54
2.84
-1.97
-6.64
-11.05
-15.23
-19.35
-23.67
-28.47
-33.88
-39.77
-45.61
-50.48
-53.24
-52.94
-49.13
-42.14
-32.99
-23.05
-13.58
-5.38
1.31
6.73
11.23
15.07
18.29
20.80
22.53
23.56
24.10
24.40
24.66
24.89
24.97
24.71
23.99
22.81
21.27
19.47
17.49
15.24
12.57
9.42
5.80
1.93
-1.88
-5.37
-8.46
-11.32
-14.37
-18.11
-22.89
-28.66
-34.92
-40.73
-44.93
-46.51
-44.85
-39.98
-32.51
-23.46
-13.93
-4.84
3.26
10.16
15.91
20.63
24.35
27.08
28.73
29.31
28.96
27.97
26.69
25.42
24.34
23.46
22.65
21.77
20.67
19.22
17.34
14.93
11.91
8.33
4.31
0.09
-4.06
-7.90
-11.34
-14.45
-17.44
-20.62
-24.28
-28.58
-33.42
-38.27
-42.26
-44.29
-43.41
-39.20
-31.97
-22.72
-12.79
-3.44
4.49
10.72
15.43
18.95
21.62
23.65
25.10
25.92
26.10
25.69
24.82
23.67
22.42
21.17
19.95
18.72
17.41
15.95
14.24
12.18
9.61
6.46
2.79
-1.21
-5.26
-9.10
-12.66
-16.05
-19.52
-23.32
-27.60
-32.26
-36.91
-40.92
-43.48
-43.82
-41.44
-36.35
-29.04
-20.44
-11.55
-3.23
4.01
9.96
14.66
18.20
20.68
22.21
22.91
23.01
22.75
22.36
22.05
21.86
21.72
21.50
21.05
20.33
19.41
18.40
17.31
15.94
13.93
10.94
6.83
1.84
-3.49
-8.52
-12.83
-16.38
-19.52
-22.84
-26.91
-32.00
-37.92
-43.98
-49.12
-52.12
-52.00
-48.33
-41.40
-32.18
-21.93
-11.84
-2.70
5.20
11.87
17.46
22.03
25.58
28.11
29.71
30.57
30.97
31.13
31.19
31.12
30.80
30.08
28.91
27.34
25.59
23.91
22.47
21.24
19.94
18.16
15.51
11.84
7.28
2.26
-2.63
-6.95
-10.50
-13.45
-16.25
-19.47
-23.62
-28.96
-35.31
-42.07
-48.26
-52.71
-54.39
-52.68
-47.58
-39.76
-30.27
-20.33
-10.92
-2.64
4.33
10.03
14.58
18.02
20.41
21.81
22.45
22.68
22.88
23.32
24.06
24.90
25.53
25.65
25.10
23.93
22.36
20.67
19.10
17.70
16.28
14.48
11.92
8.37
3.92
-1.09
-6.17
-10.90
-15.05
-18.67
-22.00
-25.40
-29.22
-33.69
-38.80
-44.16
-48.95
-52.07
-52.44
-49.38
-42.92
-33.81
-23.28
-12.58
-2.63
6.11
13.55
19.75
24.71
28.34
30.56
31.43
31.28
30.64
30.10
30.10
30.78
31.93
33.12
33.88
33.92
33.24
32.12
30.96
30.09
29.56
29.11
28.27
26.57
23.70
19.64
14.65
9.13
3.49
-1.95
-7.04
-11.85
-16.55
-21.42
-26.78
-32.80
-39.36
-45.95
-51.68
-55.39
-56.07
-53.11
-46.57
-37.22
-26.32
-15.23
-5.04
3.67
10.81
16.62
21.38
25.22
28.06
29.72
30.11
29.36
27.91
26.35
25.20
24.76
24.95
25.46
25.88
25.92
25.47
24.67
23.64
22.46
21.02
19.09
16.43
12.95
8.80
4.31
-0.11
-4.14
-7.71
-10.92
-14.09
-17.49
-21.37
-25.83
-30.87
-36.32
-41.83
-46.75
-50.22
-51.26
-49.19
-43.85
-35.77
-25.96
-15.60
-5.64
3.40
11.30
18.08
23.71
28.09
31.12
32.78
33.30
33.06
32.49
31.96
31.68
31.66
31.73
31.68
31.27
30.38
29.03
27.30
25.33
23.17
20.80
18.12
15.06
11.58
7.79
3.91
0.18
-3.19
-6.16
-8.96
-12.02
-15.80
-20.70
-26.77
-33.62
-40.46
-46.26
-49.95
-50.75
-48.33
-42.93
-35.27
-26.37
-17.24
-8.66
-1.08
5.38
10.73
15.01
18.21
20.35
21.49
21.90
21.92
21.92
22.14
22.67
23.40
24.15
24.76
25.11
25.20
25.03
24.63
23.89
22.68
20.79
18.10
14.62
10.56
6.23
1.92
-2.24
-6.40
-10.89
-16.17
-22.55
-30.02
-38.10
-45.89
-52.22
-55.91
-56.11
-52.51
-45.51
-36.13
-25.69
-15.46
-6.32
1.35
7.59
12.63
16.64
19.61
21.49
22.32
22.34
21.96
21.64
21.62
21.87
22.15
22.14
21.64
20.65
19.31
17.78
16.04
13.93
11.12
7.39
2.68
-2.69
-8.28
-13.55
-18.21
-22.20
-25.76
-29.31
-33.29
-38.07
-43.81
-50.34
-57.06
-62.95
-66.73
-67.30
-64.05
-57.15
-47.53
-36.54
-25.46
-15.27
-6.42
1.03
7.17
12.06
15.73
18.15
19.42
19.77
19.57
19.17
18.81
18.57
18.38
18.14
17.77
17.31
16.80
16.25
15.55
14.51
12.88
10.54
7.46
3.75
-0.36
-4.62
-8.82
-12.87
-16.90
-21.19
-26.15
-32.10
-39.08
-46.61
-53.77
-59.30
-61.89
-60.67
-55.47
-46.89
-36.13
-24.61
-13.49
-3.48
5.25
12.89
19.64
25.60
30.60
34.43
36.91
38.16
38.43
38.15
37.66
37.16
36.69
36.17
35.50
34.61
33.46
31.97
30.01
27.39
23.93
19.57
14.44
8.88
3.37
-1.67
-6.01
-9.79
-13.47
-17.70
-23.04
-29.64
-37.11
-44.44
-50.26
-53.19
-52.22
-47.03
-38.12
-26.64
-14.11
-2.01
8.58
17.18
23.86
29.03
33.11
36.34
38.73
40.20
40.77
40.64
40.17
39.75
39.60
39.74
40.03
40.20
40.04
39.31
37.80
35.28
31.51
26.46
20.25
13.32
6.21
-0.59
-6.84
-12.62
-18.31
-24.43
-31.34
-39.06
-47.07
-54.29
-59.36
-60.97
-58.30
-51.36
-40.99
-28.60
-15.71
-3.52
7.27
16.47
24.13
30.39
35.32
39.01
41.59
43.27
44.32
44.90
45.06
44.71
43.74
42.14
40.04
37.64
35.12
32.54
29.79
26.66
22.90
18.33
12.92
6.80
0.27
-6.31
-12.54
-18.14
-23.06
-27.54
-32.08
-37.29
-43.62
-51.07
-59.03
-66.25
-71.15
-72.27
-68.81
-60.90
-49.62
-36.58
-23.41
-11.24
-0.52
8.81
17.02
24.24
30.33
35.02
38.09
39.63
40.03
39.84
39.53
39.35
39.23
38.93
38.22
37.04
35.52
33.89
32.30
30.69
28.75
26.09
22.30
17.24
11.06
4.23
-2.69
-9.19
-14.98
-20.10
-24.90
-29.91
-35.68
-42.48
-50.16
-58.04
-65.02
-69.80
-71.28
-68.86
-62.64
-53.31
-42.01
-29.89
-17.94
-6.73
3.48
12.65
20.84
28.04
34.15
39.06
42.74
45.33
47.21
48.81
50.42
52.04
53.38
53.94
53.37
51.67
49.18
46.47
43.94
41.59
39.01
35.56
30.81
24.78
17.92
10.95
4.48
-1.18
-6.12
-10.72
-15.52
-20.99
-27.51
-35.19
-43.83
-52.71
-60.66
-66.13
-67.63
-64.11
-55.32
-41.94
-25.49
-7.98
8.52
22.37
32.70
39.50
43.40
45.36
46.24
46.66
46.95
47.30
47.86
48.74
49.99
51.44
52.73
53.48
53.48
52.76
51.62
50.36
49.14
47.94
46.43
44.22
40.94
36.37
30.50
23.51
15.72
7.43
-1.21
-10.22
-19.79
-30.06
-40.90
-51.73
-61.42
-68.55
-71.76
-70.26
-64.13
-54.38
-42.62
-30.54
-19.42
-9.89
-1.94
4.70
10.29
14.89
18.35
20.51
21.44
21.45
21.00
20.58
20.42
20.50
20.54
20.25
19.44
18.11
16.46
14.68
12.82
10.73
8.08
4.55
0.02
-5.36
-11.14
-16.74
-21.66
-25.67
-28.91
-31.82
-35.05
-39.24
-44.77
-51.61
-59.17
-66.31
-71.56
-73.45
-70.91
-63.66
-52.41
-38.67
-24.27
-10.88
0.49
9.63
16.87
22.79
27.76
31.88
35.02
37.07
38.09
38.38
38.29
38.08
37.74
37.11
36.00
34.33
32.29
30.19
28.38
26.97
25.74
24.18
21.69
17.83
12.53
6.16
-0.60
-7.02
-12.60
-17.18
-20.97
-24.44
-28.15
-32.60
-38.16
-44.91
-52.51
-60.06
-66.21
-69.40
-68.41
-62.77
-53.04
-40.63
-27.38
-14.94
-4.30
4.34
11.39
17.42
22.79
27.53
31.41
34.18
35.81
36.54
36.77
36.85
36.88
36.71
36.06
34.74
32.75
30.36
27.92
25.74
23.86
22.08
20.01
17.30
13.70
9.26
4.23
-1.03
-6.14
-10.85
-15.07
-18.85
-22.38
-25.99
-30.08
-35.06
-41.20
-48.41
-56.12
-63.26
-68.43
-70.24
-67.79
-60.92
-50.36
-37.50
-23.99
-11.28
-0.30
8.66
15.76
21.32
25.67
28.96
31.24
32.60
33.25
33.53
33.76
34.11
34.53
34.77
34.53
33.61
32.07
30.16
28.22
26.49
24.94
23.27
20.99
17.63
13.02
7.39
1.28
-4.58
-9.67
-13.78
-17.14
-20.28
-23.84
-28.36
-34.06
-40.71
-47.60
-53.63
-57.55
-58.21
-54.96
-47.86
-37.68
-25.68
-13.27
-1.65
8.41
16.53
22.67
26.92
29.51
30.67
30.75
30.17
29.30
28.48
27.85
27.43
27.07
26.65
26.04
25.25
24.29
23.16
21.76
19.88
17.23
13.62
9.00
3.63
-2.02
-7.39
-12.04
-15.81
-18.95
-22.06
-25.87
-30.97
-37.52
-45.10
-52.69
-58.95
-62.46
-62.23
-57.90
-49.87
-39.18
-27.17
-15.15
-4.07
5.54
13.53
19.88
24.64
27.81
29.47
29.85
29.36
28.50
27.72
27.26
27.11
27.09
26.95
26.50
25.71
24.60
23.25
21.64
19.69
17.22
14.04
10.07
5.36
0.16
-5.14
-10.17
-14.69
-18.72
-22.53
-26.61
-31.46
-37.45
-44.59
-52.39
-59.85
-65.55
-68.01
-66.16
-59.70
-49.26
-36.28
-22.54
-9.59
1.59
10.74
18.09
24.01
28.74
32.35
34.81
36.17
36.65
36.61
36.41
36.25
36.10
35.78
35.04
33.73
31.86
29.61
27.22
24.86
22.55
20.09
17.09
13.12
7.92
1.58
-5.42
-12.35
-18.48
-23.39
-27.16
-30.37
-33.88
-38.45
-44.50
-51.79
-59.45
-66.15
-70.40
-70.92
-67.07
-58.93
-47.41
-33.93
-20.10
-7.28
3.71
12.65
19.71
25.24
29.44
32.34
33.93
34.34
33.90
33.15
32.58
32.44
32.61
32.70
32.23
30.94
28.85
26.25
23.52
20.92
18.46
15.90
12.89
9.12
4.56
-0.56
-5.82
-10.77
-15.11
-18.80
-22.05
-25.15
-28.45
-32.25
-36.85
-42.40
-48.84
-55.63
-61.78
-65.88
-66.56
-62.95
-55.02
-43.67
-30.41
-16.85
-4.26
6.71
15.94
23.59
29.81
34.60
37.86
39.59
40.00
39.60
39.00
38.73
38.92
39.36
39.61
39.27
38.17
36.49
34.55
32.63
30.76
28.71
26.12
22.67
18.24
12.98
7.23
1.44
-4.01
-8.89
-13.15
-16.97
-20.75
-24.96
-30.07
-36.28
-43.34
-50.45
-56.35
-59.66
-59.27
-54.77
-46.63
-35.97
-24.25
-12.72
-2.22
6.87
14.41
20.29
24.42
26.73
27.39
26.84
25.70
24.58
23.89
23.71
23.89
24.10
24.02
23.45
22.31
20.68
18.65
16.29
13.58
10.38
6.56
2.10
-2.85
-8.05
-13.21
-18.11
-22.60
-26.59
-30.02
-32.84
-35.15
-37.13
-38.96
-40.57
-41.52
-40.99
-38.12
-32.37
-23.83
-13.27
-1.81
9.38
19.53
28.24
35.42
41.09
45.25
47.86
49.02
49.02
48.36
47.67
47.44
47.84
48.67
49.35
49.25
47.86
45.07
41.14
36.56
31.75
26.87
21.80
16.22
9.95
3.10
-3.93
-10.53
-16.21
-20.78
-24.47
-27.85
-31.70
-36.68
-43.10
-50.71
-58.64
-65.51
-69.81
-70.27
-66.28
-58.08
-46.68
-33.53
-20.09
-7.43
3.87
13.67
22.00
28.87
34.20
37.89
39.97
40.70
40.58
40.15
39.84
39.81
39.90
39.79
39.16
37.90
36.19
34.38
32.82
31.59
30.39
28.56
25.40
20.43
13.76
5.98
-1.93
-9.04
-14.80
-19.22
-22.85
-26.55
-31.21
-37.41
-45.19
-53.90
-62.27
-68.69
-71.62
-70.06
-63.89
-53.99
-41.92
-29.49
-18.13
-8.52
-0.44
6.98
14.73
23.43
32.99
42.58
51.00
57.17
60.54
61.24
59.84
57.00
53.16
48.48
43.02
37.01
30.98
25.66
21.53
18.63
16.38
13.86
10.16
4.87
-1.86
-9.32
-16.65
-23.16
-28.55
-32.95
-36.79
-40.63
-45.02
-50.36
-56.76
-63.84
-70.72
-76.01
-78.25
-76.33
-69.91
-59.62
-46.81
-33.16
-20.08
-8.53
1.18
9.10
15.46
20.49
24.36
27.27
29.44
31.12
32.54
33.84
35.01
35.92
36.38
36.28
35.61
34.53
33.21
31.76
30.14
28.10
25.33
21.60
16.95
11.64
6.15
0.91
-3.84
-8.15
-12.24
-16.52
-21.39
-27.20
-34.06
-41.66
-49.17
-55.22
-58.31
-57.21
-51.54
-41.90
-29.75
-16.87
-4.80
5.55
13.96
20.62
25.85
29.79
32.41
33.63
33.53
32.45
30.92
29.49
28.50
27.95
27.61
27.13
26.29
25.12
23.82
22.57
21.37
19.89
17.65
14.25
9.57
3.88
-2.22
-8.04
-13.07
-17.15
-20.55
-23.85
-27.76
-32.85
-39.33
-46.85
-54.46
-60.80
-64.32
-63.87
-58.91
-49.84
-37.80
-24.42
-11.30
0.38
9.99
17.49
23.15
27.32
30.28
32.17
33.11
33.32
33.06
32.63
32.22
31.82
31.27
30.34
28.92
27.08
25.08
23.23
21.72
20.47
19.08
16.97
13.65
8.97
3.21
-2.95
-8.74
-13.67
-17.69
-21.28
-25.16
-30.03
-36.27
-43.73
-51.74
-59.18
-64.66
-66.90
-65.04
-58.87
-48.97
-36.51
-22.91
-9.47
2.88
13.62
22.51
29.50
34.58
37.86
39.56
40.06
39.81
39.24
38.67
38.23
37.88
37.45
36.78
35.77
34.41
32.80
30.97
28.88
26.33
23.03
18.80
13.62
7.71
1.52
-4.51
-10.04
-14.99
-19.53
-24.07
-29.07
-34.96
-41.88
-49.45
-56.75
-62.43
-65.09
-63.69
-57.97
-48.51
-36.56
-23.63
-11.00
0.47
10.43
18.88
25.90
31.56
35.86
38.80
40.41
40.84
40.34
39.21
37.75
36.23
34.83
33.67
32.79
32.12
31.51
30.74
29.48
27.48
24.51
20.48
15.46
9.68
3.57
-2.41
-7.86
-12.67
-17.09
-21.75
-27.32
-34.19
-42.05
-49.84
-55.93
-58.64
-56.86
-50.39
-40.06
-27.41
-14.16
-1.75
8.99
17.81
24.88
30.47
34.69
37.50
38.76
38.46
36.81
34.24
31.25
28.25
25.45
22.84
20.26
17.55
14.56
11.18
7.35
3.07
-1.55
-6.29
-10.86
-14.95
-18.37
-21.08
-23.28
-25.36
-27.81
-31.10
-35.38
-40.35
-45.18
-48.63
-49.48
-46.92
-40.89
-32.11
-21.85
-11.46
-1.92
6.30
13.26
19.21
24.36
28.56
31.42
32.45
31.38
28.37
24.05
19.33
15.15
12.08
10.26
9.42
9.06
8.75
8.32
7.82
7.37
6.98
6.38
5.15
2.77
-1.06
-6.41
-13.05
-20.61
-28.57
-36.22
-42.64
-46.77
-47.57
-44.36
-37.20
-26.86
-14.67
-2.07
9.73
20.03
28.54
35.18
39.91
42.62
43.26
42.01
39.32
35.90
32.44
29.52
27.32
25.74
24.42
22.92
20.89
18.14
14.65
10.54
5.98
1.14
-3.92
-9.17
-14.67
-20.50
-26.67
-33.11
-39.56
-45.43
-49.83
-51.70
-50.09
-44.54
-35.33
-23.49
-10.52
2.08
13.25
22.50
29.85
35.52
39.62
42.15
43.03
42.34
40.40
37.81
35.21
33.09
31.55
30.32
28.86
26.69
23.53
19.51
15.00
10.49
6.30
2.46
-1.26
-5.24
-9.84
-15.33
-21.84
-29.28
-37.26
-45.02
-51.45
-55.30
-55.60
-52.02
-45.03
-35.74
-25.56
-15.67
-6.75
1.04
7.79
13.62
18.41
21.94
24.00
24.54
23.85
22.43
20.82
19.49
18.62
18.17
17.90
17.47
16.60
15.10
12.96
10.31
7.31
4.07
0.55
-3.39
-7.95
-13.35
-19.72
-27.03
-35.04
-43.27
-50.88
-56.81
-59.92
-59.28
-54.51
-45.96
-34.67
-22.13
-9.88
0.95
9.74
16.43
21.29
24.75
27.17
28.84
29.91
30.45
30.49
30.05
29.18
28.01
26.72
25.51
24.49
23.67
22.89
21.88
20.34
18.05
14.91
10.99
6.48
1.64
-3.26
-8.03
-12.60
-17.07
-21.74
-26.95
-32.94
-39.63
-46.44
-52.29
-55.84
-55.91
-51.86
-43.90
-33.06
-20.87
-8.82
1.99
11.12
18.59
24.68
29.59
33.36
35.86
36.96
36.69
35.30
33.21
30.96
29.00
27.61
26.88
26.64
26.59
26.36
25.61
24.09
21.71
18.49
14.49
9.85
4.76
-0.52
-5.73
-10.66
-15.33
-19.97
-25.00
-30.85
-37.62
-44.85
-51.46
-55.94
-56.84
-53.33
-45.53
-34.58
-22.23
-10.28
-0.03
7.91
13.70
17.81
20.84
23.21
25.13
26.63
27.58
27.82
27.15
25.45
22.75
19.34
15.70
12.40
10.00
8.79
8.79
9.61
10.61
11.09
10.47
8.52
5.42
1.61
-2.38
-6.28
-10.12
-14.23
-19.03
-24.70
-30.96
-36.96
-41.47
-43.25
-41.47
-36.01
-27.57
-17.41
-6.97
2.61
10.73
17.31
22.64
26.94
30.26
32.43
33.18
32.42
30.35
27.41
24.17
21.17
18.70
16.87
15.61
14.77
14.10
13.25
11.76
9.15
5.18
0.01
-5.77
-11.31
-15.90
-19.26
-21.69
-23.95
-26.90
-31.18
-36.90
-43.61
-50.32
-55.74
-58.57
-57.79
-53.00
-44.60
-33.65
-21.61
-9.86
0.56
9.18
15.95
21.09
24.82
27.38
28.95
29.74
29.98
29.84
29.38
28.59
27.45
26.00
24.36
22.70
21.08
19.43
17.54
15.15
12.03
8.17
3.65
-1.27
-6.32
-11.26
-15.91
-20.25
-24.44
-28.75
-33.52
-38.95
-44.92
-50.85
-55.75
-58.42
-57.81
-53.37
-45.35
-34.71
-22.88
-11.31
-1.01
7.54
14.42
19.92
24.29
27.56
29.66
30.58
30.52
29.87
29.05
28.32
27.67
26.96
25.99
24.76
23.38
22.06
20.84
19.61
18.04
15.80
12.64
8.52
3.67
-1.58
-6.85
-11.89
-16.62
-21.19
-25.93
-31.19
-37.20
-43.84
-50.52
-56.15
-59.44
-59.26
-55.08
-47.24
-36.85
-25.41
-14.31
-4.45
3.92
11.00
17.12
22.45
26.92
30.28
32.36
33.22
33.10
32.40
31.47
30.53
29.62
28.68
27.66
26.51
25.24
23.80
22.08
19.91
17.09
13.51
9.20
4.37
-0.62
-5.40
-9.72
-13.53
-17.13
-21.05
-25.85
-31.90
-39.03
-46.41
-52.67
-56.29
-56.07
-51.62
-43.45
-32.81
-21.25
-10.17
-0.49
7.43
13.65
18.49
22.26
25.21
27.46
29.04
29.91
30.01
29.40
28.25
26.83
25.34
23.93
22.52
20.88
18.76
16.00
12.58
8.63
4.36
-0.00
-4.28
-8.41
-12.44
-16.48
-20.76
-25.56
-31.12
-37.50
-44.40
-51.07
-56.33
-58.86
-57.59
-52.12
-42.86
-31.05
-18.27
-6.04
4.58
13.16
19.73
24.62
28.18
30.73
32.47
33.58
34.11
34.09
33.53
32.46
31.00
29.35
27.74
26.29
24.91
23.29
21.12
18.14
14.34
9.93
5.23
0.52
-4.04
-8.48
-12.87
-17.40
-22.28
-27.82
-34.25
-41.68
-49.72
-57.45
-63.46
-66.22
-64.59
-58.29
-48.04
-35.39
-22.17
-10.03
0.01
7.67
13.22
17.19
20.07
22.13
23.48
24.15
24.21
23.79
23.08
22.21
21.31
20.46
19.76
19.29
19.03
18.80
18.24
16.92
14.53
11.05
6.70
1.91
-2.94
-7.62
-12.13
-16.70
-21.64
-27.25
-33.66
-40.63
-47.47
-53.06
-56.08
-55.41
-50.53
-41.74
-30.12
-17.25
-4.68
6.37
15.30
22.07
27.00
30.52
32.93
34.33
34.67
33.97
32.40
30.35
28.37
26.91
26.14
25.96
26.01
25.86
25.16
23.71
21.37
18.10
13.90
8.93
3.50
-1.97
-7.05
-11.54
-15.60
-19.72
-24.56
-30.70
-38.19
-46.44
-54.16
-59.67
-61.39
-58.39
-50.71
-39.42
-26.19
-12.78
-0.55
9.85
18.29
24.96
30.06
33.64
35.69
36.21
35.41
33.67
31.50
29.40
27.72
26.58
25.84
25.19
24.27
22.81
20.70
18.03
14.97
11.71
8.35
4.85
1.17
-2.85
-7.32
-12.40
-18.21
-24.81
-32.04
-39.40
-46.01
-50.73
-52.40
-50.20
-43.97
-34.23
-22.15
-9.09
3.67
15.25
25.20
33.34
39.63
44.05
46.60
47.34
46.48
44.34
41.33
37.88
34.42
31.29
28.76
26.90
25.54
24.34
22.81
20.56
17.39
13.32
8.53
3.28
-2.18
-7.62
-12.89
-17.92
-22.86
-28.01
-33.80
-40.56
-48.17
-55.94
-62.60
-66.60
-66.63
-62.01
-52.94
-40.37
-25.70
-10.34
4.56
18.25
30.27
40.29
48.03
53.31
56.19
57.04
56.43
55.00
53.21
51.28
49.17
46.83
44.26
41.61
39.12
36.95
35.07
33.19
30.89
27.74
23.53
18.36
12.63
6.86
1.52
-3.26
-7.74
-12.43
-17.90
-24.44
-31.92
-39.73
-46.83
-51.91
-53.65
-51.01
-43.51
-31.45
-15.94
1.41
18.88
35.10
49.31
61.30
71.08
78.60
83.56
85.56
84.46
80.68
75.26
69.68
65.31
62.97
62.59
63.30
63.79
62.89
59.97
55.11
48.90
42.03
34.94
27.75
20.30
12.58
4.84
-2.34
-8.32
-12.76
-15.91
-18.52
-21.72
-26.53
-33.60
-42.84
-53.36
-63.46
-70.83
-73.16
-68.68
-56.80
-38.35
-15.35
9.60
33.95
55.68
73.39
86.12
93.22
94.34
89.63
79.86
66.41
50.95
35.00
19.54
4.95
-8.81
-21.83
-34.02
-45.02
-54.33
-61.68
-67.14
-71.16
-74.34
-77.12
-79.51
-81.10
-81.21
-79.14
-74.30
-66.43
-55.71
-42.96
-29.71
-18.10
-10.30
-7.76
-10.57
-17.30
-25.40
-32.12
-35.40
-34.50
-29.88
-22.84
-14.85
-7.18
-0.65
4.29
7.47
8.89
8.69
7.19
4.87
2.34
0.28
-0.82
-0.75
0.29
1.80
3.17
3.96
3.99
3.36
2.33
1.05
-0.49
-2.51
-5.25
-8.85
-13.19
-17.93
-22.61
-26.88
-30.65
-34.21
-38.08
-42.84
-48.84
-55.91
-63.28
-69.66
-73.48
-73.45
-68.87
-59.96
-47.77
-33.86
-19.74
-6.55
5.19
15.38
24.10
31.27
36.71
40.21
41.80
41.87
41.07
40.03
39.18
38.57
38.01
37.25
36.14
34.75
33.23
31.73
30.25
28.59
26.34
23.06
18.40
12.32
5.12
-2.56
-9.98
-16.56
-22.04
-26.59
-30.69
-34.99
-40.11
-46.43
-53.90
-61.90
-69.20
-74.18
-75.25
-71.41
-62.66
-50.08
-35.49
-20.75
-7.29
4.20
13.73
21.59
28.06
33.24
37.08
39.58
40.86
41.23
41.06
40.64
40.07
39.27
38.13
36.59
34.75
32.88
31.23
29.92
28.84
27.65
25.83
22.93
18.63
12.95
6.24
-0.94
-7.93
-14.27
-19.84
-24.87
-29.87
-35.42
-41.92
-49.38
-57.36
-64.95
-70.82
-73.61
-72.22
-66.25
-56.18
-43.26
-29.16
-15.41
-3.04
7.52
16.19
23.09
28.27
31.74
33.67
34.42
34.49
34.34
34.23
34.20
34.08
33.69
32.91
31.75
30.34
28.82
27.30
25.75
23.97
21.69
18.62
14.63
9.87
4.69
-0.52
-5.51
-10.32
-15.29
-20.90
-27.53
-35.26
-43.76
-52.27
-59.67
-64.63
-65.93
-62.84
-55.38
-44.41
-31.41
-18.06
-5.70
4.84
13.29
19.69
24.15
26.74
27.59
27.02
25.56
23.83
22.34
21.26
20.40
19.32
17.56
14.92
11.57
7.98
4.77
2.35
0.75
-0.53
-2.26
-5.19
-9.64
-15.30
-21.33
-26.61
-30.27
-31.95
-32.02
-31.37
-31.16
-32.39
-35.52
-40.23
-45.30
-48.82
-48.59
-42.77
-30.69
-13.22
7.25
27.52
44.60
56.67
63.51
66.22
66.47
65.68
64.58
63.23
61.49
59.38
57.27
55.59
54.54
53.93
53.23
51.95
49.87
47.20
44.37
41.83
39.68
37.61
35.07
31.46
26.49
20.30
13.42
6.59
0.44
-4.77
-9.22
-13.46
-18.26
-24.24
-31.67
-40.23
-48.99
-56.52
-61.20
-61.72
-57.48
-48.82
-36.94
-23.49
-10.09
2.13
12.63
21.35
28.44
34.05
38.22
40.95
42.36
42.69
42.33
41.65
40.93
40.24
39.47
38.44
36.98
35.10
32.96
30.80
28.79
26.87
24.70
21.81
17.83
12.68
6.66
0.38
-5.51
-10.59
-14.83
-18.61
-22.47
-27.01
-32.62
-39.37
-46.96
-54.64
-61.26
-65.49
-66.06
-62.20
-53.98
-42.32
-28.80
-15.13
-2.69
7.79
16.16
22.66
27.55
30.98
32.98
33.62
33.20
32.17
31.03
30.13
29.57
29.18
28.71
28.01
27.07
26.00
24.88
23.61
21.91
19.44
15.98
11.57
6.58
1.47
-3.34
-7.71
-11.82
-16.08
-21.00
-26.90
-33.85
-41.45
-48.86
-54.84
-58.04
-57.33
-52.20
-43.05
-31.07
-17.92
-5.26
5.74
14.60
21.44
26.65
30.64
33.67
35.83
37.20
37.89
38.12
38.06
37.76
37.19
36.20
34.71
32.77
30.62
28.51
26.63
24.94
23.13
20.78
17.54
13.20
7.94
2.12
-3.72
-9.12
-13.82
-17.89
-21.70
-25.85
-30.96
-37.37
-44.90
-52.73
-59.46
-63.52
-63.67
-59.43
-51.24
-40.36
-28.38
-16.75
-6.42
2.26
9.38
15.20
19.98
23.87
26.98
29.46
31.48
33.21
34.72
35.96
36.78
36.97
36.42
35.12
33.26
31.12
29.03
27.19
25.53
23.72
21.26
17.71
12.91
7.13
0.89
-5.12
-10.41
-14.81
-18.53
-22.00
-25.72
-30.12
-35.39
-41.38
-47.52
-52.81
-56.01
-55.99
-52.08
-44.43
-34.00
-22.23
-10.62
-0.27
8.38
15.34
20.86
25.12
28.16
29.87
30.28
29.64
28.42
27.15
26.14
25.43
24.74
23.74
22.23
20.28
18.15
16.11
14.22
12.30
10.00
7.03
3.38
-0.70
-4.81
-8.60
-11.94
-14.95
-17.92
-21.25
-25.25
-30.12
-35.79
-41.85
-47.52
-51.72
-53.28
-51.34
-45.67
-36.80
-25.95
-14.56
-3.94
5.10
12.32
17.87
22.01
24.93
26.68
27.31
27.02
26.16
25.12
24.21
23.51
22.90
22.16
21.16
19.90
18.56
17.34
16.26
15.16
13.66
11.34
7.94
3.47
-1.74
-7.14
-12.19
-16.52
-20.08
-23.11
-26.04
-29.39
-33.56
-38.71
-44.64
-50.62
-55.52
-58.04
-57.12
-52.32
-44.08
-33.55
-22.22
-11.45
-2.03
5.73
11.98
16.92
20.70
23.31
24.82
25.35
25.18
24.65
24.01
23.35
22.61
21.66
20.42
18.95
17.40
16.00
14.84
13.89
12.90
11.49
9.30
6.15
2.11
-2.45
-7.04
-11.26
-14.94
-18.24
-21.55
-25.32
-29.89
-35.30
-41.18
-46.69
-50.74
-52.16
-50.14
-44.49
-35.82
-25.42
-14.78
-5.14
2.87
9.26
14.44
18.78
22.43
25.27
27.09
27.83
27.69
27.02
26.18
25.35
24.55
23.69
22.67
21.49
20.22
18.84
17.24
15.22
12.65
9.49
5.95
2.35
-1.04
-4.13
-7.15
-10.48
-14.53
-19.57
-25.65
-32.55
-39.81
-46.74
-52.43
-55.86
-56.11
-52.72
-45.87
-36.41
-25.63
-14.92
-5.32
2.63
8.91
13.78
17.53
20.33
22.20
23.10
23.07
22.29
21.06
19.68
18.39
17.34
16.56
16.04
15.71
15.40
14.85
13.72
11.74
8.80
5.04
0.83
-3.49
-7.64
-11.57
-15.37
-19.25
-23.39
-27.94
-32.93
-38.16
-43.16
-47.14
-49.16
-48.41
-44.48
-37.59
-28.55
-18.54
-8.70
0.09
7.39
13.19
17.68
21.11
23.62
25.31
26.19
26.33
25.88
25.06
24.06
23.06
22.09
21.12
20.07
18.85
17.40
15.62
13.41
10.63
7.24
3.27
-1.07
-5.47
-9.66
-13.52
-17.16
-20.97
-25.45
-31.05
-37.87
-45.51
-53.03
-59.09
-62.29
-61.62
-56.77
-48.25
-37.29
-25.36
-13.88
-3.81
4.47
11.00
16.13
20.22
23.53
26.15
28.07
29.24
29.68
29.46
28.76
27.75
26.62
25.51
24.50
23.64
22.86
21.98
20.67
18.57
15.40
11.12
5.98
0.54
-4.55
-8.76
-11.89
-14.19
-16.33
-19.17
-23.44
-29.36
-36.48
-43.68
-49.47
-52.43
-51.71
-47.19
-39.53
-29.88
-19.47
-9.37
-0.26
7.47
13.80
18.82
22.71
25.65
27.78
29.17
29.85
29.85
29.22
28.12
26.74
25.37
24.19
23.34
22.73
22.11
21.12
19.42
16.81
13.31
9.18
4.78
0.52
-3.36
-6.84
-10.12
-13.59
-17.75
-23.00
-29.50
-36.91
-44.30
-50.31
-53.44
-52.58
-47.39
-38.44
-27.04
-14.74
-2.90
7.65
16.60
24.05
30.17
35.09
38.82
41.34
42.70
43.10
42.90
42.47
42.14
42.01
42.03
42.02
41.80
41.29
40.50
39.50
38.24
36.57
34.27
31.22
27.47
23.23
18.77
14.21
9.40
4.00
-2.49
-10.47
-20.10
-31.24
-43.38
-55.62
-66.73
-75.28
-79.94
-79.79
-74.64
-65.11
-52.49
-38.34
-24.05
-10.61
1.49
12.08
21.07
28.34
33.76
37.31
39.18
39.72
39.32
38.34
36.96
35.30
33.45
31.58
29.89
28.57
27.72
27.29
27.09
26.80
26.02
24.36
21.56
17.61
12.85
7.88
3.42
-0.07
-2.59
-4.69
-7.34
-11.60
-18.26
-27.48
-38.62
-50.31
-60.65
-67.77
-70.33
-67.86
-60.94
-50.85
-39.17
-27.27
-16.05
-5.92
2.99
10.63
16.90
21.66
24.91
26.84
27.82
28.29
28.63
29.01
29.41
29.64
29.53
29.05
28.30
27.48
26.69
25.85
24.66
22.70
19.71
15.67
10.91
5.91
1.17
-3.00
-6.56
-9.70
-12.84
-16.45
-20.99
-26.69
-33.32
-40.11
-45.77
-48.85
-48.21
-43.39
-34.86
-23.81
-11.75
-0.06
10.33
19.04
26.02
31.39
35.25
37.63
38.60
38.35
37.23
35.70
34.19
32.99
32.15
31.53
30.90
30.09
29.03
27.79
26.45
25.00
23.28
20.97
17.78
13.58
8.57
3.16
-2.12
-6.88
-11.07
-14.99
-19.23
-24.39
-30.85
-38.52
-46.75
-54.40
-60.05
-62.39
-60.54
-54.37
-44.56
-32.46
-19.63
-7.46
3.16
11.96
19.07
24.79
29.33
32.77
35.08
36.32
36.61
36.24
35.47
34.52
33.45
32.23
30.82
29.19
27.39
25.55
23.79
22.15
20.47
18.46
15.73
12.01
7.29
1.86
-3.77
-9.08
-13.75
-17.75
-21.33
-24.95
-29.09
-34.14
-40.17
-46.86
-53.36
-58.47
-60.88
-59.60
-54.31
-45.48
-34.29
-22.14
-10.33
0.27
9.31
16.74
22.72
27.35
30.72
32.89
34.03
34.41
34.36
34.15
33.93
33.63
33.07
32.06
30.50
28.49
26.26
24.10
22.18
20.40
18.47
15.89
12.28
7.49
1.72
-4.50
-10.44
-15.53
-19.54
-22.68
-25.56
-28.94
-33.46
-39.33
-46.20
-53.15
-58.90
-62.14
-61.87
-57.70
-50.00
-39.80
-28.51
-17.52
-7.86
0.09
6.59
12.34
18.11
24.39
31.18
38.01
44.19
49.04
52.18
53.52
53.22
51.53
48.72
45.03
40.70
36.03
31.28
26.62
22.04
17.33
12.25
6.65
0.59
-5.62
-11.62
-17.08
-21.90
-26.29
-30.66
-35.47
-41.01
-47.17
-53.32
-58.36
-61.01
-60.18
-55.41
-47.07
-36.23
-24.40
-12.97
-2.91
5.38
11.93
16.94
20.61
23.04
24.35
24.70
24.40
23.79
23.14
22.58
22.08
21.50
20.71
19.69
18.51
17.29
16.10
14.86
13.35
11.24
8.30
4.43
-0.23
-5.34
-10.49
-15.40
-20.00
-24.49
-29.30
-34.81
-41.21
-48.24
-55.17
-60.82
-63.92
-63.42
-58.83
-50.45
-39.27
-26.72
-14.22
-2.90
6.61
14.21
20.07
24.52
27.80
30.09
31.45
31.95
31.69
30.80
29.46
27.88
26.26
24.76
23.48
22.41
21.44
20.35
18.87
16.74
13.75
9.86
5.18
-0.01
-5.34
-10.45
-15.12
-19.29
-23.19
-27.21
-31.84
-37.43
-43.85
-50.39
-55.81
-58.65
-57.70
-52.51
-43.47
-31.80
-19.02
-6.55
4.59
13.96
21.45
27.19
31.32
33.99
35.35
35.65
35.18
34.19
32.88
31.32
29.54
27.56
25.49
23.55
21.93
20.74
19.81
18.78
17.13
14.46
10.61
5.80
0.51
-4.69
-9.33
-13.16
-16.28
-19.05
-22.04
-25.82
-30.74
-36.70
-42.98
-48.37
-51.38
-50.79
-46.03
-37.49
-26.35
-14.25
-2.65
7.47
15.80
22.52
27.97
32.43
35.92
38.39
39.76
40.11
39.67
38.79
37.74
36.72
35.82
34.98
34.10
33.05
31.63
29.65
26.92
23.40
19.09
14.16
8.83
3.33
-2.15
-7.50
-12.74
-18.03
-23.64
-29.86
-36.80
-44.23
-51.38
-57.03
-59.80
-58.58
-53.07
-43.84
-32.30
-20.10
-8.75
0.89
8.59
14.58
19.24
22.83
25.40
26.90
27.29
26.65
25.23
23.38
21.47
19.76
18.38
17.34
16.49
15.65
14.57
13.07
11.02
8.38
5.21
1.65
-2.17
-6.13
-10.20
-14.45
-19.07
-24.27
-30.23
-36.89
-43.88
-50.45
-55.49
-57.83
-56.58
-51.44
-42.87
-32.01
-20.25
-8.90
1.19
9.75
16.92
23.01
28.22
32.57
35.91
38.13
39.26
39.49
39.13
38.47
37.66
36.73
35.64
34.33
32.78
30.99
28.86
26.27
23.00
18.95
14.16
8.94
3.65
-1.35
-5.92
-10.18
-14.41
-19.01
-24.28
-30.37
-37.10
-43.87
-49.70
-53.37
-53.80
-50.40
-43.35
-33.57
-22.38
-11.10
-0.58
8.84
17.24
24.85
31.71
37.60
42.17
45.09
46.29
46.05
44.89
43.39
41.97
40.78
39.74
38.68
37.52
36.34
35.30
34.48
33.72
32.63
30.71
27.58
23.19
17.86
12.15
6.69
1.88
-2.19
-5.70
-9.02
-12.55
-16.66
-21.61
-27.50
-34.12
-40.86
-46.66
-50.26
-50.53
-46.84
-39.32
-28.81
-16.56
-3.83
8.44
19.74
29.96
39.14
47.34
54.52
60.67
65.81
70.02
73.43
76.03
77.64
77.83
76.07
72.00
65.56
57.21
47.74
38.07
28.89
20.55
12.97
5.84
-1.25
-8.52
-16.04
-23.69
-31.23
-38.37
-44.86
-50.60
-55.66
-60.34
-65.07
-70.27
-76.06
-82.12
-87.61
-91.39
-92.34
-89.71
-83.41
-74.05
-62.70
-50.61
-38.86
-28.14
-18.76
-10.73
-3.94
1.73
6.33
9.91
12.52
14.32
15.51
16.39
17.19
18.08
19.04
19.94
20.54
20.63
20.16
19.27
18.18
17.08
16.04
14.83
13.12
10.61
7.20
3.12
-1.18
-5.21
-8.67
-11.54
-14.07
-16.69
-19.85
-23.88
-28.91
-34.80
-41.06
-46.88
-51.23
-53.10
-51.80
-47.19
-39.76
-30.47
-20.45
-10.66
-1.71
6.18
13.02
18.89
23.81
27.69
30.44
32.08
32.80
32.96
32.92
32.95
33.10
33.22
33.07
32.46
31.32
29.79
28.06
26.36
24.79
23.29
21.63
19.53
16.73
13.11
8.79
4.08
-0.65
-5.04
-8.93
-12.37
-15.58
-18.88
-22.58
-26.88
-31.81
-37.23
-42.71
-47.60
-51.05
-52.25
-50.62
-46.02
-38.84
-29.87
-20.17
-10.72
-2.22
4.99
10.90
15.66
19.41
22.20
24.03
24.96
25.19
25.03
24.79
24.66
24.62
24.46
23.96
23.04
21.77
20.40
19.13
17.95
16.68
14.93
12.41
9.02
4.98
0.75
-3.15
-6.42
-9.06
-11.39
-13.94
-17.20
-21.49
-26.81
-32.81
-38.80
-43.80
-46.75
-46.79
-43.55
-37.31
-28.95
-19.61
-10.38
-1.95
5.41
11.72
17.10
21.52
24.85
26.93
27.72
27.38
26.25
24.79
23.38
22.26
21.45
20.84
20.24
19.58
18.85
18.12
17.43
16.68
15.64
13.97
11.45
7.99
3.77
-0.91
-5.69
-10.28
-14.50
-18.29
-21.70
-24.92
-28.24
-32.01
-36.52
-41.82
-47.54
-52.83
-56.54
-57.56
-55.22
-49.52
-41.21
-31.46
-21.51
-12.28
-4.22
2.64
8.44
13.34
17.36
20.45
22.60
23.90
24.56
24.85
24.95
24.90
24.66
24.15
23.35
22.31
21.18
20.05
18.95
17.82
16.52
14.91
12.90
10.42
7.50
4.22
0.68
-2.98
-6.66
-10.31
-13.98
-17.88
-22.29
-27.47
-33.55
-40.32
-47.12
-52.92
-56.54
-56.99
-53.85
-47.38
-38.48
-28.32
-18.01
-8.35
0.23
7.56
13.59
18.31
21.70
23.87
24.99
25.32
25.14
24.71
24.20
23.65
23.01
22.22
21.22
20.02
18.73
17.37
15.92
14.20
12.02
9.26
5.93
2.26
-1.47
-4.96
-8.09
-10.90
-13.58
-16.43
-19.80
-23.99
-29.12
-34.93
-40.73
-45.44
-47.84
-46.96
-42.45
-34.69
-24.73
-13.90
-3.43
5.84
13.61
19.93
24.96
28.81
31.42
32.73
32.79
31.87
30.46
29.07
28.05
27.45
27.09
26.68
26.03
25.14
24.16
23.21
22.23
20.92
18.85
15.67
11.28
5.92
0.09
-5.66
-10.93
-15.58
-19.76
-23.82
-28.17
-33.23
-39.28
-46.34
-53.91
-61.00
-66.24
-68.21
-66.03
-59.61
-49.75
-37.85
-25.40
-13.59
-3.07
5.96
13.55
19.80
24.74
28.43
30.97
32.54
33.35
33.57
33.34
32.71
31.73
30.50
29.22
28.16
27.60
27.65
28.20
28.82
28.85
27.66
24.87
20.50
15.01
9.09
3.42
-1.58
-5.83
-9.55
-13.24
-17.44
-22.65
-29.15
-36.76
-44.75
-51.90
-56.74
-57.98
-54.93
-47.77
-37.47
-25.48
-13.27
-1.98
7.76
15.80
22.22
27.19
30.82
33.21
34.50
34.90
34.67
34.10
33.35
32.50
31.54
30.45
29.26
28.04
26.81
25.49
23.86
21.68
18.75
15.07
10.84
6.42
2.15
-1.76
-5.32
-8.78
-12.56
-17.11
-22.76
-29.53
-36.99
-44.23
-49.98
-52.92
-52.07
-47.12
-38.59
-27.67
-15.87
-4.53
5.49
13.90
20.77
26.29
30.51
33.34
34.73
34.76
33.73
32.14
30.45
28.99
27.88
27.07
26.43
25.80
25.00
23.78
21.90
19.15
15.52
11.29
7.01
3.29
0.62
-0.97
-1.88
-2.85
-4.71
-8.08
-13.29
-20.34
-28.98
-38.65
-48.45
-57.07
-62.98
-64.80
-61.76
-54.10
-43.00
-30.21
-17.47
-6.00
3.71
11.75
18.43
24.01
28.55
32.01
34.35
35.68
36.23
36.27
35.96
35.37
34.44
33.14
31.50
29.73
28.05
26.64
25.41
24.05
22.06
19.02
14.75
9.48
3.69
-2.03
-7.29
-12.04
-16.56
-21.30
-26.72
-33.09
-40.34
-47.97
-55.04
-60.33
-62.65
-61.14
-55.62
-46.65
-35.35
-23.06
-11.00
0.04
9.65
17.78
24.49
29.87
33.96
36.77
38.41
39.04
38.90
38.25
37.27
36.05
34.63
33.03
31.31
29.61
28.00
26.45
24.76
22.61
19.76
16.18
12.05
7.74
3.60
-0.22
-3.81
-7.47
-11.59
-16.56
-22.61
-29.74
-37.52
-45.10
-51.23
-54.52
-53.89
-48.92
-40.09
-28.64
-16.23
-4.36
6.00
14.54
21.46
27.16
31.86
35.56
38.10
39.35
39.44
38.72
37.64
36.53
35.51
34.45
33.21
31.76
30.27
28.98
28.01
27.18
26.03
23.99
20.57
15.68
9.61
3.02
-3.39
-9.06
-13.82
-17.89
-21.81
-26.24
-31.69
-38.35
-45.90
-53.49
-59.87
-63.65
-63.70
-59.51
-51.37
-40.34
-27.89
-15.40
-3.87
6.25
14.88
22.11
27.95
32.32
35.21
36.78
37.40
37.56
37.65
37.84
38.03
37.97
37.37
36.10
34.19
31.90
29.51
27.28
25.28
23.41
21.37
18.82
15.47
11.25
6.32
1.04
-4.12
-8.86
-13.11
-17.11
-21.27
-26.07
-31.84
-38.57
-45.88
-52.95
-58.70
-61.94
-61.68
-57.47
-49.50
-38.65
-26.19
-13.52
-1.76
8.43
16.80
23.46
28.64
32.52
35.26
36.98
37.80
37.93
37.62
37.14
36.63
36.11
35.39
34.26
32.58
30.40
28.01
25.74
23.82
22.16
20.40
18.05
14.71
10.36
5.32
0.15
-4.60
-8.60
-11.86
-14.66
-17.45
-20.71
-24.81
-29.97
-36.08
-42.66
-48.79
-53.28
-54.98
-53.12
-47.63
-39.11
-28.70
-17.65
-7.03
2.50
10.66
17.36
22.62
26.42
28.73
29.67
29.48
28.58
27.47
26.56
26.06
25.88
25.81
25.59
25.12
24.43
23.64
22.75
21.62
19.89
17.26
13.58
9.00
3.96
-1.02
-5.54
-9.43
-12.82
-16.08
-19.67
-24.04
-29.39
-35.59
-42.04
-47.79
-51.63
-52.48
-49.75
-43.53
-34.63
-24.31
-13.87
-4.28
3.98
10.95
16.88
21.99
26.31
29.65
31.83
32.81
32.81
32.22
31.49
30.85
30.30
29.61
28.51
26.89
24.89
22.82
21.01
19.58
18.41
17.05
15.01
11.91
7.69
2.60
-2.88
-8.24
-13.13
-17.43
-21.27
-25.01
-29.08
-33.89
-39.68
-46.32
-53.14
-59.00
-62.47
-62.32
-57.96
-49.73
-38.85
-27.01
-15.73
-5.98
1.98
8.42
13.76
18.28
21.99
24.74
26.40
26.98
26.78
26.20
25.60
25.21
25.02
24.81
24.32
23.27
21.49
18.79
14.95
9.89
3.84
-2.39
-7.49
-9.90
-8.60
-3.57
3.93
11.73
17.49
19.48
16.98
10.29
0.31
-11.75
-24.58
-36.70
-46.47
-52.32
-53.13
-48.72
-40.02
-28.81
-17.20
-6.94
1.04
6.66
10.49
13.24
15.42
17.20
18.54
19.34
19.60
19.47
19.10
18.65
18.15
17.57
16.92
16.24
15.60
15.03
14.45
13.63
12.21
9.88
6.50
2.25
-2.44
-6.97
-10.81
-13.74
-15.95
-17.94
-20.37
-23.77
-28.33
-33.85
-39.68
-44.90
-48.48
-49.54
-47.52
-42.44
-34.83
-25.65
-16.01
-6.84
1.28
8.19
13.92
18.59
22.23
24.81
26.28
26.77
26.49
25.76
24.83
23.87
22.89
21.85
20.74
19.62
18.60
17.69
16.79
15.64
13.96
11.46
8.09
3.95
-0.63
-5.26
-9.61
-13.54
-17.19
-20.94
-25.26
-30.48
-36.68
-43.47
-50.06
-55.37
-58.29
-57.96
-54.03
-46.80
-37.12
-26.23
-15.43
-5.70
2.37
8.76
13.67
17.42
20.26
22.28
23.53
24.11
24.23
24.20
24.33
24.84
25.77
27.02
28.35
29.52
30.33
30.64
30.31
29.20
27.14
24.01
19.83
14.76
9.15
3.41
-2.11
-7.22
-11.94
-16.53
-21.33
-26.73
-32.91
-39.68
-46.37
-51.88
-54.94
-54.57
-50.42
-42.94
-33.23
-22.61
-12.29
-2.98
5.05
11.83
17.48
22.04
25.49
27.83
29.17
29.71
29.74
29.47
29.04
28.48
27.78
26.94
26.02
25.09
24.11
22.95
21.32
18.89
15.48
11.14
6.13
0.84
-4.34
-9.27
-13.98
-18.72
-23.81
-29.48
-35.78
-42.48
-49.00
-54.41
-57.58
-57.51
-53.64
-46.16
-35.99
-24.55
-13.33
-3.43
4.66
11.05
16.11
20.23
23.53
25.93
27.34
27.75
27.40
26.61
25.69
24.78
23.88
22.93
21.88
20.78
19.73
18.74
17.67
16.22
14.09
11.03
7.09
2.53
-2.25
-6.85
-11.07
-14.99
-18.94
-23.38
-28.70
-35.02
-42.01
-48.85
-54.35
-57.27
-56.70
-52.32
-44.55
-34.40
-23.18
-12.08
-1.97
6.72
13.92
19.74
24.28
27.64
29.86
31.03
31.36
31.16
30.74
30.31
29.91
29.42
28.69
27.64
26.36
24.98
23.58
22.06
20.21
17.72
14.44
10.35
5.64
0.63
-4.37
-9.12
-13.53
-17.72
-21.99
-26.73
-32.26
-38.51
-44.93
-50.49
-53.95
-54.27
-50.98
-44.38
-35.40
-25.26
-15.06
-5.47
3.25
11.15
18.27
24.52
29.65
33.44
35.87
37.15
37.67
37.71
37.43
36.82
35.81
34.47
33.02
31.75
30.82
30.18
29.57
28.62
26.97
24.39
20.83
16.37
11.25
5.82
0.49
-4.38
-8.59
-12.21
-15.56
-19.14
-23.44
-28.81
-35.27
-42.41
-49.39
-55.01
-57.99
-57.36
-52.76
-44.67
-34.24
-22.94
-12.02
-2.22
6.34
13.92
20.83
27.13
32.59
36.86
39.69
41.15
41.51
41.22
40.62
39.85
38.93
37.74
36.23
34.46
32.53
30.52
28.44
26.22
23.73
20.85
17.48
13.58
9.22
4.53
-0.22
-4.78
-8.91
-12.50
-15.69
-18.72
-21.99
-25.86
-30.60
-36.29
-42.68
-49.20
-54.91
-58.63
-59.32
-56.32
-49.69
-40.20
-29.10
-17.76
-7.25
1.84
9.41
15.61
20.68
24.74
27.79
29.81
30.90
31.26
31.20
31.01
30.79
30.47
29.85
28.79
27.31
25.67
24.17
23.02
22.14
21.15
19.57
16.98
13.30
8.73
3.78
-1.05
-5.36
-9.06
-12.34
-15.61
-19.34
-23.89
-29.36
-35.52
-41.80
-47.38
-51.27
-52.62
-50.82
-45.79
-37.98
-28.31
-17.90
-7.76
1.52
9.78
17.15
23.71
29.37
33.76
36.46
37.31
36.55
34.79
32.78
31.12
30.04
29.39
28.80
27.91
26.55
24.84
23.01
21.29
19.74
18.10
15.99
13.00
8.97
4.07
-1.23
-6.37
-10.94
-14.79
-18.05
-21.05
-24.22
-27.94
-32.52
-38.06
-44.39
-50.92
-56.68
-60.52
-61.36
-58.53
-52.06
-42.65
-31.47
-19.86
-8.91
0.69
8.73
15.32
20.66
24.89
28.04
30.12
31.21
31.59
31.63
31.64
31.74
31.84
31.70
31.14
30.13
28.85
27.56
26.44
25.50
24.58
23.43
21.74
19.32
16.02
11.80
6.79
1.26
-4.36
-9.64
-14.23
-18.07
-21.39
-24.72
-28.62
-33.56
-39.63
-46.42
-53.04
-58.29
-60.93
-60.11
-55.62
-47.95
-38.16
-27.50
-17.09
-7.71
0.31
6.92
12.17
16.18
19.07
20.97
22.08
22.61
22.76
22.65
22.31
21.74
20.96
20.05
19.13
18.32
17.65
17.08
16.38
15.25
13.35
10.49
6.80
2.83
-0.57
-2.48
-2.35
-0.28
2.87
5.77
7.04
5.67
1.37
-5.45
-13.84
-22.53
-30.12
-35.31
-37.13
-35.13
-29.57
-21.41
-11.97
-2.59
5.79
12.77
18.39
22.87
26.35
28.83
30.20
30.42
29.64
28.19
26.50
24.94
23.71
22.82
22.10
21.37
20.47
19.39
18.15
16.78
15.21
13.26
10.70
7.44
3.55
-0.69
-4.91
-8.80
-12.23
-15.35
-18.47
-22.03
-26.38
-31.72
-37.94
-44.55
-50.80
-55.70
-58.34
-58.05
-54.63
-48.40
-40.15
-30.90
-21.64
-13.08
-5.58
0.89
6.48
11.37
15.56
18.94
21.42
23.05
24.03
24.69
25.25
25.78
26.14
26.17
25.78
25.00
24.01
22.94
21.85
20.62
18.98
16.64
13.38
9.16
4.17
-1.22
-6.52
-11.35
-15.56
-19.32
-23.01
-27.15
-32.12
-38.08
-44.86
-51.89
-58.32
-63.08
-65.16
-63.83
-58.91
-50.86
-40.71
-29.76
-19.24
-9.97
-2.23
4.22
9.91
15.42
21.10
26.97
32.74
37.96
42.19
45.18
46.87
47.30
46.56
44.76
42.06
38.70
35.00
31.25
27.56
23.88
19.95
15.55
10.63
5.38
0.13
-4.73
-8.99
-12.61
-15.79
-18.88
-22.30
-26.43
-31.50
-37.35
-43.37
-48.54
-51.62
-51.60
-48.00
-41.09
-31.86
-21.65
-11.77
-3.15
3.89
9.48
13.99
17.71
20.71
22.91
24.17
24.55
24.34
23.93
23.63
23.54
23.55
23.44
23.04
22.32
21.29
19.94
18.14
15.78
12.74
9.12
5.09
0.93
-3.12
-6.97
-10.62
-14.29
-18.31
-23.04
-28.67
-35.06
-41.56
-47.12
-50.53
-50.78
-47.43
-40.67
-31.31
-20.51
-9.47
0.80
9.63
16.74
22.16
26.11
28.82
30.54
31.39
31.46
30.85
29.67
28.10
26.34
24.56
22.94
21.61
20.62
19.88
19.20
18.25
16.70
14.31
11.00
6.85
2.09
-2.98
-8.03
-12.84
-17.35
-21.79
-26.59
-32.25
-39.01
-46.56
-53.96
-59.78
-62.53
-61.17
-55.47
-46.11
-34.39
-21.91
-10.02
0.41
9.03
15.90
21.27
25.43
28.58
30.86
32.38
33.25
33.66
33.70
33.50
33.07
32.41
31.50
30.40
29.20
28.02
26.86
25.61
23.96
21.56
18.15
13.68
8.42
2.75
-2.88
-8.23
-13.35
-18.50
-24.06
-30.36
-37.48
-45.12
-52.57
-58.79
-62.58
-62.93
-59.27
-51.76
-41.23
-29.01
-16.54
-4.98
4.99
13.25
19.97
25.37
29.57
32.57
34.27
34.77
34.30
33.27
32.12
31.15
30.47
30.01
29.63
29.19
28.54
27.49
25.83
23.32
19.85
15.47
10.47
5.28
0.32
-4.12
-8.07
-11.80
-15.80
-20.60
-26.47
-33.30
-40.46
-46.83
-51.06
-51.96
-48.90
-42.05
-32.32
-21.08
-9.69
0.82
9.97
17.67
24.04
29.18
33.11
35.76
37.18
37.55
37.19
36.45
35.57
34.62
33.56
32.34
30.97
29.55
28.16
26.80
25.25
23.14
20.10
15.97
10.86
5.26
-0.25
-5.16
-9.32
-12.99
-16.74
-21.19
-26.75
-33.44
-40.76
-47.77
-53.25
-55.94
-54.87
-49.70
-40.88
-29.58
-17.33
-5.52
4.95
13.82
21.27
27.57
32.81
36.88
39.55
40.78
40.78
40.01
38.94
37.92
37.05
36.28
35.44
34.41
33.15
31.69
30.09
28.34
26.35
23.88
20.69
16.62
11.71
6.20
0.54
-4.84
-9.58
-13.63
-17.16
-20.60
-24.47
-29.28
-35.26
-42.25
-49.57
-56.10
-60.47
-61.48
-58.50
-51.68
-41.89
-30.48
-18.79
-7.82
1.98
10.61
18.24
25.02
30.87
35.56
38.87
40.78
41.50
41.42
40.98
40.45
39.90
39.25
38.39
37.25
35.85
34.30
32.67
31.00
29.19
27.07
24.42
21.08
16.97
12.19
7.05
1.93
-2.80
-6.97
-10.67
-14.24
-18.06
-22.50
-27.78
-33.94
-40.80
-47.90
-54.48
-59.47
-61.77
-60.52
-55.43
-46.93
-36.09
-24.30
-12.82
-2.55
6.21
13.55
19.77
25.10
29.56
33.02
35.36
36.56
36.82
36.49
35.91
35.30
34.67
33.91
32.88
31.53
29.95
28.29
26.67
25.10
23.48
21.59
19.25
16.31
12.74
8.66
4.25
-0.26
-4.64
-8.76
-12.60
-16.25
-19.88
-23.77
-28.16
-33.22
-38.94
-45.02
-50.82
-55.41
-57.79
-57.17
-53.21
-46.20
-36.93
-26.48
-15.96
-6.18
2.44
9.75
15.76
20.51
23.98
26.21
27.31
27.56
27.34
26.99
26.75
26.66
26.66
26.64
26.50
26.15
25.57
24.75
23.66
22.27
20.51
18.22
15.24
11.46
7.05
2.42
-1.82
-5.16
-7.45
-9.01
-10.56
-12.92
-16.73
-22.20
-29.11
-36.82
-44.41
-50.73
-54.62
-55.12
-51.77
-44.81
-35.16
-24.16
-13.14
-3.08
5.51
12.59
18.27
22.67
25.81
27.69
28.41
28.23
27.56
26.81
26.27
26.03
25.96
25.81
25.36
24.48
23.23
21.75
20.21
18.64
16.99
15.05
12.62
9.54
5.81
1.58
-2.89
-7.26
-11.30
-14.89
-18.10
-21.20
-24.60
-28.68
-33.74
-39.83
-46.66
-53.58
-59.58
-63.50
-64.27
-61.30
-54.61
-44.95
-33.61
-22.01
-11.35
-2.31
4.97
10.74
15.42
19.34
22.63
25.20
26.90
27.63
27.50
26.84
26.09
25.65
25.67
26.09
26.54
26.67
26.22
25.17
23.67
21.92
20.02
17.82
15.08
11.55
7.23
2.34
-2.68
-7.38
-11.47
-14.92
-17.95
-20.88
-24.08
-27.84
-32.37
-37.67
-43.49
-49.17
-53.76
-56.13
-55.37
-51.13
-43.78
-34.28
-23.84
-13.56
-4.18
4.02
10.97
16.70
21.20
24.50
26.70
28.04
28.88
29.51
30.11
30.65
30.93
30.74
29.91
28.45
26.56
24.57
22.81
21.50
20.53
19.56
18.07
15.60
11.98
7.41
2.35
-2.61
-7.05
-10.75
-13.76
-16.35
-18.90
-21.85
-25.61
-30.34
-35.87
-41.52
-46.25
-48.90
-48.56
-44.82
-37.96
-28.78
-18.43
-8.05
1.47
9.57
16.03
20.83
24.06
25.79
26.13
25.33
23.80
22.06
20.64
19.89
19.79
20.09
20.37
20.31
19.78
18.85
17.72
16.55
15.37
14.07
12.39
10.10
7.09
3.42
-0.64
-4.68
-8.40
-11.66
-14.57
-17.46
-20.70
-24.55
-29.07
-34.07
-39.12
-43.53
-46.50
-47.25
-45.25
-40.48
-33.45
-25.12
-16.58
-8.69
-1.92
3.60
7.97
11.28
13.51
14.64
14.75
14.13
13.22
12.48
12.14
12.21
12.46
12.56
12.31
11.65
10.74
9.77
8.93
8.29
7.74
7.06
5.97
4.22
1.73
-1.41
-4.86
-8.28
-11.40
-14.22
-16.96
-20.05
-23.88
-28.69
-34.39
-40.50
-46.21
-50.45
-52.19
-50.63
-45.60
-37.55
-27.58
-17.00
-6.94
1.97
9.63
16.21
21.86
26.46
29.71
31.37
31.55
30.76
29.73
29.04
28.92
29.15
29.33
29.07
28.32
27.23
26.05
24.89
23.64
21.99
19.58
16.23
11.99
7.22
2.38
-2.06
-5.91
-9.23
-12.39
-15.86
-20.11
-25.41
-31.75
-38.69
-45.42
-50.82
-53.72
-53.24
-49.04
-41.52
-31.67
-20.80
-10.13
-0.58
7.44
13.86
18.83
22.62
25.43
27.44
28.74
29.37
29.39
28.92
28.11
27.19
26.32
25.56
24.86
24.13
23.25
22.16
20.78
18.98
16.58
13.44
9.48
4.87
-0.02
-4.81
-9.25
-13.37
-17.51
-22.14
-27.65
-34.03
-40.75
-46.84
-51.11
-52.52
-50.50
-45.16
-37.13
-27.43
-17.08
-6.91
2.55
10.97
18.13
23.87
28.04
30.64
31.83
32.00
31.57
30.93
30.35
29.87
29.42
28.87
28.13
27.20
26.13
24.96
23.68
22.18
20.25
17.69
14.37
10.32
5.75
0.99
-3.59
-7.78
-11.53
-15.07
-18.81
-23.22
-28.61
-34.95
-41.76
-48.04
-52.55
-54.10
-51.99
-46.22
-37.58
-27.30
-16.69
-6.77
1.96
9.36
15.53
20.62
24.67
27.71
29.80
31.10
31.84
32.23
32.43
32.48
32.31
31.80
30.86
29.50
27.91
26.33
24.99
23.96
23.03
21.81
19.89
16.98
13.06
8.32
3.10
-2.23
-7.34
-12.01
-16.18
-19.97
-23.77
-28.02
-33.07
-38.88
-44.86
-49.99
-53.03
-52.92
-49.13
-41.92
-32.12
-21.04
-9.99
0.01
8.47
15.33
20.82
25.16
28.46
30.68
31.82
32.04
31.72
31.37
31.34
31.67
32.10
32.20
31.67
30.40
28.58
26.56
24.62
22.89
21.25
19.39
16.99
13.82
9.91
5.50
0.96
-3.40
-7.44
-11.23
-14.98
-18.97
-23.40
-28.41
-33.97
-39.82
-45.41
-49.82
-52.01
-51.08
-46.66
-39.09
-29.32
-18.62
-8.11
1.44
9.69
16.60
22.18
26.43
29.31
30.83
31.14
30.56
29.54
28.56
28.00
27.96
28.33
28.79
28.93
28.53
27.55
26.20
24.73
23.31
21.86
20.09
17.63
14.24
9.96
5.11
0.21
-4.28
-8.11
-11.42
-14.58
-18.07
-22.26
-27.35
-33.30
-39.83
-46.46
-52.41
-56.68
-58.20
-56.16
-50.36
-41.34
-30.32
-18.78
-8.04
1.12
8.53
14.45
19.23
23.13
26.15
28.23
29.33
29.60
29.33
28.92
28.68
28.74
29.01
29.30
29.38
29.12
28.48
27.48
26.09
24.25
21.89
18.96
15.47
11.50
7.20
2.77
-1.56
-5.61
-9.24
-12.45
-15.43
-18.50
-22.07
-26.45
-31.76
-37.84
-44.20
-50.06
-54.40
-56.17
-54.64
-49.57
-41.43
-31.28
-20.46
-10.21
-1.32
5.99
11.93
16.85
20.97
24.29
26.65
27.95
28.28
27.94
27.34
26.85
26.65
26.70
26.86
26.92
26.79
26.42
25.81
24.88
23.48
21.41
18.49
14.70
10.20
5.33
0.53
-3.77
-7.36
-10.24
-12.71
-15.18
-18.07
-21.75
-26.35
-31.74
-37.49
-42.89
-47.04
-49.00
-48.08
-44.05
-37.29
-28.66
-19.26
-10.12
-1.91
5.10
10.90
15.56
19.09
21.47
22.69
22.90
22.41
21.58
20.77
20.14
19.72
19.41
19.09
18.68
18.16
17.57
16.92
16.12
15.00
13.32
10.85
7.51
3.41
-1.10
-5.61
-9.80
-13.54
-16.99
-20.49
-24.45
-29.17
-34.74
-40.86
-46.89
-51.90
-54.80
-54.72
-51.21
-44.48
-35.30
-24.83
-14.27
-4.51
3.94
10.93
16.49
20.72
23.69
25.49
26.28
26.34
26.01
25.64
25.53
25.74
26.14
26.42
26.21
25.24
23.52
21.32
19.07
17.11
15.49
13.94
12.00
9.24
5.45
0.76
-4.47
-9.81
-14.90
-19.55
-23.78
-27.82
-31.97
-36.59
-41.86
-47.64
-53.35
-58.05
-60.64
-60.15
-56.06
-48.52
-38.27
-26.48
-14.48
-3.37
6.11
13.67
19.37
23.45
26.18
27.78
28.49
28.57
28.31
28.02
27.92
28.04
28.25
28.31
27.99
27.14
25.74
23.89
21.79
19.63
17.54
15.43
13.07
10.13
6.43
2.01
-2.77
-7.45
-11.68
-15.36
-18.72
-22.21
-26.28
-31.27
-37.20
-43.72
-50.12
-55.35
-58.27
-57.95
-53.92
-46.43
-36.32
-24.80
-13.10
-2.21
7.28
15.12
21.30
25.91
29.12
31.08
31.99
32.14
31.81
31.29
30.81
30.46
30.21
29.93
29.50
28.84
27.96
26.89
25.63
24.11
22.15
19.54
16.14
11.96
7.20
2.19
-2.69
-7.19
-11.25
-15.04
-18.90
-23.25
-28.42
-34.56
-41.46
-48.52
-54.79
-59.11
-60.48
-58.27
-52.52
-43.93
-33.65
-22.88
-12.59
-3.37
4.58
11.24
16.62
20.70
23.48
25.05
25.67
25.65
25.31
24.86
24.41
24.01
23.68
23.45
23.36
23.34
23.22
22.75
21.60
19.48
16.21
11.81
6.55
0.89
-4.62
-9.51
-13.64
-17.21
-20.82
-25.18
-30.80
-37.78
-45.57
-53.02
-58.66
-61.14
-59.53
-53.73
-44.38
-32.74
-20.30
-8.38
2.13
10.79
17.61
22.88
26.99
30.31
33.15
35.67
37.90
39.78
41.19
41.98
42.05
41.32
39.81
37.63
35.05
32.34
29.75
27.35
24.96
22.27
18.96
14.83
9.94
4.53
-1.04
-6.49
-11.70
-16.77
-21.97
-27.71
-34.37
-42.05
-50.44
-58.62
-65.23
-68.75
-68.05
-62.74
-53.39
-41.29
-28.05
-15.03
-3.06
7.60
16.96
25.07
31.86
37.11
40.72
42.74
43.49
43.41
42.96
42.42
41.93
41.45
40.91
40.25
39.49
38.69
37.91
37.11
36.09
34.52
32.06
28.46
23.67
17.97
11.83
5.77
0.19
-4.80
-9.41
-14.15
-19.55
-25.99
-33.38
-41.09
-48.03
-52.88
-54.50
-52.25
-46.23
-37.25
-26.56
-15.45
-4.93
4.49
12.75
20.02
26.44
31.97
36.42
39.54
41.27
41.77
41.42
40.71
39.98
39.36
38.81
38.15
37.27
36.18
34.97
33.77
32.60
31.25
29.41
26.74
23.08
18.51
13.40
8.23
3.38
-0.93
-4.79
-8.48
-12.38
-16.90
-22.31
-28.67
-35.64
-42.46
-47.99
-50.96
-50.41
-46.00
-38.19
-28.07
-17.02
-6.29
3.30
11.45
18.19
23.71
28.17
31.59
33.95
35.27
35.69
35.52
35.08
34.64
34.25
33.79
33.05
31.85
30.22
28.38
26.60
25.06
23.69
22.16
20.03
16.93
12.75
7.71
2.24
-3.14
-8.01
-12.20
-15.78
-19.09
-22.58
-26.67
-31.60
-37.26
-43.07
-48.09
-51.17
-51.31
-48.02
-41.48
-32.54
-22.42
-12.33
-3.14
4.79
11.49
17.16
21.88
25.59
28.14
29.47
29.72
29.29
28.64
28.18
28.07
28.24
28.44
28.37
27.84
26.86
25.60
24.28
23.05
21.85
20.43
18.44
15.60
11.84
7.34
2.47
-2.35
-6.81
-10.78
-14.31
-17.63
-20.98
-24.63
-28.78
-33.56
-38.89
-44.42
-49.51
-53.25
-54.74
-53.27
-48.67
-41.38
-32.30
-22.54
-13.01
-4.31
3.39
10.07
15.78
20.42
23.89
26.11
27.18
27.32
26.91
26.28
25.67
25.22
24.96
24.81
24.67
24.39
23.83
22.90
21.62
20.04
18.20
16.05
13.51
10.41
6.70
2.49
-1.98
-6.37
-10.35
-13.73
-16.51
-18.90
-21.23
-23.90
-27.25
-31.48
-36.51
-41.92
-46.98
-50.73
-52.24
-50.89
-46.60
-39.79
-31.35
-22.27
-13.43
-5.41
1.52
7.29
11.91
15.41
17.84
19.32
20.06
20.30
20.24
20.01
19.65
19.15
18.49
17.71
16.84
15.92
15.04
14.25
13.58
12.93
12.07
10.69
8.50
5.41
1.58
-2.60
-6.67
-10.24
-13.21
-15.73
-18.19
-21.00
-24.50
-28.79
-33.66
-38.57
-42.66
-44.95
-44.62
-41.24
-34.94
-26.41
-16.71
-6.92
2.06
9.71
15.82
20.38
23.42
25.00
25.19
24.22
22.47
20.52
18.88
17.86
17.41
17.19
16.76
15.84
14.45
12.80
11.21
9.86
8.73
7.56
6.06
4.01
1.35
-1.82
-5.30
-8.84
-12.22
-15.32
-18.11
-20.66
-23.20
-26.02
-29.45
-33.66
-38.57
-43.70
-48.22
-51.11
-51.45
-48.74
-43.11
-35.30
-26.37
-17.45
-9.34
-2.37
3.48
8.46
12.80
16.59
19.75
22.14
23.65
24.33
24.37
24.06
23.74
23.66
23.92
24.42
24.91
25.04
24.57
23.41
21.67
19.56
17.31
15.00
12.59
9.93
6.89
3.46
-0.27
-4.11
-7.89
-11.56
-15.14
-18.74
-22.51
-26.61
-31.15
-36.19
-41.61
-47.04
-51.86
-55.18
-56.14
-54.14
-49.12
-41.60
-32.51
-22.92
-13.72
-5.46
1.71
7.84
13.07
17.45
21.01
23.75
25.70
27.00
27.81
28.33
28.72
29.05
29.30
29.32
28.96
28.10
26.75
24.94
22.84
20.58
18.25
15.87
13.45
10.93
8.29
5.49
2.51
-0.65
-3.93
-7.24
-10.52
-13.70
-16.87
-20.18
-23.85
-28.13
-33.11
-38.68
-44.39
-49.43
-52.81
-53.62
-51.32
-45.95
-38.16
-28.94
-19.37
-10.26
-2.10
4.92
10.77
15.44
18.91
21.18
22.37
22.75
22.66
22.51
22.61
23.09
23.89
24.77
25.44
25.66
25.35
24.57
23.52
22.29
20.88
19.09
16.67
13.44
9.42
4.88
0.23
-4.14
-8.00
-11.41
-14.64
-18.12
-22.20
-27.10
-32.69
-38.48
-43.67
-47.29
-48.41
-46.47
-41.40
-33.73
-24.39
-14.46
-4.90
3.66
10.92
16.87
21.51
24.89
27.00
27.89
27.74
26.87
25.69
24.55
23.71
23.20
22.95
22.76
22.51
22.11
21.56
20.87
19.98
18.77
17.02
14.54
11.19
7.01
2.24
-2.76
-7.61
-12.04
-16.01
-19.73
-23.58
-27.98
-33.22
-39.32
-45.94
-52.34
-57.55
-60.48
-60.31
-56.66
-49.78
-40.48
-29.91
-19.22
-9.30
-0.63
6.67
12.69
17.58
21.45
24.36
26.35
27.52
28.07
28.22
28.21
28.20
28.22
28.19
27.93
27.28
26.16
24.67
22.99
21.27
19.54
17.64
15.22
11.97
7.74
2.70
-2.73
-7.99
-12.60
-16.39
-19.53
-22.51
-25.96
-30.43
-36.21
-43.10
-50.41
-56.93
-61.28
-62.30
-59.39
-52.73
-43.21
-32.12
-20.74
-10.01
-0.44
7.86
14.90
20.72
25.27
28.45
30.28
30.93
30.80
30.32
29.91
29.75
29.81
29.83
29.60
28.99
28.04
26.98
25.98
25.06
23.96
22.30
19.63
15.74
10.77
5.16
-0.45
-5.49
-9.67
-13.09
-16.21
-19.68
-24.10
-29.80
-36.66
-44.06
-50.89
-55.81
-57.61
-55.59
-49.76
-40.88
-30.14
-18.82
-7.94
1.87
10.35
17.41
22.98
27.01
29.52
30.72
30.99
30.79
30.55
30.51
30.66
30.83
30.78
30.43
29.76
28.91
27.98
26.98
25.75
24.02
21.51
17.99
13.44
8.03
2.11
-3.89
-9.58
-14.81
-19.69
-24.65
-30.18
-36.65
-43.94
-51.35
-57.67
-61.49
-61.69
-57.75
-49.96
-39.28
-27.00
-14.43
-2.58
7.92
16.81
24.05
29.70
33.83
36.53
37.97
38.43
38.29
37.98
37.83
37.92
38.10
38.00
37.30
35.89
33.94
31.78
29.75
27.92
26.04
23.67
20.35
15.87
10.37
4.31
-1.77
-7.41
-12.46
-17.05
-21.60
-26.63
-32.64
-39.93
-48.44
-57.53
-66.01
-72.29
-74.80
-72.49
-65.24
-53.94
-40.20
-25.88
-12.46
-0.82
8.90
16.96
23.74
29.42
34.01
37.40
39.53
40.58
40.93
41.00
41.10
41.29
41.37
41.05
40.17
38.82
37.34
36.05
35.06
34.05
32.42
29.52
24.97
18.89
11.88
4.72
-1.85
-7.47
-12.21
-16.49
-20.93
-26.11
-32.49
-40.23
-49.11
-58.39
-66.81
-72.81
-74.87
-72.07
-64.43
-52.95
-39.33
-25.39
-12.48
-1.24
8.29
16.40
23.32
29.08
33.57
36.76
38.76
39.92
40.65
41.24
41.78
42.13
42.06
41.41
40.23
38.75
37.28
35.99
34.78
33.26
30.89
27.24
22.17
15.99
9.29
2.74
-3.19
-8.34
-12.99
-17.66
-23.00
-29.52
-37.30
-45.83
-54.00
-60.24
-63.06
-61.51
-55.47
-45.75
-33.69
-20.78
-8.20
3.33
13.52
22.25
29.43
34.93
38.67
40.74
41.45
41.36
41.07
41.07
41.57
42.46
43.45
44.15
44.34
43.91
42.96
41.60
39.88
37.64
34.63
30.55
25.23
18.76
11.51
4.06
-3.05
-9.48
-15.25
-20.71
-26.45
-33.03
-40.74
-49.48
-58.69
-67.35
-74.16
-77.76
-77.06
-71.60
-61.70
-48.41
-33.24
-17.65
-2.67
11.24
24.07
35.84
46.27
54.71
60.42
62.99
62.70
60.55
57.81
55.59
54.34
53.82
53.38
52.41
50.66
48.29
45.68
43.08
40.48
37.58
33.99
29.42
23.85
17.53
10.93
4.53
-1.29
-6.43
-11.02
-15.45
-20.19
-25.68
-32.21
-39.81
-48.17
-56.60
-64.01
-69.09
-70.61
-67.74
-60.40
-49.33
-35.95
-21.89
-8.58
3.10
12.92
21.11
27.98
33.72
38.25
41.39
43.07
43.47
43.09
42.49
42.17
42.25
42.61
42.89
42.74
41.99
40.68
39.01
37.17
35.22
33.06
30.43
27.07
22.81
17.70
12.02
6.17
0.52
-4.67
-9.32
-13.52
-17.45
-21.36
-25.53
-30.32
-36.02
-42.65
-49.84
-56.67
-61.89
-64.16
-62.56
-56.83
-47.59
-36.07
-23.79
-12.06
-1.73
6.93
14.06
19.91
24.61
28.11
30.28
31.15
31.01
30.38
29.82
29.67
29.90
30.18
30.07
29.30
27.90
26.13
24.38
22.85
21.49
19.94
17.71
14.38
9.83
4.36
-1.37
-6.65
-10.95
-14.20
-16.79
-19.43
-22.85
-27.48
-33.35
-39.95
-46.43
-51.72
-54.71
-54.53
-50.74
-43.51
-33.63
-22.39
-11.18
-1.13
7.18
13.73
18.82
22.81
25.79
27.67
28.27
27.71
26.38
24.95
24.01
23.80
24.11
24.44
24.28
23.42
22.02
20.46
19.04
17.80
16.48
14.64
11.93
8.22
3.66
-1.39
-6.54
-11.51
-16.14
-20.42
-24.50
-28.65
-33.21
-38.47
-44.52
-51.09
-57.47
-62.58
-65.20
-64.34
-59.62
-51.36
-40.59
-28.73
-17.18
-6.94
1.50
8.17
13.40
17.50
20.70
23.11
24.79
25.83
26.42
26.77
26.99
27.06
26.86
26.19
24.96
23.22
21.20
19.20
17.47
16.08
14.85
13.40
11.31
8.27
4.20
-0.68
-5.95
-11.14
-15.85
-19.87
-23.23
-26.19
-29.16
-32.59
-36.85
-42.05
-47.89
-53.63
-58.15
-60.25
-59.02
-54.11
-45.98
-35.64
-24.44
-13.60
-3.98
4.08
10.58
15.74
19.72
22.64
24.52
25.48
25.75
25.66
25.49
25.41
25.36
25.16
24.56
23.46
21.98
20.32
18.75
17.35
16.00
14.37
12.09
8.94
4.93
0.34
-4.42
-8.94
-13.03
-16.69
-20.22
-24.01
-28.45
-33.78
-39.98
-46.64
-53.03
-58.14
-60.89
-60.43
-56.36
-48.96
-39.13
-28.15
-17.32
-7.61
0.50
6.95
12.02
15.96
18.98
21.14
22.46
23.02
22.99
22.58
22.02
21.44
20.85
20.21
19.47
18.64
17.72
16.72
15.55
14.01
11.82
8.78
4.83
0.14
-4.94
-9.96
-14.61
-18.76
-22.63
-26.64
-31.29
-36.85
-43.16
-49.42
-54.37
-56.62
-55.18
-49.84
-41.27
-30.79
-19.85
-9.58
-0.58
7.11
13.66
19.20
23.70
27.06
29.21
30.29
30.63
30.62
30.56
30.55
30.46
30.09
29.24
27.81
25.89
23.67
21.32
18.87
16.20
13.07
9.31
4.88
-0.05
-5.17
-10.13
-14.75
-18.99
-23.04
-27.26
-32.07
-37.84
-44.62
-52.05
-59.18
-64.62
-66.88
-64.90
-58.47
-48.38
-36.14
-23.45
-11.66
-1.42
7.32
14.90
21.71
27.81
33.03
37.14
40.01
41.75
42.64
42.95
42.79
42.10
40.73
38.67
36.08
33.37
30.95
29.09
27.74
26.52
24.87
22.32
18.62
13.89
8.55
3.09
-2.08
-6.80
-11.15
-15.49
-20.22
-25.73
-32.14
-39.27
-46.48
-52.77
-56.95
-57.95
-55.15
-48.63
-39.16
-27.97
-16.37
-5.34
4.58
13.31
20.91
27.44
32.80
36.83
39.46
40.78
41.09
40.79
40.15
39.33
38.31
37.06
35.62
34.10
32.68
31.46
30.32
28.97
27.04
24.25
20.56
16.23
11.63
7.15
2.99
-0.94
-4.93
-9.37
-14.63
-20.93
-28.21
-36.10
-43.80
-50.19
-54.00
-54.18
-50.25
-42.49
-31.95
-20.05
-8.22
2.56
11.85
19.68
26.24
31.60
35.68
38.32
39.41
39.17
38.05
36.66
35.52
34.89
34.72
34.68
34.44
33.72
32.53
30.95
29.17
27.25
25.05
22.31
18.76
14.30
9.08
3.50
-1.93
-6.80
-10.97
-14.64
-18.28
-22.44
-27.64
-34.11
-41.60
-49.40
-56.34
-61.07
-62.38
-59.64
-53.00
-43.36
-32.06
-20.44
-9.48
0.36
9.02
16.64
23.26
28.83
33.20
36.30
38.21
39.14
39.31
38.97
38.24
37.22
35.98
34.60
33.14
31.68
30.25
28.85
27.47
26.03
24.39
22.34
19.65
16.14
11.79
6.82
1.60
-3.40
-7.84
-11.63
-15.01
-18.44
-22.44
-27.38
-33.35
-40.07
-46.90
-52.91
-57.07
-58.44
-56.46
-51.12
-43.06
-33.37
-23.23
-13.63
-5.06
2.44
9.07
15.03
20.35
24.87
28.42
30.92
32.51
33.46
34.07
34.47
34.64
34.38
33.55
32.13
30.34
28.53
27.04
26.00
25.21
24.25
22.53
19.69
15.65
10.76
5.55
0.61
-3.67
-7.24
-10.28
-13.08
-15.94
-19.19
-23.13
-28.09
-34.15
-40.95
-47.62
-52.78
-55.05
-53.52
-48.12
-39.71
-29.70
-19.59
-10.43
-2.69
3.72
9.08
13.62
17.35
20.13
21.81
22.45
22.38
22.05
21.92
22.18
22.66
22.92
22.53
21.24
19.19
16.83
14.64
12.86
11.42
9.90
7.87
5.07
1.56
-2.30
-6.08
-9.49
-12.55
-15.47
-18.63
-22.37
-26.89
-32.20
-38.06
-44.00
-49.33
-53.16
-54.64
-53.13
-48.50
-41.15
-32.01
-22.16
-12.58
-3.89
3.67
10.16
15.73
20.41
24.10
26.64
27.93
28.07
27.40
26.40
25.55
25.13
25.10
25.19
25.00
24.24
22.81
20.85
18.60
16.31
14.07
11.79
9.25
6.24
2.65
-1.44
-5.76
-9.94
-13.70
-16.94
-19.80
-22.60
-25.72
-29.48
-34.02
-39.24
-44.83
-50.27
-54.77
-57.46
-57.48
-54.32
-48.02
-39.22
-29.07
-18.82
-9.51
-1.61
4.88
10.31
15.02
19.16
22.66
25.33
27.05
27.91
28.18
28.18
28.12
28.05
27.84
27.36
26.56
25.50
24.35
23.25
22.25
21.21
19.90
18.00
15.25
11.55
7.03
2.01
-3.02
-7.58
-11.40
-14.47
-17.09
-19.75
-22.96
-27.13
-32.44
-38.75
-45.51
-51.78
-56.35
-58.02
-56.02
-50.26
-41.47
-30.92
-20.05
-9.99
-1.32
5.86
11.74
16.53
20.28
22.97
24.54
25.08
24.87
24.22
23.44
22.62
21.71
20.57
19.09
17.35
15.67
14.40
13.79
13.81
14.07
14.00
12.99
10.74
7.32
3.18
-1.12
-5.08
-8.51
-11.51
-14.43
-17.70
-21.68
-26.53
-32.16
-38.13
-43.66
-47.73
-49.33
-47.74
-42.82
-35.08
-25.53
-15.40
-5.70
2.92
10.27
16.36
21.30
25.09
27.67
29.01
29.23
28.66
27.74
26.89
26.34
26.05
25.76
25.17
24.09
22.59
20.89
19.30
18.00
16.91
15.66
13.75
10.79
6.65
1.59
-3.86
-9.12
-13.75
-17.69
-21.19
-24.71
-28.77
-33.72
-39.65
-46.30
