1624976168.00
64.000000
-0.00
-0.00
-0.00
-0.00
-0.00
-0.00
-0.00
-0.00
-0.00
-0.00
0.00
0.01
0.01
-0.00
-0.03
-0.05
-0.05
0.00
0.13
0.36
0.66
1.01
1.37
1.72
2.06
2.40
2.79
3.24
3.80
4.42
5.06
5.66
6.20
6.68
7.15
7.68
8.31
9.14
10.09
11.04
11.88
12.56
13.14
13.76
14.65
15.96
17.91
20.32
22.90
25.38
27.58
29.57
31.68
34.32
37.81
42.54
48.15
54.10
59.83
64.97
69.58
74.14
79.34
85.71
93.76
103.00
112.62
121.73
129.77
136.75
143.30
150.75
157.77
166.64
177.95
191.79
206.97
220.57
228.25
225.36
208.53
176.87
132.76
80.05
23.07
-34.94
-92.44
-149.16
-205.23
-260.37
-313.74
-363.87
-409.83
-450.91
-486.50
-515.74
-537.23
-549.22
-549.96
-538.37
-514.21
-478.67
-433.88
-382.45
-327.02
-269.84
-212.63
-156.66
-102.95
-52.37
-5.90
35.58
71.43
101.35
125.50
144.38
158.69
169.15
176.37
180.75
182.57
182.07
179.51
175.23
169.65
163.18
156.15
148.81
141.30
133.69
126.02
118.33
110.69
103.16
95.80
88.68
81.83
75.25
68.95
62.95
57.25
51.86
46.78
42.03
37.59
33.45
29.61
26.07
22.81
19.83
17.11
14.67
12.48
10.54
8.83
7.35
6.07
4.97
4.05
3.27
2.62
2.09
1.65
1.30
1.01
0.79
0.61
0.47
0.37
0.29
0.23
0.18
0.15
0.14
0.13
0.14
0.15
0.16
0.19
0.22
0.25
0.29
0.33
0.37
0.42
0.46
0.51
0.56
0.61
0.66
0.72
0.78
0.85
0.92
1.00
1.09
1.19
1.30
1.43
1.57
1.72
1.89
2.09
2.31
2.54
2.80
3.10
3.42
3.77
4.15
4.56
5.01
5.50
6.03
6.59
7.20
7.85
8.54
9.27
10.05
10.88
11.75
12.66
13.62
14.65
15.74
16.89
18.09
19.34
20.59
21.80
22.90
23.77
24.33
24.44
24.00
22.92
21.15
18.69
15.59
11.90
7.82
3.50
-0.85
-5.02
-8.83
-12.13
-14.79
-16.75
-18.00
-18.55
-18.49
-17.92
-16.95
-15.66
-14.17
-12.53
-10.80
-8.99
-7.10
-5.16
-3.20
-1.22
0.77
2.76
4.74
6.72
8.75
10.92
13.18
15.53
17.98
20.54
23.19
25.92
28.76
31.79
35.17
38.75
42.50
46.42
50.47
54.62
58.84
63.15
67.68
72.70
78.00
83.55
89.32
95.18
101.00
106.60
111.90
116.97
122.14
127.12
131.82
136.05
139.37
141.07
140.17
135.46
125.30
112.76
98.97
84.75
70.55
56.41
41.98
26.82
10.60
-6.59
-24.15
-41.93
-59.49
-76.54
-93.09
-109.41
-126.03
-143.68
-163.21
-185.24
-210.14
-236.74
-262.15
-282.24
-292.90
-291.68
-278.88
-257.54
-232.20
-207.38
-185.83
-168.12
-153.30
-139.86
-126.96
-114.73
-104.00
-95.64
-90.04
-86.73
-84.77
-83.05
-80.56
-76.94
-72.46
-67.82
-63.89
-61.58
-62.25
-68.06
-81.31
-102.74
-131.01
-162.43
-191.70
-213.75
-224.80
-224.08
-213.95
-198.17
-179.00
-157.58
-134.64
-111.26
-89.82
-71.97
-59.53
-54.06
-55.76
-61.16
-65.78
-65.50
-57.49
-41.00
-14.33
23.14
70.65
126.74
191.60
263.54
337.59
406.03
459.78
494.79
510.82
510.91
484.28
428.82
353.96
275.69
215.15
168.78
131.40
100.52
73.94
52.97
41.46
41.10
49.86
62.96
74.07
81.12
83.93
83.17
80.15
77.94
78.72
82.80
88.73
93.65
97.08
99.24
100.58
102.15
106.22
114.59
127.67
144.42
162.59
181.09
198.58
212.69
220.17
218.08
204.60
180.27
148.39
113.93
82.12
55.37
32.17
8.27
-20.58
-56.24
-97.16
-139.02
-176.79
-206.22
-225.20
-233.63
-232.69
-223.98
-209.20
-189.96
-168.01
-145.17
-123.48
-104.84
-90.72
-81.74
-77.52
-76.79
-77.81
-79.15
-80.06
-80.69
-81.60
-83.13
-85.03
-86.50
-86.79
-85.86
-84.71
-84.92
-87.89
-94.16
-103.19
-113.73
-124.56
-134.89
-144.50
-153.46
-161.92
-169.90
-177.16
-183.16
-187.10
-188.24
-186.36
-182.28
-177.87
-175.46
-176.80
-182.08
-189.73
-196.99
-200.92
-199.29
-191.02
-176.00
-154.85
-128.82
-99.70
-69.76
-41.31
-16.10
5.24
23.01
38.06
51.24
63.00
73.53
82.97
91.70
100.29
109.37
119.36
130.24
141.64
152.81
162.87
170.97
176.50
179.14
178.94
176.08
170.82
163.36
153.88
142.62
130.13
117.28
105.19
94.85
86.81
80.86
76.18
71.65
66.45
60.35
53.75
47.33
41.61
36.73
32.50
28.72
25.43
23.00
21.87
22.29
24.05
26.54
28.92
30.37
30.29
28.41
24.86
20.08
14.77
9.66
5.37
2.19
0.06
-1.29
-2.22
-3.11
-4.24
-5.89
-8.28
-11.44
-15.04
-18.42
-20.65
-20.95
-18.87
-14.51
-8.44
-1.62
4.90
10.13
13.42
14.63
14.20
12.97
11.79
11.09
10.47
8.91
5.38
-0.36
-7.19
-12.87
-15.06
-12.71
-7.14
-2.01
-2.04
-11.26
-31.60
-62.74
-102.66
-148.35
-196.03
-240.68
-275.94
-295.29
-294.19
-272.26
-233.83
-186.30
-136.59
-88.22
-40.64
8.81
61.60
115.75
166.18
207.27
235.88
252.67
261.25
265.59
267.70
266.89
260.71
246.90
225.03
197.10
166.75
138.03
113.92
95.51
82.00
71.34
61.13
49.65
36.49
22.40
8.83
-2.98
-12.56
-20.34
-27.34
-34.45
-41.92
-49.25
-55.56
-60.10
-62.74
-64.01
-64.80
-65.79
-67.14
-68.31
-68.45
-66.96
-63.83
-59.72
-55.74
-52.87
-51.61
-51.80
-52.72
-53.45
-53.26
-51.77
-49.13
-45.76
-42.29
-39.18
-36.71
-34.85
-33.34
-31.85
-30.05
-27.79
-25.09
-22.12
-19.19
-16.59
-14.56
-13.22
-12.54
-12.34
-12.33
-12.13
-11.36
-9.75
-7.33
-4.40
-1.55
0.60
1.54
1.17
-0.37
-2.73
-5.59
-8.85
-12.66
-17.33
-23.08
-29.93
-37.64
-45.78
-53.91
-61.74
-69.25
-76.60
-84.00
-91.50
-98.93
-105.96
-112.24
-117.73
-122.66
-127.65
-133.47
-140.74
-149.64
-159.62
-169.20
-176.23
-178.29
-173.19
-159.42
-136.50
-105.16
-67.44
-26.41
14.43
52.06
84.84
112.99
138.26
162.75
187.58
211.99
233.42
248.61
254.90
251.28
238.56
218.65
193.77
165.81
136.17
105.90
75.91
46.96
19.65
-5.85
-29.87
-53.07
-76.18
-99.56
-123.00
-145.66
-166.46
-184.47
-199.46
-211.98
-223.08
-233.71
-244.16
-253.75
-261.11
-264.48
-262.31
-253.36
-236.81
-212.08
-178.78
-137.02
-87.82
-33.45
22.61
76.32
124.05
163.36
193.39
214.58
227.93
234.43
234.80
229.72
220.20
207.85
194.61
182.28
171.88
163.44
156.18
149.04
141.17
132.23
122.39
112.12
101.97
92.32
83.30
74.83
66.74
58.84
51.01
43.17
35.26
27.25
19.19
11.12
3.10
-4.80
-12.49
-19.71
-25.92
-30.41
-32.45
-31.49
-27.39
-20.49
-11.33
-0.62
10.96
22.70
33.67
42.79
49.02
51.79
51.28
48.46
44.71
41.27
38.84
37.46
36.73
36.16
35.45
34.52
33.39
31.99
30.08
27.37
23.68
19.13
14.05
8.86
3.94
-0.64
-5.18
-10.24
-16.43
-24.07
-32.81
-41.60
-48.80
-52.70
-52.10
-46.63
-36.90
-24.18
-9.98
4.37
17.90
30.04
40.43
48.80
54.99
58.95
60.91
61.39
61.09
60.78
61.02
62.03
63.66
65.48
66.95
67.64
67.45
66.48
65.07
63.51
62.07
60.79
59.68
58.69
57.85
57.29
57.13
57.51
58.64
60.73
63.92
68.36
74.21
81.78
91.44
103.54
118.45
136.42
157.18
179.74
202.30
222.59
238.31
247.36
247.99
239.13
220.85
194.27
161.53
125.45
89.27
55.78
26.38
0.53
-23.78
-48.21
-74.02
-101.85
-131.87
-163.72
-196.76
-230.35
-264.11
-296.71
-323.99
-341.32
-345.85
-337.84
-320.14
-296.71
-271.82
-249.22
-230.14
-210.65
-186.29
-155.45
-120.89
-87.77
-60.53
-41.41
-30.16
-22.02
-6.13
27.33
81.87
152.99
231.45
308.03
376.07
431.87
450.81
419.35
344.84
252.64
166.59
96.97
43.83
9.77
-13.45
-30.46
-40.00
-40.93
-34.77
-25.37
-18.42
-14.63
-12.53
-11.71
-11.61
-10.04
-6.07
-0.91
2.51
1.89
-2.61
-9.77
-19.34
-30.81
-42.52
-53.46
-63.62
-73.72
-83.90
-92.96
-99.51
-103.40
-104.66
-103.12
-98.98
-93.00
-86.45
-80.53
-75.83
-72.65
-71.24
-71.21
-71.51
-71.09
-69.31
-66.18
-62.30
-58.26
-54.72
-52.13
-50.50
-49.57
-48.97
-48.33
-47.42
-46.15
-44.44
-42.33
-39.89
-37.21
-34.38
-31.46
-28.38
-25.02
-21.25
-17.04
-12.55
-8.14
-4.27
-1.31
0.51
1.21
1.08
0.51
-0.11
-0.53
-0.67
-0.57
-0.41
-0.36
-0.65
-1.43
-2.80
-4.72
-6.98
-9.24
-11.11
-12.31
-12.86
-13.00
-13.17
-13.81
-15.11
-16.94
-18.88
-20.41
-21.06
-20.55
-18.79
-15.91
-12.16
-7.90
-3.51
0.60
4.20
7.15
9.49
11.31
12.66
13.61
14.15
14.28
14.00
13.33
12.29
10.91
9.30
7.65
6.16
5.01
4.13
3.36
2.40
1.04
-0.84
-3.19
-5.84
-8.65
-11.49
-14.31
-17.01
-19.46
-21.46
-22.81
-23.30
-22.85
-21.51
-19.41
-16.76
-13.75
-10.55
-7.33
-4.18
-1.32
1.03
2.63
3.39
3.42
3.07
2.71
2.62
2.82
3.06
3.00
2.33
1.05
-0.58
-2.17
-3.38
-4.15
-4.69
-5.37
-6.53
-8.31
-10.63
-13.30
-16.05
-18.59
-20.62
-21.76
-21.61
-19.89
-16.60
-12.09
-7.06
-2.26
1.77
4.78
6.88
8.29
9.22
9.72
9.74
9.22
8.15
6.69
5.03
3.40
2.01
0.94
0.17
-0.46
-1.19
-2.21
-3.64
-5.44
-7.49
-9.67
-11.99
-14.50
-17.21
-20.00
-22.47
-24.14
-24.58
-23.52
-21.03
-17.45
-13.22
-8.79
-4.52
-0.64
2.72
5.40
7.31
8.38
8.66
8.36
7.83
7.38
7.19
7.19
7.05
6.47
5.25
3.49
1.45
-0.51
-2.21
-3.60
-4.80
-6.03
-7.50
-9.36
-11.72
-14.54
-17.57
-20.42
-22.52
-23.35
-22.55
-20.06
-16.13
-11.25
-6.08
-1.20
2.96
6.16
8.39
9.73
10.31
10.26
9.68
8.73
7.61
6.54
5.65
4.97
4.36
3.55
2.33
0.64
-1.44
-3.66
-5.79
-7.62
-9.14
-10.50
-11.96
-13.76
-16.03
-18.64
-21.15
-22.99
-23.57
-22.54
-19.92
-15.98
-11.19
-6.04
-0.84
4.14
8.76
12.84
16.19
18.62
20.05
20.49
20.12
19.26
18.28
17.48
17.04
16.85
16.61
15.95
14.58
12.52
10.00
7.39
4.98
2.89
0.93
-1.15
-3.61
-6.61
-10.09
-13.87
-17.63
-20.97
-23.45
-24.64
-24.17
-21.91
-17.98
-12.77
-6.87
-0.88
4.70
9.52
13.43
16.38
18.40
19.53
19.87
19.58
18.94
18.26
17.80
17.64
17.68
17.69
17.41
16.69
15.52
14.06
12.53
11.11
9.90
8.90
7.97
6.94
5.63
3.85
1.42
-1.75
-5.71
-10.36
-15.41
-20.41
-24.69
-27.53
-28.30
-26.70
-22.77
-17.00
-10.13
-3.02
3.58
9.12
13.36
16.35
18.34
19.66
20.54
21.08
21.18
20.63
19.28
17.17
14.58
11.99
9.91
8.67
8.35
8.74
9.43
9.87
9.47
7.62
3.90
-1.68
-8.48
-15.19
-20.18
-22.05
-20.20
-15.24
-8.67
-2.31
2.48
5.27
6.42
6.59
6.27
5.59
4.56
3.54
3.39
5.25
9.88
17.20
26.13
34.98
42.16
46.69
48.42
47.96
46.32
44.67
43.97
44.65
46.29
47.61
46.74
41.91
32.18
17.90
0.64
-17.45
-34.35
-48.78
-60.29
-69.06
-75.67
-80.80
-85.15
-89.28
-93.41
-97.26
-99.96
-100.34
-97.38
-90.57
-80.24
-67.35
-53.18
-38.96
-25.61
-13.83
-4.12
3.15
7.78
9.94
10.16
9.36
8.49
8.33
9.19
10.92
13.00
14.74
15.54
15.00
13.07
10.02
6.40
2.78
-0.37
-2.86
-4.83
-6.64
-8.79
-11.73
-15.69
-20.59
-25.96
-30.86
-34.21
-34.97
-32.53
-26.99
-19.08
-9.90
-0.60
7.98
15.39
21.44
26.10
29.30
30.99
31.35
30.72
29.70
28.87
28.65
29.07
29.83
30.43
30.33
29.07
26.45
22.50
17.58
12.30
7.26
2.87
-0.85
-4.38
-8.55
-14.20
-21.79
-31.22
-41.62
-51.54
-59.13
-62.58
-60.43
-51.95
-37.43
-18.39
2.60
22.40
38.22
48.38
52.80
52.72
50.13
46.76
43.60
40.82
38.20
35.63
33.41
31.98
31.53
31.70
31.57
30.17
26.98
22.28
16.92
11.91
7.98
5.12
2.73
-0.14
-4.37
-10.47
-18.44
-27.78
-37.54
-46.32
-52.56
-54.74
-51.92
-44.03
-32.08
-17.75
-2.87
11.16
23.66
34.44
43.53
50.77
55.86
58.54
58.92
57.57
55.34
53.03
51.12
49.67
48.37
46.84
44.78
42.14
39.05
35.78
32.52
29.34
26.16
22.77
19.00
14.72
9.82
4.14
-2.57
-10.45
-19.33
-28.51
-36.67
-42.22
-43.83
-40.97
-34.09
-24.50
-13.85
-3.61
5.30
12.61
18.43
22.96
26.30
28.38
29.09
28.50
26.93
24.94
23.16
22.06
21.79
22.12
22.57
22.62
21.93
20.45
18.46
16.34
14.35
12.61
10.95
9.07
6.71
3.72
0.11
-4.04
-8.58
-13.19
-17.29
-20.11
-20.75
-18.58
-13.53
-6.17
2.45
11.19
19.15
25.80
30.88
34.26
35.78
35.30
32.83
28.69
23.43
17.73
12.21
7.18
2.68
-1.48
-5.54
-9.64
-13.68
-17.42
-20.59
-23.13
-25.36
-27.85
-31.27
-36.11
-42.44
-49.95
-57.97
-65.67
-72.14
-76.49
-77.92
-75.84
-70.10
-61.08
-49.72
-37.27
-25.06
-14.14
-5.17
1.57
6.05
8.38
8.75
7.49
5.17
2.53
0.41
-0.57
-0.21
1.11
2.68
3.68
3.56
2.27
0.12
-2.40
-4.89
-7.25
-9.72
-12.75
-16.77
-21.95
-28.06
-34.37
-39.77
-43.11
-43.40
-40.23
-33.83
-24.99
-14.75
-4.17
5.88
14.70
21.73
26.48
28.65
28.22
25.63
21.71
17.49
13.90
11.51
10.31
9.82
9.29
8.00
5.56
2.01
-2.31
-6.97
-11.69
-16.56
-22.03
-28.60
-36.56
-45.67
-55.10
-63.57
-69.64
-71.95
-69.46
-61.57
-48.31
-30.54
-10.13
10.28
27.81
40.21
46.51
47.34
44.49
40.06
35.66
31.99
28.98
26.21
23.37
20.39
17.29
14.10
10.71
6.99
2.94
-1.31
-5.61
-9.97
-14.65
-20.09
-26.73
-34.72
-43.63
-52.32
-59.11
-62.13
-59.92
-51.97
-38.99
-22.68
-5.28
11.18
25.32
36.49
44.54
49.60
51.80
51.41
48.97
45.31
41.38
37.95
35.35
33.32
31.37
29.00
26.01
22.54
18.91
15.32
11.74
7.79
2.93
-3.35
-11.33
-20.78
-30.89
-40.32
-47.39
-50.49
-48.65
-41.76
-30.68
-16.88
-2.00
12.57
25.83
37.11
45.89
51.72
54.27
53.65
50.48
45.90
41.17
37.25
34.49
32.58
30.83
28.54
25.38
21.42
17.07
12.77
8.76
4.93
0.87
-3.99
-10.17
-17.99
-27.33
-37.53
-47.37
-55.19
-59.33
-58.54
-52.43
-41.65
-27.66
-12.31
2.64
15.90
26.74
34.83
40.08
42.51
42.30
39.91
36.07
31.68
27.63
24.44
22.20
20.59
19.05
17.05
14.31
10.90
7.09
3.15
-0.73
-4.70
-9.11
-14.42
-21.00
-28.95
-37.85
-46.76
-54.37
-59.16
-59.80
-55.44
-45.89
-31.64
-13.75
6.19
26.22
44.13
57.80
65.63
67.07
62.80
54.66
45.04
36.09
29.09
24.35
21.31
19.09
16.96
14.48
11.53
8.11
4.15
-0.51
-6.02
-12.47
-19.90
-28.29
-37.48
-47.13
-56.52
-64.36
-69.07
-69.13
-63.69
-52.90
-37.93
-20.59
-2.78
13.94
28.53
40.26
48.65
53.39
54.52
52.56
48.48
43.47
38.57
34.33
30.78
27.55
24.17
20.33
16.00
11.35
6.58
1.80
-3.15
-8.63
-15.12
-23.06
-32.66
-43.69
-55.30
-66.02
-73.91
-77.07
-74.18
-64.96
-50.39
-32.34
-12.96
5.88
23.00
37.80
49.93
59.05
64.76
66.83
65.55
61.84
57.02
52.36
48.60
45.73
43.10
39.92
35.58
30.06
23.77
17.33
11.24
5.66
0.35
-5.26
-11.81
-19.89
-29.84
-41.55
-54.21
-66.26
-75.57
-79.92
-77.68
-68.44
-53.18
-33.99
-13.31
6.76
24.94
40.70
53.91
64.35
71.63
75.30
75.29
72.13
66.96
61.11
55.73
51.44
48.18
45.46
42.62
39.11
34.65
29.28
23.26
16.92
10.54
4.21
-2.24
-9.10
-16.75
-25.50
-35.53
-46.75
-58.66
-70.21
-79.76
-85.40
-85.36
-78.67
-65.50
-47.26
-26.15
-4.56
15.61
33.13
47.47
58.53
66.35
71.01
72.61
71.40
67.85
62.76
57.06
51.73
47.44
44.45
42.55
41.17
39.60
37.19
33.45
28.21
21.51
13.62
5.00
-3.85
-12.42
-20.44
-27.95
-35.37
-43.32
-52.40
-62.79
-73.89
-84.25
-91.70
-93.93
-89.27
-77.27
-59.05
-36.89
-13.60
8.33
27.23
42.39
53.71
61.32
65.37
66.11
64.05
60.10
55.41
51.04
47.69
45.47
44.04
42.77
41.04
38.37
34.55
29.59
23.69
17.20
10.48
3.79
-2.70
-9.03
-15.31
-21.70
-28.45
-35.90
-44.38
-54.02
-64.42
-74.40
-82.10
-85.38
-82.56
-73.07
-57.71
-38.47
-17.85
1.87
19.14
33.19
43.91
51.45
56.00
57.78
57.09
54.40
50.42
45.95
41.70
38.11
35.32
33.12
31.16
29.00
26.26
22.71
18.24
12.85
6.59
-0.28
-7.51
-14.66
-21.38
-27.44
-32.86
-38.07
-43.81
-50.93
-59.98
-70.75
-82.01
-91.67
-97.22
-96.63
-88.93
-74.67
-55.61
-34.14
-12.56
7.45
24.93
39.43
50.65
58.33
62.29
62.68
60.19
55.87
50.97
46.48
42.88
40.13
37.90
35.82
33.58
30.93
27.59
23.27
17.80
11.32
4.24
-2.78
-9.24
-14.93
-20.06
-25.17
-30.84
-37.73
-46.26
-56.59
-68.26
-80.11
-90.15
-96.06
-95.83
-88.51
-74.56
-55.80
-34.78
-14.02
4.62
20.20
32.54
41.86
48.49
52.66
54.58
54.51
52.91
50.38
47.56
44.95
42.79
41.06
39.48
37.71
35.44
32.48
28.70
24.04
18.52
12.23
5.40
-1.67
-8.63
-15.22
-21.37
-27.29
-33.43
-40.34
-48.39
-57.50
-66.88
-75.04
-80.07
-80.27
-74.69
-63.51
-48.08
-30.41
-12.61
3.59
17.15
27.61
34.87
39.07
40.49
39.59
37.08
33.82
30.63
28.05
26.22
24.91
23.70
22.14
19.89
16.86
13.09
8.68
3.67
-1.97
-8.27
-15.11
-22.15
-28.98
-35.23
-40.96
-46.72
-53.51
-62.31
-73.41
-85.84
-97.36
-105.01
-106.23
-99.92
-87.07
-70.61
-54.39
-41.81
-34.49
-31.99
-32.36
-33.62
-34.79
-36.52
-40.57
-48.90
-62.30
-79.76
-98.84
-116.33
-128.89
-132.83
-124.13
-99.38
-57.94
-3.48
55.96
110.14
150.13
171.23
174.46
165.15
149.74
132.64
115.33
97.68
79.87
63.72
51.97
47.14
49.95
59.66
72.67
82.70
83.76
73.66
55.40
34.65
16.97
5.31
-1.12
-6.17
-14.11
-26.66
-43.46
-59.41
-69.12
-68.73
-57.09
-35.70
-8.48
19.34
42.33
55.70
56.19
42.53
16.30
-18.29
-54.01
-83.56
-102.10
-108.70
-105.60
-96.07
-82.96
-67.66
-50.77
-33.22
-17.05
-4.62
2.69
5.27
4.87
2.77
-1.27
-9.07
-22.59
-42.42
-66.72
-91.53
-112.23
-125.28
-129.43
-125.63
-116.21
-103.66
-90.05
-76.63
-63.91
-51.83
-40.25
-29.35
-19.81
-13.11
-11.11
-15.82
-28.71
-50.13
-78.60
-110.49
-140.35
-162.01
-170.45
-163.44
-142.77
-113.78
-83.72
-59.49
-45.69
-43.72
-51.94
-66.66
-83.07
-96.02
-100.86
-94.08
-74.45
-43.82
-7.09
29.19
59.10
79.74
92.00
99.81
107.97
119.72
135.48
153.25
170.17
184.12
194.53
202.10
207.80
212.01
214.28
213.93
210.62
204.61
196.65
187.33
176.74
164.35
149.37
131.12
109.65
85.82
61.10
37.16
15.29
-3.79
-19.88
-32.83
-42.25
-47.25
-46.90
-40.73
-29.21
-13.90
2.89
18.62
30.98
38.19
39.06
33.14
20.72
3.13
-17.25
-37.37
-54.08
-64.86
-68.31
-64.34
-54.03
-39.36
-22.76
-6.67
6.96
16.95
23.09
25.95
26.48
25.59
23.88
21.64
19.03
16.28
13.73
11.65
10.09
8.76
7.13
4.68
1.08
-3.75
-9.74
-16.71
-24.41
-32.39
-39.89
-45.78
-48.81
-47.94
-42.67
-33.29
-20.75
-6.39
8.38
22.40
34.79
44.98
52.60
57.48
59.67
59.49
57.54
54.49
51.03
47.59
44.38
41.34
38.29
35.05
31.55
27.76
23.67
19.27
14.40
8.81
2.27
-5.39
-14.00
-22.96
-31.17
-37.25
-39.86
-38.16
-32.04
-22.13
-9.54
4.54
19.03
33.04
45.75
56.33
64.02
68.41
69.63
68.33
65.52
62.08
58.55
55.03
51.32
47.18
42.53
37.46
32.11
26.64
21.10
15.50
9.81
3.92
-2.34
-9.23
-16.97
-25.57
-34.54
-42.91
-49.30
-52.30
-50.94
-45.04
-35.25
-22.85
-9.34
3.95
16.06
26.41
34.68
40.64
44.21
45.45
44.76
42.82
40.41
38.19
36.46
35.07
33.56
31.36
28.14
23.87
18.93
13.82
8.93
4.44
0.14
-4.39
-9.60
-15.79
-22.93
-30.56
-37.86
-43.77
-47.21
-47.36
-43.87
-36.96
-27.34
-16.04
-4.14
7.43
17.90
26.69
33.33
37.54
39.29
38.86
36.85
34.02
31.04
28.35
26.03
23.85
21.40
18.37
14.63
10.30
5.73
1.30
-2.77
-6.48
-10.16
-14.24
-19.20
-25.28
-32.39
-39.97
-47.06
-52.42
-54.77
-53.21
-47.44
-38.00
-26.15
-13.41
-1.16
9.62
18.52
25.37
30.12
32.72
33.25
32.02
29.73
27.17
24.97
23.30
21.80
19.86
16.95
12.94
8.12
3.07
-1.64
-5.70
-9.13
-12.25
-15.59
-19.67
-24.88
-31.30
-38.61
-46.06
-52.51
-56.74
-57.73
-54.96
-48.53
-39.11
-27.71
-15.40
-3.08
8.58
19.06
27.91
34.74
39.27
41.43
41.49
40.04
37.85
35.66
33.96
32.82
31.96
30.84
28.97
26.04
22.12
17.47
12.49
7.48
2.57
-2.34
-7.44
-12.98
-19.09
-25.91
-33.40
-41.37
-49.31
-56.36
-61.36
-63.18
-61.01
-54.71
-44.86
-32.60
-19.27
-6.13
5.94
16.45
25.16
32.02
37.02
40.17
41.65
41.69
40.69
39.03
37.05
34.95
32.81
30.64
28.46
26.33
24.29
22.28
20.07
17.31
13.72
9.21
4.00
-1.54
-6.97
-12.11
-16.98
-21.81
-26.92
-32.57
-38.82
-45.47
-51.99
-57.54
-61.12
-61.78
-58.94
-52.58
-43.30
-32.06
-19.96
-7.94
3.30
13.25
21.53
27.79
31.87
33.83
34.01
32.96
31.34
29.62
28.13
26.91
25.85
24.76
23.51
21.98
20.09
17.76
14.88
11.34
7.14
2.37
-2.63
-7.51
-11.94
-15.79
-19.21
-22.54
-26.22
-30.58
-35.77
-41.60
-47.55
-52.86
-56.56
-57.72
-55.71
-50.39
-42.24
-32.21
-21.43
-10.96
-1.51
6.54
13.06
18.06
21.58
23.72
24.64
24.58
23.83
22.67
21.31
19.90
18.56
17.40
16.49
15.80
15.20
14.48
13.34
11.60
9.17
6.10
2.50
-1.48
-5.67
-9.94
-14.23
-18.56
-23.14
-28.32
-34.36
-41.19
-48.15
-54.00
-57.28
-56.81
-52.13
-43.71
-32.74
-20.75
-9.05
1.46
10.34
17.35
22.35
25.24
26.04
25.06
22.89
20.27
17.93
16.34
15.58
15.44
15.42
15.05
13.98
12.06
9.36
6.08
2.43
-1.43
-5.39
-9.37
-13.35
-17.32
-21.32
-25.51
-30.10
-35.33
-41.26
-47.64
-53.78
-58.68
-61.23
-60.55
-56.24
-48.56
-38.37
-26.84
-15.17
-4.32
5.09
12.76
18.51
22.34
24.29
24.62
23.83
22.61
21.64
21.37
21.85
22.70
23.31
23.10
21.72
19.12
15.54
11.33
6.90
2.56
-1.52
-5.35
-9.08
-12.94
-17.17
-21.90
-27.15
-32.79
-38.57
-44.03
-48.49
-51.10
-51.06
-47.83
-41.42
-32.44
-21.94
-11.10
-0.87
8.20
15.88
22.10
26.82
29.97
31.52
31.67
30.87
29.71
28.75
28.32
28.32
28.41
28.05
26.82
24.57
21.45
17.81
13.99
10.28
6.75
3.34
-0.09
-3.69
-7.65
-12.14
-17.28
-23.03
-29.03
-34.61
-38.86
-40.88
-40.06
-36.30
-29.99
-21.87
-12.83
-3.67
4.96
12.61
18.99
23.92
27.35
29.35
30.05
29.66
28.50
26.86
25.09
23.42
21.97
20.70
19.45
18.01
16.17
13.86
11.07
7.94
4.64
1.29
-2.07
-5.50
-9.21
-13.39
-18.24
-23.81
-29.96
-36.19
-41.80
-45.91
-47.74
-46.79
-43.02
-36.76
-28.70
-19.59
-10.18
-1.17
6.81
13.22
17.69
20.05
20.51
19.50
17.63
15.40
13.20
11.20
9.40
7.72
6.06
4.35
2.49
0.45
-1.84
-4.39
-7.17
-10.12
-13.20
-16.40
-19.82
-23.71
-28.24
-33.40
-38.70
-43.23
-45.83
-45.52
-41.84
-35.09
-26.20
-16.38
-6.78
1.64
8.27
12.73
15.00
15.47
14.99
14.70
15.64
18.28
22.30
26.71
30.14
31.46
30.09
26.13
20.21
13.22
5.95
-1.04
-7.49
-13.43
-19.08
-24.76
-30.68
-36.87
-43.06
-48.62
-52.72
-54.45
-53.12
-48.48
-40.85
-31.04
-20.12
-9.15
1.03
9.79
16.70
21.42
23.72
23.69
21.79
18.85
15.76
13.23
11.49
10.30
9.18
7.69
5.64
3.14
0.41
-2.36
-5.12
-8.01
-11.24
-15.05
-19.61
-24.99
-31.12
-37.64
-43.92
-49.00
-51.86
-51.60
-47.80
-40.62
-30.76
-19.27
-7.21
4.55
15.38
24.83
32.52
38.06
41.18
41.88
40.51
37.77
34.51
31.47
29.04
27.19
25.60
23.80
21.48
18.59
15.30
11.90
8.59
5.38
1.99
-1.94
-6.77
-12.65
-19.43
-26.59
-33.33
-38.66
-41.61
-41.47
-37.93
-31.14
-21.72
-10.55
1.41
13.29
24.39
34.11
41.96
47.52
50.57
51.18
49.81
47.15
44.03
41.09
38.65
36.67
34.85
32.80
30.24
27.06
23.40
19.48
15.54
11.71
7.96
4.06
-0.26
-5.28
-11.20
-18.04
-25.62
-33.47
-40.78
-46.50
-49.45
-48.75
-44.06
-35.80
-24.97
-12.90
-0.84
10.27
19.80
27.35
32.64
35.51
36.00
34.52
31.80
28.73
26.11
24.43
23.66
23.42
23.07
22.04
20.02
17.09
13.60
9.95
6.42
3.03
-0.44
-4.27
-8.70
-13.88
-19.82
-26.38
-33.19
-39.53
-44.43
-46.75
-45.57
-40.54
-32.01
-21.01
-8.95
2.76
13.03
21.15
26.83
30.09
31.22
30.72
29.23
27.39
25.68
24.27
23.06
21.73
19.97
17.61
14.68
11.32
7.76
4.13
0.49
-3.13
-6.79
-10.57
-14.70
-19.54
-25.36
-32.17
-39.42
-46.03
-50.54
-51.61
-48.48
-41.28
-30.92
-18.78
-6.25
5.56
15.90
24.29
30.39
34.01
35.17
34.24
31.91
29.07
26.48
24.57
23.28
22.23
20.82
18.63
15.47
11.50
7.07
2.55
-1.79
-5.95
-10.12
-14.60
-19.70
-25.63
-32.37
-39.53
-46.34
-51.68
-54.35
-53.41
-48.50
-40.03
-29.04
-16.79
-4.45
7.17
17.56
26.33
33.06
37.33
38.96
38.20
35.82
32.91
30.46
29.09
28.76
28.96
28.98
28.14
26.15
23.07
19.28
15.21
11.15
7.15
2.98
-1.72
-7.32
-13.99
-21.65
-29.87
-37.93
-44.81
-49.41
-50.74
-48.22
-41.89
-32.43
-20.98
-8.83
2.94
13.58
22.71
30.12
35.69
39.24
40.77
40.43
38.72
36.30
33.91
32.04
30.91
30.39
30.17
29.87
29.12
27.73
25.61
22.80
19.36
15.37
10.76
5.42
-0.77
-7.85
-15.63
-23.68
-31.33
-37.78
-42.20
-43.87
-42.34
-37.53
-29.85
-20.11
-9.37
1.32
11.11
19.43
25.96
30.50
33.00
33.49
32.33
30.12
27.67
25.70
24.54
24.06
23.71
22.81
20.85
17.70
13.65
9.23
4.97
1.18
-2.14
-5.21
-8.42
-12.16
-16.73
-22.28
-28.65
-35.33
-41.43
-45.78
-47.31
-45.35
-39.92
-31.73
-21.93
-11.72
-2.06
6.43
13.37
18.49
21.59
22.61
21.83
19.92
17.77
16.18
15.58
15.78
16.17
16.03
14.82
12.46
9.24
5.66
2.11
-1.18
-4.29
-7.38
-10.68
-14.36
-18.56
-23.32
-28.55
-33.82
-38.39
-41.31
-41.59
-38.65
-32.46
-23.70
-13.46
-3.05
6.45
14.16
19.63
22.72
23.54
22.48
20.19
17.41
14.91
13.20
12.47
12.43
12.50
11.99
10.43
7.65
3.85
-0.51
-4.96
-9.12
-12.88
-16.35
-19.89
-23.97
-28.99
-35.10
-41.91
-48.43
-53.27
-55.05
-52.91
-46.87
-37.76
-26.89
-15.64
-4.99
4.47
12.44
18.72
23.14
25.61
26.30
25.70
24.39
22.91
21.52
20.17
18.67
16.82
14.55
11.98
9.30
6.67
4.14
1.70
-0.78
-3.47
-6.58
-10.43
-15.30
-21.34
-28.36
-35.70
-42.26
-46.79
-48.16
-45.77
-39.76
-30.86
-20.21
-8.97
1.92
11.84
20.38
27.27
32.30
35.36
36.50
36.01
34.40
32.26
30.14
28.38
27.01
25.81
24.43
22.56
20.05
16.95
13.46
9.77
6.01
2.21
-1.70
-5.86
-10.47
-15.71
-21.62
-27.95
-34.08
-39.00
-41.62
-41.04
-36.90
-29.46
-19.54
-8.17
3.56
14.72
24.44
31.98
36.75
38.54
37.80
35.62
33.61
33.25
35.40
39.84
45.31
50.01
52.24
51.06
46.56
39.60
31.39
22.93
14.79
7.12
-0.18
-7.26
-14.22
-21.10
-27.84
-34.22
-39.78
-43.79
-45.36
-43.80
-38.86
-30.88
-20.77
-9.71
1.08
10.57
17.99
22.90
25.14
24.94
22.88
19.84
16.78
14.47
13.30
13.09
13.24
12.97
11.70
9.28
6.01
2.47
-0.79
-3.54
-5.94
-8.41
-11.42
-15.38
-20.36
-26.21
-32.37
-38.02
-42.10
-43.59
-41.79
-36.55
-28.37
-18.22
-7.36
3.07
12.12
19.11
23.68
25.76
25.61
23.82
21.17
18.38
15.95
14.00
12.40
10.85
9.09
7.02
4.63
1.94
-1.03
-4.34
-8.00
-12.06
-16.56
-21.55
-27.06
-33.02
-39.11
-44.65
-48.66
-50.10
-48.22
-42.84
-34.46
-24.10
-12.96
-2.13
7.61
15.72
21.85
25.81
27.59
27.52
26.23
24.50
23.01
22.05
21.44
20.75
19.48
17.36
14.47
11.09
7.58
4.11
0.65
-3.07
-7.39
-12.70
-19.18
-26.75
-34.87
-42.57
-48.62
-51.75
-51.07
-46.35
-38.08
-27.36
-15.53
-3.90
6.58
15.37
22.21
27.08
30.08
31.39
31.35
30.40
29.08
27.85
26.96
26.32
25.58
24.24
21.93
18.57
14.48
10.15
6.05
2.30
-1.37
-5.48
-10.56
-16.85
-24.13
-31.68
-38.43
-43.22
-45.04
-43.38
-38.26
-30.25
-20.28
-9.34
1.72
12.24
21.79
29.95
36.27
40.36
42.02
41.49
39.43
36.73
34.26
32.49
31.38
30.54
29.38
27.49
24.73
21.29
17.46
13.52
9.54
5.38
0.80
-4.47
-10.56
-17.51
-25.05
-32.73
-39.75
-45.17
-48.04
-47.69
-43.85
-36.85
-27.41
-16.54
-5.27
5.44
14.80
22.22
27.36
30.18
30.95
30.25
28.74
27.06
25.64
24.64
23.94
23.23
22.12
20.31
17.66
14.28
10.42
6.41
2.49
-1.30
-5.11
-9.22
-13.92
-19.45
-25.81
-32.76
-39.68
-45.63
-49.50
-50.32
-47.52
-41.19
-32.10
-21.36
-10.17
0.53
10.08
18.00
23.88
27.33
28.24
26.88
24.06
20.88
18.34
16.96
16.57
16.51
15.95
14.28
11.37
7.53
3.34
-0.68
-4.21
-7.29
-10.21
-13.37
-17.18
-21.88
-27.50
-33.79
-40.17
-45.73
-49.38
-50.05
-47.01
-40.27
-30.49
-18.89
-6.84
4.47
14.18
21.69
26.63
28.86
28.60
26.48
23.52
20.81
19.12
18.63
18.91
19.16
18.59
16.69
13.36
8.94
3.97
-0.97
-5.49
-9.50
-13.25
-17.26
-22.05
-27.97
-34.93
-42.46
-49.62
-55.24
-58.10
-57.26
-52.32
-43.53
-31.82
-18.49
-4.93
7.75
18.76
27.55
33.83
37.50
38.75
38.13
36.47
34.63
33.22
32.42
31.94
31.29
29.98
27.71
24.47
20.44
15.93
11.22
6.55
1.97
-2.67
-7.70
-13.46
-20.20
-27.82
-35.88
-43.55
-49.69
-53.11
-52.83
-48.38
-39.96
-28.47
-15.20
-1.52
11.49
23.09
32.83
40.37
45.45
47.90
47.91
46.13
43.46
40.84
38.83
37.49
36.38
34.92
32.62
29.31
25.17
20.65
16.17
12.07
8.40
5.02
1.57
-2.35
-7.11
-12.88
-19.63
-27.04
-34.43
-40.80
-44.97
-45.84
-42.76
-35.80
-25.76
-13.99
-1.92
9.33
19.09
27.12
33.37
37.79
40.30
40.92
39.91
37.84
35.47
33.50
32.27
31.66
31.14
30.03
27.85
24.50
20.33
15.91
11.75
8.07
4.73
1.38
-2.38
-6.80
-11.99
-17.96
-24.62
-31.75
-38.86
-45.10
-49.36
-50.52
-47.82
-41.18
-31.33
-19.56
-7.37
3.95
13.58
21.20
26.76
30.28
31.77
31.34
29.35
26.51
23.72
21.72
20.73
20.37
19.89
18.58
16.16
12.86
9.22
5.80
2.84
0.24
-2.34
-5.29
-8.97
-13.64
-19.45
-26.27
-33.63
-40.61
-45.95
-48.42
-47.16
-42.04
-33.66
-23.13
-11.73
-0.67
9.22
17.34
23.35
27.07
28.52
27.97
25.96
23.18
20.36
17.97
16.17
14.72
13.25
11.38
8.93
5.98
2.72
-0.64
-4.02
-7.51
-11.29
-15.57
-20.52
-26.27
-32.81
-39.94
-47.06
-53.20
-57.08
-57.55
-53.89
-46.23
-35.45
-22.93
-10.16
1.65
11.76
19.82
25.78
29.70
31.73
32.09
31.17
29.42
27.35
25.32
23.46
21.69
19.75
17.48
14.80
11.89
9.00
6.33
3.97
1.79
-0.51
-3.36
-7.19
-12.37
-18.94
-26.51
-34.17
-40.62
-44.50
-44.79
-41.14
-33.93
-24.11
-12.82
-1.22
9.74
19.40
27.22
32.89
36.33
37.69
37.38
35.97
34.07
32.15
30.47
28.96
27.38
25.39
22.82
19.70
16.30
12.92
9.79
6.93
4.15
1.18
-2.32
-6.71
-12.25
-19.01
-26.66
-34.35
-40.75
-44.41
-44.22
-39.78
-31.60
-20.85
-9.03
2.42
12.41
20.22
25.53
28.31
28.89
27.79
25.69
23.26
21.00
19.11
17.54
15.93
13.92
11.24
7.92
4.24
0.66
-2.44
-4.91
-6.91
-8.90
-11.46
-15.11
-20.19
-26.60
-33.71
-40.37
-45.11
-46.53
-43.77
-36.83
-26.63
-14.66
-2.55
8.33
17.07
23.21
26.64
27.56
26.39
23.84
20.73
17.81
15.54
14.00
12.93
11.89
10.45
8.35
5.54
2.20
-1.37
-4.88
-8.14
-11.26
-14.58
-18.55
-23.52
-29.43
-35.73
-41.44
-45.32
-46.28
-43.65
-37.41
-28.16
-17.00
-5.21
5.99
15.65
23.15
28.12
30.48
30.42
28.43
25.21
21.64
18.41
15.92
14.13
12.68
11.12
9.14
6.61
3.60
0.24
-3.30
-6.96
-10.67
-14.53
-18.76
-23.62
-29.22
-35.27
-40.93
-45.01
-46.32
-44.06
-38.17
-29.29
-18.50
-6.95
4.42
14.93
24.06
31.38
36.48
39.07
39.22
37.40
34.41
31.20
28.51
26.65
25.47
24.49
23.18
21.18
18.45
15.11
11.37
7.40
3.25
-1.17
-5.97
-11.33
-17.44
-24.30
-31.57
-38.40
-43.57
-45.78
-44.20
-38.69
-29.93
-19.14
-7.58
3.71
14.06
23.04
30.30
35.47
38.28
38.68
37.03
34.04
30.61
27.53
25.26
23.78
22.67
21.43
19.68
17.33
14.64
11.92
9.40
6.98
4.38
1.20
-2.88
-7.98
-14.09
-20.98
-28.23
-35.12
-40.67
-43.83
-43.77
-40.11
-33.15
-23.75
-13.07
-2.24
7.79
16.33
22.88
27.16
29.06
28.73
26.62
23.44
20.05
17.16
15.21
14.16
13.59
12.93
11.70
9.71
7.19
4.50
2.02
-0.14
-2.17
-4.44
-7.39
-11.32
-16.35
-22.31
-28.70
-34.69
-39.18
-41.09
-39.68
-34.78
-26.98
-17.33
-7.03
2.90
11.74
19.12
24.74
28.40
29.94
29.42
27.18
23.89
20.35
17.25
14.96
13.38
12.12
10.66
8.64
5.94
2.80
-0.46
-3.60
-6.60
-9.66
-13.15
-17.43
-22.73
-29.05
-36.07
-43.17
-49.41
-53.68
-54.96
-52.61
-46.62
-37.55
-26.42
-14.43
-2.59
8.25
17.54
24.87
29.98
32.81
33.53
32.59
30.70
28.57
26.74
25.45
24.55
23.67
22.39
20.41
17.71
14.49
11.06
7.70
4.49
1.31
-2.11
-6.08
-10.85
-16.57
-23.13
-30.10
-36.71
-41.88
-44.49
-43.70
-39.22
-31.48
-21.46
-10.38
0.71
11.06
20.33
28.26
34.61
39.02
41.22
41.22
39.41
36.60
33.67
31.29
29.63
28.49
27.34
25.73
23.45
20.58
17.39
14.12
10.84
7.50
3.92
-0.04
-4.49
-9.55
-15.31
-21.77
-28.70
-35.51
-41.27
-44.86
-45.33
-42.20
-35.64
-26.42
-15.69
-4.67
5.54
14.12
20.50
24.42
25.84
25.09
22.78
19.72
16.78
14.59
13.42
13.15
13.34
13.45
13.03
11.86
9.91
7.35
4.49
1.66
-0.89
-3.08
-5.15
-7.62
-11.16
-16.19
-22.62
-29.68
-36.06
-40.35
-41.52
-39.20
-33.81
-26.24
-17.59
-8.76
-0.50
6.66
12.28
16.01
17.67
17.37
15.57
13.02
10.50
8.61
7.51
7.00
6.59
5.84
4.47
2.53
0.23
-2.19
-4.63
-7.17
-10.03
-13.44
-17.54
-22.36
-27.88
-33.88
-40.00
-45.54
-49.58
-51.14
-49.48
-44.36
-36.19
-25.89
-14.60
-3.41
6.82
15.50
22.20
26.61
28.62
28.43
26.60
23.97
21.42
19.57
18.60
18.21
17.84
16.89
15.00
12.12
8.51
4.53
0.45
-3.58
-7.66
-11.99
-16.86
-22.52
-29.03
-36.18
-43.33
-49.45
-53.34
-53.93
-50.66
-43.70
-33.91
-22.51
-10.73
0.49
10.58
19.19
26.03
30.84
33.49
34.14
33.32
31.80
30.35
29.50
29.34
29.51
29.42
28.54
26.60
23.67
20.04
16.09
12.06
8.09
4.15
0.18
-3.92
-8.29
-13.14
-18.67
-24.85
-31.28
-37.03
-40.88
-41.63
-38.59
-31.82
-22.11
-10.75
0.93
11.86
21.36
29.03
34.69
38.20
39.52
38.85
36.68
33.70
30.73
28.37
26.84
25.91
25.09
23.80
21.69
18.69
15.00
10.99
7.02
3.30
-0.15
-3.49
-7.09
-11.31
-16.46
-22.54
-29.21
-35.67
-40.88
-43.69
-43.27
-39.32
-32.14
-22.63
-12.02
-1.54
7.81
15.34
20.78
24.04
25.22
24.59
22.62
19.90
17.16
14.95
13.51
12.69
11.98
10.82
8.86
6.12
2.95
-0.20
-3.02
-5.46
-7.74
-10.19
-13.21
-17.05
-21.86
-27.52
-33.60
-39.29
-43.55
-45.23
-43.55
-38.27
-29.89
-19.52
-8.56
1.66
10.15
16.43
20.41
22.28
22.39
21.11
18.84
16.08
13.30
10.92
9.09
7.66
6.21
4.25
1.47
-2.13
-6.28
-10.55
-14.68
-18.62
-22.66
-27.24
-32.70
-39.02
-45.66
-51.52
-55.28
-55.75
-52.41
-45.50
-35.96
-25.10
-14.12
-3.95
4.87
12.02
17.27
20.44
21.57
20.94
19.11
16.70
14.24
12.02
10.05
8.21
6.33
4.23
1.77
-1.20
-4.79
-9.02
-13.87
-19.30
-25.31
-31.93
-39.01
-46.06
-52.18
-56.16
-56.90
-53.71
-46.74
-36.85
-25.31
-13.48
-2.40
7.29
15.31
21.57
26.04
28.73
29.76
29.36
27.87
25.71
23.28
20.81
18.43
16.13
13.89
11.68
9.47
7.20
4.72
1.76
-2.00
-6.81
-12.77
-19.59
-26.57
-32.60
-36.44
-36.92
-33.44
-26.06
-15.55
-3.10
9.95
22.46
33.55
42.59
49.15
52.97
54.08
52.83
49.89
46.06
42.12
38.58
35.64
33.19
30.98
28.74
26.26
23.37
19.94
15.89
11.11
5.47
-1.13
-8.73
-17.14
-25.84
-33.98
-40.35
-43.71
-43.10
-38.12
-29.08
-17.04
-3.47
10.04
22.12
31.85
38.72
42.64
43.85
42.86
40.33
37.07
33.82
31.10
29.13
27.75
26.59
25.20
23.18
20.35
16.71
12.39
7.57
2.32
-3.43
-9.83
-16.96
-24.64
-32.16
-38.44
-42.12
-42.08
-37.76
-29.41
-18.02
-5.09
7.81
19.32
28.52
34.94
38.53
39.58
38.56
36.10
32.83
29.33
26.02
23.19
20.85
18.90
17.06
15.06
12.63
9.62
5.98
1.69
-3.32
-9.18
-16.01
-23.74
-31.93
-39.69
-45.75
-48.79
-47.85
-42.64
-33.68
-22.08
-9.27
3.48
15.14
25.06
32.81
38.12
40.86
41.14
39.39
36.29
32.62
29.02
25.80
22.90
20.06
17.06
13.81
10.47
7.21
4.11
0.95
-2.75
-7.56
-13.96
-22.02
-31.23
-40.48
-48.21
-52.79
-52.99
-48.32
-39.23
-26.94
-13.04
0.96
13.96
25.33
34.81
42.24
47.49
50.48
51.33
50.43
48.41
45.93
43.47
41.17
38.92
36.42
33.44
29.92
26.02
22.00
18.06
14.26
10.43
6.18
1.07
-5.28
-13.00
-21.71
-30.54
-38.17
-43.13
-44.19
-40.79
-33.15
-22.20
-9.31
4.18
17.11
28.68
38.38
45.89
50.93
53.38
53.30
51.05
47.30
42.96
38.86
35.61
33.28
31.48
29.54
26.85
23.13
18.51
13.47
8.51
3.95
-0.16
-4.05
-8.07
-12.58
-17.90
-24.22
-31.48
-39.16
-46.35
-51.75
-54.05
-52.33
-46.37
-36.74
-24.60
-11.35
1.70
13.54
23.51
31.17
36.29
38.80
38.86
36.93
33.79
30.32
27.36
25.37
24.32
23.70
22.81
21.08
18.33
14.84
11.12
7.60
4.38
1.18
-2.51
-7.07
-12.71
-19.31
-26.56
-34.02
-41.10
-47.02
-50.94
-52.03
-49.77
-44.21
-35.92
-25.88
-15.15
-4.68
4.87
13.00
19.42
23.91
26.42
27.10
26.37
24.75
22.80
20.93
19.35
18.06
16.87
15.56
13.94
11.91
9.43
6.57
3.40
0.00
-3.57
-7.32
-11.35
-15.80
-20.90
-26.83
-33.57
-40.77
-47.63
-53.07
-55.93
-55.42
-51.29
-43.96
-34.34
-23.47
-12.33
-1.59
8.31
17.01
24.17
29.41
32.48
33.41
32.60
30.70
28.45
26.46
24.99
23.88
22.79
21.32
19.23
16.53
13.37
9.96
6.44
2.82
-0.96
-4.92
-9.07
-13.38
-17.84
-22.59
-27.81
-33.64
-39.89
-45.95
-50.77
-53.20
-52.32
-47.84
-40.15
-30.21
-19.13
-7.94
2.64
12.10
20.11
26.32
30.56
32.78
33.24
32.42
30.89
29.16
27.56
26.19
24.97
23.73
22.27
20.42
18.07
15.23
11.94
8.34
4.56
0.76
-2.92
-6.42
-9.73
-12.98
-16.41
-20.37
-25.17
-30.88
-37.17
-43.25
-47.97
-50.11
-48.80
-43.79
-35.59
-25.34
-14.40
-4.00
5.05
12.38
17.92
21.68
23.72
24.16
23.31
21.67
19.84
18.29
17.23
16.52
15.80
14.71
13.06
10.91
8.45
5.89
3.37
0.89
-1.67
-4.46
-7.65
-11.34
-15.49
-20.02
-24.77
-29.62
-34.35
-38.64
-41.90
-43.38
-42.38
-38.52
-31.99
-23.54
-14.24
-5.12
3.05
9.94
15.40
19.39
21.87
22.81
22.29
20.67
18.45
16.21
14.39
13.18
12.48
12.02
11.46
10.50
8.99
6.88
4.25
1.18
-2.19
-5.75
-9.43
-13.18
-17.01
-21.05
-25.49
-30.52
-36.16
-42.14
-47.75
-52.02
-53.93
-52.77
-48.36
-41.15
-31.99
-21.97
-12.04
-2.86
5.14
11.78
16.92
20.46
22.37
22.72
21.75
19.92
17.76
15.84
14.50
13.80
13.43
12.87
11.64
9.49
6.53
3.08
-0.49
-3.92
-7.20
-10.49
-14.02
-17.98
-22.53
-27.76
-33.59
-39.68
-45.30
-49.37
-50.78
-48.78
-43.29
-34.98
-25.04
-14.68
-4.82
4.05
11.76
18.17
23.07
26.23
27.58
27.38
26.24
24.85
23.72
23.03
22.60
22.02
20.89
18.92
16.12
12.69
9.00
5.40
2.13
-0.83
-3.69
-6.82
-10.58
-15.17
-20.57
-26.55
-32.58
-37.98
-41.91
-43.53
-42.25
-37.90
-30.85
-21.89
-12.07
-2.35
6.46
13.87
19.60
23.50
25.58
26.05
25.31
23.92
22.47
21.41
20.91
20.82
20.76
20.27
18.99
16.80
13.86
10.50
7.07
3.74
0.47
-3.00
-6.97
-11.65
-17.04
-22.86
-28.56
-33.37
-36.47
-37.13
-34.94
-29.96
-22.74
-14.12
-5.04
3.69
11.47
17.88
22.64
25.60
26.80
26.53
25.30
23.69
22.20
20.99
19.93
18.66
16.73
13.87
10.07
5.64
1.04
-3.21
-6.78
-9.63
-12.00
-14.32
-17.07
-20.61
-25.02
-30.09
-35.23
-39.59
-42.19
-42.21
-39.21
-33.31
-25.15
-15.69
-5.94
3.26
11.33
17.95
22.91
26.13
27.68
27.81
26.98
25.74
24.55
23.60
22.80
21.82
20.35
18.21
15.50
12.56
9.78
7.44
5.54
3.86
1.98
-0.57
-4.09
-8.69
-14.13
-19.87
-25.09
-28.84
-30.27
-28.82
-24.43
-17.50
-8.80
0.78
10.36
19.25
26.86
32.75
36.62
38.33
38.09
36.38
33.88
31.26
29.02
27.29
25.92
24.59
22.99
20.95
18.46
15.62
12.60
9.54
6.53
3.53
0.41
-3.06
-7.09
-11.75
-16.84
-21.82
-25.87
-28.13
-27.93
-25.07
-19.88
-13.07
-5.53
1.91
8.64
14.29
18.57
21.28
22.31
21.78
20.10
17.91
15.87
14.44
13.69
13.31
12.86
11.96
10.49
8.54
6.35
4.14
1.98
-0.14
-2.34
-4.79
-7.73
-11.39
-15.80
-20.75
-25.56
-29.30
-30.99
-29.99
-26.26
-20.35
-13.25
-5.96
0.68
6.17
10.30
13.00
14.30
14.38
13.52
12.15
10.73
9.54
8.65
7.85
6.84
5.36
3.35
0.98
-1.48
-3.79
-5.89
-7.88
-9.96
-12.39
-15.34
-18.90
-23.00
-27.34
-31.43
-34.53
-35.86
-34.83
-31.26
-25.49
-18.24
-10.45
-2.91
3.78
9.29
13.43
16.07
17.24
17.11
16.12
14.81
13.71
13.06
12.78
12.49
11.73
10.17
7.80
4.92
2.01
-0.53
-2.53
-4.16
-5.83
-8.00
-11.00
-14.89
-19.46
-24.20
-28.42
-31.36
-32.31
-30.82
-26.80
-20.60
-12.92
-4.66
3.31
10.27
15.73
19.43
21.34
21.70
20.96
19.71
18.54
17.85
17.71
17.93
18.15
17.94
17.00
15.13
12.39
9.00
5.35
1.83
-1.26
-3.89
-6.33
-9.04
-12.48
-16.89
-22.09
-27.44
-32.02
-34.77
-34.90
-32.13
-26.79
-19.69
-11.83
-4.12
2.85
8.80
13.62
17.20
19.40
20.15
19.57
18.11
16.41
15.09
14.43
14.35
14.38
13.99
12.82
10.85
8.32
5.60
3.00
0.55
-1.91
-4.65
-7.91
-11.81
-16.29
-21.17
-26.05
-30.41
-33.56
-34.76
-33.49
-29.57
-23.36
-15.65
-7.44
0.32
6.93
12.03
15.49
17.35
17.77
17.01
15.51
13.76
12.21
11.12
10.45
9.89
9.01
7.47
5.17
2.29
-0.80
-3.72
-6.28
-8.55
-10.84
-13.57
-17.13
-21.75
-27.34
-33.45
-39.29
-43.84
-46.10
-45.42
-41.67
-35.32
-27.25
-18.42
-9.65
-1.54
5.55
11.32
15.56
18.14
19.24
19.33
19.01
18.84
18.99
19.29
19.36
18.81
17.42
15.27
12.56
9.54
6.37
3.17
0.00
-3.15
-6.37
-9.88
-13.90
-18.55
-23.65
-28.66
-32.74
-35.02
-34.81
-31.78
-26.08
-18.26
-9.13
0.41
9.52
17.59
24.25
29.35
32.92
35.06
35.97
35.92
35.25
34.29
33.26
32.20
30.97
29.31
27.00
24.00
20.43
16.59
12.76
9.13
5.79
2.65
-0.53
-4.10
-8.46
-13.85
-20.12
-26.62
-32.27
-35.80
-36.16
-32.91
-26.41
-17.66
-7.99
1.37
9.60
16.33
21.53
25.29
27.66
28.66
28.36
26.97
24.82
22.26
19.52
16.77
14.23
12.31
11.59
12.64
15.63
20.15
25.08
29.04
30.73
29.45
25.22
18.70
10.90
2.87
-4.45
-10.25
-13.84
-14.77
-12.90
-8.54
-2.44
4.35
10.79
16.08
19.87
22.16
23.19
23.24
22.52
21.17
19.32
17.14
14.85
12.62
10.58
8.70
6.91
5.12
3.26
1.30
-0.80
-3.11
-5.72
-8.78
-12.41
-16.63
-21.34
-26.24
-30.80
-34.32
-36.03
-35.28
-31.78
-25.70
-17.77
-9.10
-0.93
5.66
10.13
12.40
12.95
12.46
11.60
10.81
10.31
10.08
9.98
9.81
9.30
8.27
6.61
4.35
1.72
-1.02
-3.63
-6.10
-8.60
-11.43
-14.88
-19.04
-23.73
-28.35
-32.07
-33.88
-32.98
-29.03
-22.36
-13.98
-5.23
2.59
8.64
12.63
14.77
15.48
15.22
14.30
12.98
11.46
9.93
8.52
7.26
6.06
4.78
3.29
1.56
-0.34
-2.31
-4.28
-6.33
-8.69
-11.65
-15.39
-19.82
-24.46
-28.54
-31.15
-31.56
-29.39
-24.75
-18.22
-10.60
-2.76
4.53
10.68
15.36
18.43
19.95
20.17
19.39
18.02
16.39
14.76
13.27
11.94
10.71
9.46
8.09
6.54
4.81
2.91
0.87
-1.39
-3.99
-7.07
-10.68
-14.67
-18.72
-22.27
-24.70
-25.41
-23.98
-20.35
-14.81
-7.98
-0.66
6.31
12.29
16.88
19.94
21.52
21.79
21.03
19.57
17.81
16.14
14.81
13.87
13.14
12.36
11.26
9.75
7.91
5.94
4.00
2.11
0.10
-2.33
-5.43
-9.27
-13.60
-17.85
-21.18
-22.82
-22.23
-19.33
-14.49
-8.42
-2.05
3.78
8.43
11.62
13.31
13.74
13.30
12.41
11.43
10.64
10.19
10.03
9.96
9.66
8.87
7.42
5.41
3.16
1.07
-0.60
-1.87
-3.03
-4.56
-6.80
-9.89
-13.54
-17.19
-20.08
-21.49
-20.93
-18.27
-13.89
-8.52
-3.13
1.34
4.21
5.18
4.46
2.79
1.21
0.81
2.37
6.10
11.50
17.47
22.74
26.25
27.55
26.75
24.35
20.92
16.90
12.52
7.89
3.13
-1.55
-5.79
-9.26
-11.66
-12.86
-12.94
-12.07
-10.52
-8.55
-6.30
-3.82
-1.09
1.89
4.88
7.50
9.27
9.91
9.50
8.49
7.48
6.94
6.90
7.03
6.77
5.79
4.05
1.92
-0.20
-2.06
-3.74
-5.52
-7.74
-10.56
-13.86
-17.35
-20.50
-22.79
-23.75
-23.05
-20.64
-16.77
-11.94
-6.79
-1.93
2.24
5.50
7.81
9.17
9.68
9.52
8.99
8.45
8.22
8.43
8.98
9.55
9.76
9.33
8.19
6.50
4.55
2.57
0.63
-1.36
-3.61
-6.26
-9.28
-12.41
-15.19
-17.08
-17.67
-16.70
-14.20
-10.42
-5.83
-0.94
3.69
7.58
10.44
12.12
12.69
12.41
11.68
10.93
10.50
10.59
11.14
11.96
12.73
13.22
13.25
12.73
11.65
9.93
7.58
4.64
1.26
-2.36
-6.00
-9.50
-12.72
-15.57
-17.89
-19.43
-19.89
-19.01
-16.69
-13.08
-8.64
-3.99
0.19
3.40
5.37
6.13
5.94
5.26
4.51
4.03
3.97
4.25
4.65
4.93
4.89
4.46
3.67
2.55
1.13
-0.58
-2.53
-4.57
-6.44
-7.92
-8.95
-9.65
-10.25
-10.94
-11.62
-11.98
-11.60
-10.16
-7.63
-4.35
-0.88
2.20
4.47
5.81
6.33
6.28
5.90
5.29
4.45
3.39
2.17
0.95
-0.06
-0.69
-0.95
-0.97
-1.01
-1.26
-1.81
-2.60
-3.57
-4.71
-6.13
-7.96
-10.30
-13.06
-15.97
-18.60
-20.45
-21.14
-20.39
-18.20
-14.78
-10.56
-6.07
-1.79
1.93
4.93
7.14
8.57
9.25
9.24
8.71
7.96
7.34
7.12
7.35
7.78
8.03
7.76
6.81
5.29
3.45
1.51
-0.49
-2.68
-5.34
-8.61
-12.46
-16.54
-20.24
-22.94
-24.11
-23.54
-21.26
-17.57
-12.89
-7.73
-2.58
2.09
5.94
8.81
10.77
11.99
12.67
12.91
12.73
12.12
11.11
9.86
8.52
7.21
5.97
4.75
3.54
2.41
1.44
0.68
0.07
-0.57
-1.54
-3.16
-5.64
-9.02
-12.97
-16.88
-19.88
-21.18
-20.32
-17.35
-12.75
-7.25
-1.61
3.59
7.93
11.20
13.28
14.20
14.20
13.68
13.09
12.73
12.65
12.67
12.49
11.84
10.61
8.87
6.81
4.69
2.74
1.10
-0.19
-1.27
-2.40
-3.88
-6.00
-8.89
-12.47
-16.34
-19.90
-22.45
-23.38
-22.35
-19.44
-15.14
-10.19
-5.38
-1.32
1.63
3.47
4.35
4.52
4.22
3.65
3.02
2.46
2.03
1.67
1.24
0.60
-0.36
-1.57
-2.87
-4.10
-5.14
-6.06
-7.04
-8.34
-10.23
-12.82
-16.01
-19.45
-22.52
-24.51
-24.74
-22.81
-18.77
-13.05
-6.51
-0.04
5.50
9.57
12.01
12.94
12.72
11.78
10.47
9.03
7.57
6.12
4.70
3.35
2.10
0.90
-0.33
-1.73
-3.38
-5.27
-7.34
-9.56
-12.01
-14.83
-18.16
-21.96
-25.86
-29.19
-31.15
-31.09
-28.79
-24.51
-18.90
-12.72
-6.65
-1.15
3.55
7.28
9.96
11.59
12.24
12.09
11.39
10.34
9.03
7.51
5.82
4.06
2.39
0.87
-0.50
-1.91
-3.61
-5.89
-8.98
-13.04
-18.01
-23.57
-29.05
-33.49
-35.84
-35.30
-31.64
-25.38
-17.55
-9.32
-1.70
4.73
9.79
13.53
16.04
17.43
17.82
17.44
16.60
15.63
14.78
14.10
13.47
12.64
11.42
9.72
7.56
5.10
2.46
-0.32
-3.32
-6.70
-10.56
-14.82
-19.00
-22.30
-23.82
-22.84
-19.09
-12.94
-5.21
3.04
10.85
17.56
22.80
26.45
28.45
28.90
27.97
26.08
23.81
21.76
20.33
19.53
19.07
18.44
17.21
15.19
12.50
9.41
6.17
2.81
-0.86
-5.16
-10.25
-15.91
-21.52
-26.09
-28.61
-28.34
-25.04
-19.10
-11.28
-2.60
5.95
13.50
19.44
23.44
25.47
25.83
25.02
23.61
22.00
20.40
18.78
17.08
15.31
13.58
12.07
10.80
9.58
8.04
5.65
1.98
-3.20
-9.78
-17.30
-24.82
-31.01
-34.38
-33.75
-28.71
-19.85
-8.71
2.82
13.01
20.85
26.05
28.90
29.86
29.37
27.79
25.47
22.84
20.29
18.11
16.31
14.68
12.89
10.70
8.08
5.13
2.04
-1.05
-4.19
-7.59
-11.50
-15.97
-20.68
-24.85
-27.43
-27.42
-24.29
-18.19
-9.96
-0.89
7.78
15.04
20.41
23.81
25.46
25.65
24.69
22.84
20.36
17.55
14.75
12.25
10.14
8.35
6.61
4.62
2.16
-0.86
-4.48
-8.74
-13.73
-19.38
-25.31
-30.73
-34.48
-35.40
-32.75
-26.47
-17.24
-6.24
5.12
15.60
24.30
30.74
34.79
36.66
36.73
35.51
33.48
31.08
28.61
26.20
23.88
21.60
19.27
16.79
14.10
11.24
8.18
4.86
1.03
-3.57
-9.14
-15.49
-21.93
-27.29
-30.26
-29.75
-25.38
-17.60
-7.49
3.56
14.22
23.49
30.78
35.82
38.58
39.25
38.19
35.90
33.02
30.10
27.54
25.50
23.91
22.51
21.04
19.24
17.02
14.39
11.46
8.27
4.78
0.81
-3.81
-9.05
-14.56
-19.64
-23.35
-24.77
-23.28
-18.76
-11.64
-2.74
6.91
16.34
24.76
31.61
36.56
39.49
40.52
39.95
38.26
35.98
33.61
31.40
29.38
27.38
25.20
22.75
20.07
17.32
14.60
11.95
9.22
6.19
2.67
-1.50
-6.32
-11.69
-17.30
-22.68
-27.21
-30.20
-31.07
-29.47
-25.44
-19.41
-12.12
-4.35
3.14
9.82
15.27
19.28
21.71
22.59
22.13
20.74
18.94
17.20
15.81
14.80
14.03
13.26
12.33
11.18
9.84
8.35
6.74
4.96
2.90
0.41
-2.67
-6.47
-10.94
-15.74
-20.26
-23.69
-25.26
-24.46
-21.29
-16.20
-9.97
-3.37
2.92
8.48
13.05
16.49
18.70
19.68
19.58
18.75
17.54
16.30
15.14
13.98
12.57
10.73
8.42
5.82
3.20
0.80
-1.30
-3.24
-5.30
-7.81
-11.03
-15.06
-19.80
-24.94
-29.86
-33.80
-35.96
-35.78
-33.04
-28.10
-21.68
-14.66
-7.87
-1.79
3.40
7.75
11.34
14.25
16.45
17.89
18.58
18.64
18.21
17.41
16.27
14.73
12.76
10.38
7.74
5.08
2.59
0.27
-2.03
-4.61
-7.70
-11.42
-15.62
-20.04
-24.29
-28.00
-30.76
-32.17
-31.93
-29.88
-26.13
-21.09
-15.31
-9.37
-3.68
1.52
6.15
10.12
13.26
15.41
16.47
16.57
16.00
15.13
14.22
13.36
12.41
11.16
9.44
7.23
4.69
2.09
-0.29
-2.32
-4.06
-5.75
-7.66
-10.04
-13.00
-16.48
-20.28
-24.02
-27.21
-29.26
-29.63
-27.97
-24.34
-19.14
-13.07
-6.86
-1.06
4.05
8.37
11.91
14.66
16.63
17.85
18.42
18.49
18.18
17.55
16.65
15.52
14.29
13.02
11.74
10.37
8.80
6.98
4.92
2.75
0.58
-1.62
-3.97
-6.78
-10.32
-14.65
-19.53
-24.34
-28.24
-30.43
-30.44
-28.31
-24.52
-19.79
-14.79
-9.95
-5.44
-1.37
2.10
4.72
6.31
6.94
6.92
6.69
6.58
6.64
6.71
6.52
5.95
5.08
4.08
3.14
2.33
1.63
1.00
0.39
-0.19
-0.81
-1.67
-3.00
-4.97
-7.58
-10.57
-13.47
-15.66
-16.61
-15.99
-13.83
-10.48
-6.50
-2.49
1.13
4.12
6.36
7.81
8.44
8.31
7.61
6.67
5.83
5.29
5.02
4.78
4.25
3.25
1.79
0.02
-1.85
-3.63
-5.16
-6.35
-7.23
-7.94
-8.80
-10.22
-12.54
-15.87
-20.00
-24.32
-28.06
-30.39
-30.73
-28.87
-25.12
-20.09
-14.59
-9.31
-4.74
-1.01
1.94
4.27
6.14
7.64
8.85
9.83
10.59
11.13
11.37
11.25
10.67
9.60
8.07
6.17
4.08
2.02
0.22
-1.21
-2.28
-3.24
-4.43
-6.27
-8.99
-12.57
-16.71
-20.77
-24.06
-25.86
-25.68
-23.41
-19.34
-14.03
-8.21
-2.48
2.70
7.13
10.70
13.39
15.23
16.32
16.87
17.11
17.22
17.29
17.20
16.74
15.76
14.20
12.18
9.91
7.65
5.59
3.88
2.52
1.39
0.21
-1.37
-3.62
-6.70
-10.50
-14.69
-18.70
-21.93
-23.79
-23.89
-22.13
-18.69
-14.05
-8.80
-3.55
1.17
5.03
7.84
9.56
10.28
10.24
9.73
9.03
8.35
7.76
7.19
6.54
5.75
4.76
3.61
2.33
1.02
-0.23
-1.33
-2.25
-3.10
-4.08
-5.48
-7.55
-10.39
-13.86
-17.64
-21.17
-23.85
-25.06
-24.39
-21.76
-17.46
-12.14
-6.59
-1.55
2.50
5.36
7.08
7.80
7.69
7.00
6.02
5.09
4.43
4.08
3.85
3.37
2.35
0.67
-1.52
-3.89
-6.11
-7.98
-9.49
-10.80
-12.23
-14.06
-16.53
-19.65
-23.20
-26.63
-29.23
-30.23
-29.14
-25.84
-20.66
-14.29
-7.63
-1.47
3.62
7.36
9.76
10.90
11.01
10.31
9.08
7.71
6.51
5.67
5.18
4.79
4.16
2.97
1.12
-1.29
-3.99
-6.67
-9.11
-11.28
-13.32
-15.54
-18.24
-21.52
-25.23
-28.80
-31.42
-32.31
-30.94
-27.22
-21.57
-14.68
-7.32
-0.17
6.24
11.55
15.51
18.01
19.09
19.01
18.18
17.05
15.99
15.22
14.73
14.31
13.66
12.49
10.65
8.16
5.25
2.15
-0.96
-4.10
-7.39
-10.93
-14.67
-18.37
-21.57
-23.84
-24.82
-24.20
-21.77
-17.31
-10.74
-2.27
7.45
17.40
26.36
33.29
37.62
39.35
38.93
37.06
34.44
31.56
28.72
26.02
23.47
21.11
18.95
16.97
15.02
12.87
10.17
6.61
2.06
-3.32
-9.08
-14.60
-19.15
-22.08
-22.92
-21.49
-17.99
-12.98
-7.23
-1.53
3.46
7.40
10.19
11.91
12.69
12.71
12.14
11.24
10.25
9.35
8.58
7.85
7.01
5.92
4.60
3.13
1.61
0.02
-1.78
-4.07
-7.15
-11.16
-15.92
-20.90
-25.22
-27.91
-28.24
-25.89
-21.13
-14.63
-7.24
0.18
6.94
12.55
16.66
19.12
19.97
19.51
18.19
16.53
14.91
13.53
12.36
11.28
10.09
8.66
6.88
4.71
2.12
-0.87
-4.25
-7.95
-11.91
-15.93
-19.64
-22.54
-24.10
-23.95
-22.00
-18.46
-13.69
-8.08
-1.97
4.32
10.38
15.71
19.76
22.21
23.02
22.51
21.17
19.50
17.81
16.24
14.76
13.32
11.81
10.17
8.29
6.11
3.62
0.92
-1.93
-4.83
-7.83
-10.88
-13.85
-16.35
-17.82
-17.66
-15.38
-10.90
-4.58
2.87
10.51
17.38
22.77
26.26
27.79
27.66
26.37
24.53
22.69
21.18
20.10
19.34
18.65
17.73
16.36
14.46
12.01
9.13
5.93
2.49
-1.20
-5.17
-9.43
-13.80
-17.94
-21.29
-23.26
-23.40
-21.49
-17.66
-12.28
-5.93
0.75
7.01
12.18
15.69
17.28
17.09
15.67
13.79
12.15
11.16
10.81
10.81
10.77
10.34
9.39
7.93
6.05
3.83
1.27
-1.66
-5.00
-8.78
-12.91
-17.08
-20.79
-23.44
-24.51
-23.68
-20.96
-16.68
-11.33
-5.51
0.22
5.40
9.60
12.55
14.15
14.52
13.97
12.83
11.43
9.94
8.46
6.96
5.48
4.04
2.68
1.40
0.14
-1.24
-2.96
-5.17
-8.01
-11.45
-15.34
-19.41
-23.19
-26.16
-27.72
-27.37
-24.83
-20.17
-13.91
-6.86
-0.05
5.69
9.82
12.26
13.27
13.35
12.96
12.43
11.87
11.23
10.38
9.20
7.65
5.78
3.75
1.67
-0.35
-2.36
-4.53
-7.06
-10.08
-13.57
-17.30
-20.92
-23.97
-26.00
-26.62
-25.62
-22.95
-18.67
-13.06
-6.55
0.24
6.55
11.74
15.40
17.48
18.30
18.36
18.12
17.82
17.43
16.75
15.54
13.68
11.24
8.44
5.58
2.93
0.61
-1.47
-3.60
-6.14
-9.42
-13.46
-17.98
-22.45
-26.19
-28.56
-29.10
-27.52
-23.79
-18.13
-11.07
-3.33
4.20
10.71
15.68
18.86
20.40
20.61
19.96
18.84
17.59
16.44
15.42
14.47
13.40
12.01
10.20
8.00
5.51
2.85
0.10
-2.71
-5.65
-8.76
-12.09
-15.60
-19.13
-22.35
-24.77
-25.79
-24.90
-21.84
-16.73
-10.12
-2.85
4.14
10.09
14.53
17.37
18.77
19.08
18.59
17.54
16.09
14.35
12.48
10.66
9.01
7.57
6.21
4.75
3.02
1.01
-1.17
-3.40
-5.64
-8.04
-10.87
-14.39
-18.66
-23.38
-27.92
-31.39
-32.92
-31.89
-28.10
-21.87
-13.93
-5.28
3.02
10.10
15.40
18.72
20.17
20.16
19.24
18.00
16.87
16.09
15.62
15.16
14.36
12.95
10.87
8.35
5.71
3.26
1.13
-0.76
-2.73
-5.15
-8.41
-12.77
-18.16
-24.19
-30.07
-34.78
-37.30
-36.93
-33.50
-27.44
-19.64
-11.15
-2.82
4.77
11.38
16.86
21.09
23.97
25.43
25.65
24.96
23.89
22.85
22.02
21.24
20.17
18.49
16.14
13.35
10.49
7.92
5.76
3.88
1.92
-0.50
-3.63
-7.47
-11.80
-16.21
-20.18
-23.17
-24.71
-24.39
-22.01
-17.60
-11.52
-4.38
3.03
9.95
15.76
20.11
22.92
24.35
24.72
24.40
23.76
23.09
22.55
22.17
21.82
21.26
20.29
18.78
16.75
14.38
11.94
9.70
7.74
5.98
4.09
1.67
-1.58
-5.72
-10.35
-14.75
-17.97
-19.18
-17.94
-14.41
-9.27
-3.54
1.83
6.19
9.27
11.09
11.80
11.55
10.53
8.92
7.06
5.28
3.87
2.95
2.53
2.49
2.71
3.06
3.43
3.65
3.56
3.02
1.94
0.28
-1.92
-4.65
-7.88
-11.46
-15.13
-18.42
-20.77
-21.64
-20.72
-17.98
-13.78
-8.78
-3.68
0.90
4.66
7.63
10.05
12.13
13.94
15.31
16.02
15.91
15.04
13.65
12.07
10.48
8.92
7.28
5.48
3.54
1.61
-0.16
-1.74
-3.33
-5.25
-7.80
-11.05
-14.73
-18.21
-20.78
-21.81
-21.02
-18.52
-14.76
-10.24
-5.48
-0.86
3.28
6.68
9.08
10.36
10.62
10.18
9.56
9.19
9.27
9.64
9.85
9.38
7.97
5.74
3.16
0.86
-0.80
-1.79
-2.53
-3.59
-5.46
-8.24
-11.70
-15.31
-18.49
-20.76
-21.77
-21.32
-19.37
-16.06
-11.65
-6.56
-1.29
3.66
7.85
10.93
12.78
13.52
13.53
13.41
13.69
14.68
16.26
17.94
19.08
19.24
18.32
16.58
14.49
12.48
10.76
9.40
8.25
7.14
5.79
3.94
1.39
-1.93
-5.80
-9.71
-12.96
-14.95
-15.31
-14.07
-11.56
-8.34
-4.97
-1.93
0.45
2.03
2.89
3.20
3.23
3.21
3.29
3.50
3.77
4.00
4.06
3.86
3.34
2.47
1.30
-0.09
-1.56
-2.95
-4.20
-5.34
-6.53
-7.98
-9.85
-12.11
-14.52
-16.63
-17.91
-17.97
-16.68
-14.20
-11.00
-7.60
-4.52
-2.11
-0.59
0.01
-0.20
-1.02
-2.13
-3.27
-4.21
-4.85
-5.17
-5.23
-5.11
-4.87
-4.62
-4.51
-4.71
-5.34
-6.42
-7.86
-9.54
-11.37
-13.33
-15.40
-17.41
-19.00
-19.67
-18.95
-16.65
-12.96
-8.41
-3.73
0.50
3.92
6.43
8.09
8.98
9.16
8.70
7.68
6.32
4.85
3.47
2.28
1.29
0.39
-0.53
-1.56
-2.77
-4.20
-5.88
-7.87
-10.25
-13.09
-16.40
-20.01
-23.52
-26.34
-27.87
-27.74
-25.93
-22.76
-18.74
-14.36
-9.96
-5.78
-2.03
1.02
3.10
4.02
3.85
2.82
1.35
-0.22
-1.68
-3.05
-4.47
-6.09
-8.00
-10.15
-12.35
-14.41
-16.17
-17.68
-19.16
-20.92
-23.12
-25.65
-28.05
-29.66
-29.85
-28.25
-24.83
-19.95
-14.16
-8.06
-2.22
2.96
7.21
10.39
12.51
13.69
14.13
14.01
13.53
12.74
11.67
10.26
8.48
6.36
4.04
1.76
-0.25
-1.86
-3.17
-4.47
-6.17
-8.62
-11.91
-15.78
-19.65
-22.72
-24.20
-23.55
-20.57
-15.51
-9.00
-1.83
5.16
11.28
16.05
19.15
20.47
20.18
18.69
16.64
14.74
13.56
13.28
13.74
14.48
14.98
14.77
13.58
11.34
8.21
4.48
0.49
-3.48
-7.38
-11.32
-15.42
-19.59
-23.30
-25.71
-25.99
-23.68
-18.91
-12.35
-4.89
2.59
9.40
15.05
19.23
21.72
22.59
22.09
20.68
18.81
16.82
14.83
12.81
10.67
8.42
6.15
3.99
2.04
0.30
-1.40
-3.40
-6.13
-9.91
-14.72
-20.09
-25.12
-28.71
-29.94
-28.29
-23.81
-17.02
-8.87
-0.44
7.20
13.21
17.14
19.04
19.35
18.78
17.94
17.15
16.39
15.46
14.14
12.37
10.25
7.93
5.55
3.15
0.77
-1.62
-4.07
-6.72
-9.86
-13.75
-18.52
-23.94
-29.26
-33.39
-35.10
-33.55
-28.56
-20.72
-11.23
-1.47
7.37
14.54
19.70
22.77
23.88
23.27
21.41
18.97
16.65
14.96
13.97
13.35
12.56
11.16
9.05
6.36
3.39
0.37
-2.69
-6.00
-9.85
-14.44
-19.71
-25.22
-30.12
-33.34
-33.83
-31.07
-25.19
-17.03
-7.74
1.63
10.43
18.39
25.40
31.23
35.52
37.90
38.36
37.25
35.27
33.10
31.12
29.29
27.26
24.75
21.66
18.28
15.01
12.18
9.84
7.61
4.85
0.96
-4.28
-10.56
-17.02
-22.50
-25.87
-26.40
-23.82
-18.43
-10.86
-1.97
7.36
16.33
24.25
30.61
35.09
37.57
38.13
37.04
34.82
32.07
29.50
27.57
26.42
25.80
25.15
23.88
21.63
18.44
14.69
10.89
7.42
4.27
1.14
-2.49
-7.02
-12.47
-18.41
-24.00
-28.24
-30.26
-29.54
-25.99
-19.95
-12.07
-3.20
5.71
13.73
20.09
24.33
26.38
26.57
25.50
23.86
22.24
20.94
19.98
19.22
18.35
17.08
15.23
12.80
9.97
7.05
4.26
1.64
-1.01
-4.04
-7.76
-12.28
-17.40
-22.65
-27.38
-30.80
-32.15
-30.82
-26.54
-19.57
-10.66
-0.96
8.24
15.87
21.23
24.13
24.80
23.77
21.71
19.38
17.34
15.87
14.91
14.11
13.17
11.90
10.29
8.44
6.38
4.01
1.13
-2.41
-6.58
-11.23
-16.14
-21.11
-26.00
-30.61
-34.57
-37.28
-37.96
-35.91
-30.79
-22.81
-12.81
-2.08
7.93
16.09
21.74
24.83
25.71
24.92
22.99
20.47
17.85
15.60
14.03
13.18
12.75
12.27
11.33
9.69
7.40
4.61
1.48
-1.88
-5.48
-9.40
-13.71
-18.48
-23.57
-28.61
-32.90
-35.53
-35.64
-32.81
-27.12
-19.24
-10.12
-0.77
8.00
15.62
21.71
26.07
28.58
29.39
28.77
27.22
25.25
23.31
21.66
20.32
19.10
17.69
15.87
13.64
11.18
8.72
6.36
3.99
1.33
-1.94
-5.99
-10.83
-16.27
-21.92
-27.16
-31.21
-33.24
-32.60
-29.07
-22.98
-15.17
-6.71
1.49
8.87
15.24
20.59
24.83
27.80
29.29
29.25
27.89
25.63
23.03
20.60
18.57
16.94
15.52
14.06
12.44
10.69
8.96
7.35
5.75
3.85
1.23
-2.43
-7.18
-12.71
-18.41
-23.51
-27.30
-29.16
-28.63
-25.50
-19.94
-12.60
-4.46
3.36
9.92
14.72
17.72
19.20
19.54
19.09
18.02
16.54
14.78
12.88
10.98
9.15
7.40
5.72
4.12
2.63
1.31
0.22
-0.62
-1.31
-2.13
-3.62
-6.33
-10.58
-16.15
-22.14
-27.16
-29.82
-29.22
-25.32
-18.91
-11.21
-3.45
3.50
9.26
13.83
17.26
19.58
20.73
20.65
19.45
17.42
14.97
12.43
9.94
7.38
4.59
1.54
-1.57
-4.30
-6.19
-7.04
-7.04
-6.77
-7.04
-8.62
-11.97
-17.05
-23.22
-29.40
-34.30
-36.84
-36.48
-33.34
-28.01
-21.37
-14.27
-7.38
-1.21
3.86
7.53
9.67
10.38
10.02
9.09
8.02
7.05
6.20
5.33
4.32
3.10
1.69
0.12
-1.60
-3.50
-5.54
-7.71
-10.01
-12.49
-15.28
-18.43
-21.80
-25.02
-27.48
-28.55
-27.78
-24.99
-20.31
-14.09
-6.88
0.65
7.77
13.78
18.15
20.54
21.04
20.07
18.33
16.51
15.16
14.49
14.36
14.36
13.94
12.62
10.20
6.77
2.69
-1.52
-5.38
-8.64
-11.28
-13.58
-15.92
-18.56
-21.46
-24.21
-26.18
-26.80
-25.68
-22.74
-18.14
-12.13
-5.07
2.61
10.26
17.12
22.37
25.49
26.37
25.38
23.23
20.69
18.39
16.66
15.57
14.94
14.55
14.18
13.64
12.79
11.51
9.66
7.16
4.02
0.34
-3.68
-7.78
-11.72
-15.32
-18.44
-20.83
-22.06
-21.61
-19.08
-14.43
-8.11
-0.98
5.90
11.61
15.58
17.66
18.11
17.49
16.53
15.95
16.22
17.52
19.54
21.67
23.18
23.44
22.20
19.52
15.74
11.30
6.58
1.88
-2.65
-7.03
-11.34
-15.60
-19.82
-23.76
-27.09
-29.35
-30.16
-29.22
-26.47
-22.08
-16.54
-10.56
-4.99
-0.62
2.05
2.99
2.61
1.64
0.75
0.32
0.36
0.56
0.56
0.11
-0.82
-2.05
-3.38
-4.71
-6.05
-7.47
-8.97
-10.58
-12.33
-14.39
-17.03
-20.40
-24.36
-28.24
-31.07
-31.81
-29.88
-25.36
-19.04
-12.06
-5.53
-0.13
3.92
6.77
8.65
9.74
10.15
9.98
9.39
8.52
7.39
5.92
3.95
1.45
-1.41
-4.25
-6.71
-8.54
-9.78
-10.77
-11.95
-13.81
-16.71
-20.69
-25.42
-30.12
-33.75
-35.25
-33.95
-29.80
-23.42
-15.80
-8.01
-0.86
5.15
9.73
12.74
14.11
14.01
12.81
11.10
9.47
8.26
7.54
7.00
6.21
4.81
2.64
-0.21
-3.48
-6.87
-10.22
-13.49
-16.75
-20.15
-23.70
-27.22
-30.30
-32.32
-32.72
-31.08
-27.36
-21.83
-15.04
-7.70
-0.52
5.84
10.89
14.33
16.13
16.53
15.96
14.92
13.81
12.79
11.83
10.76
9.43
7.80
5.86
3.69
1.33
-1.19
-3.92
-6.91
-10.28
-14.15
-18.53
-23.23
-27.70
-31.11
-32.55
-31.30
-27.15
-20.49
-12.20
-3.34
5.11
12.43
18.15
22.07
24.16
24.60
23.79
22.27
20.64
19.35
18.59
18.25
18.05
17.68
16.92
15.76
14.21
12.36
10.19
7.58
4.39
0.50
-4.07
-9.14
-14.35
-19.19
-23.06
-25.36
-25.52
-23.17
-18.25
-11.10
-2.42
6.84
15.69
23.32
29.17
32.98
34.77
34.80
33.52
31.49
29.27
27.30
25.76
24.60
23.60
22.47
21.04
19.18
16.93
14.34
11.49
8.44
5.22
1.77
-2.07
-6.45
-11.36
-16.51
-21.29
-24.86
-26.45
-25.58
-22.24
-16.81
-9.92
-2.31
5.32
12.33
18.16
22.34
24.63
25.06
23.97
21.98
19.76
17.85
16.51
15.73
15.26
14.81
14.13
13.05
11.52
9.56
7.26
4.71
1.95
-1.04
-4.41
-8.32
-12.83
-17.70
-22.39
-26.03
-27.78
-26.99
-23.52
-17.70
-10.26
-2.09
5.95
13.14
18.94
23.00
25.13
25.45
24.33
22.33
20.08
18.05
16.49
15.32
14.30
13.14
11.61
9.59
7.14
4.39
1.53
-1.37
-4.33
-7.55
-11.30
-15.78
-20.97
-26.43
-31.36
-34.70
-35.50
-33.19
-27.84
-20.12
-11.11
-1.96
6.35
13.20
18.35
21.78
23.65
24.17
23.65
22.40
20.77
19.02
17.28
15.52
13.62
11.43
8.88
6.02
3.02
0.07
-2.68
-5.23
-7.78
-10.71
-14.47
-19.32
-25.11
-31.20
-36.46
-39.66
-39.83
-36.58
-30.24
-21.68
-12.03
-2.29
6.77
14.68
21.17
26.05
29.21
30.73
30.82
29.91
28.49
26.97
25.58
24.28
22.89
21.18
19.08
16.64
14.05
11.44
8.86
6.16
3.07
-0.71
-5.37
-10.96
-17.31
-23.93
-30.05
-34.71
-36.88
-35.82
-31.33
-23.87
-14.48
-4.40
5.25
13.75
20.73
26.17
30.10
32.56
33.58
33.36
32.20
30.53
28.77
27.17
25.80
24.53
23.13
21.37
19.16
16.60
13.97
11.58
9.55
7.69
5.52
2.44
-2.00
-7.80
-14.54
-21.41
-27.45
-31.77
-33.64
-32.62
-28.67
-22.19
-14.00
-5.19
3.22
10.48
16.21
20.35
23.00
24.32
24.49
23.80
22.63
21.36
20.23
19.23
18.16
16.76
14.94
12.76
10.41
8.07
5.83
3.68
1.53
-0.74
-3.32
-6.43
-10.32
-15.10
-20.57
-26.09
-30.73
-33.49
-33.63
-31.00
-25.97
-19.24
-11.60
-3.70
3.86
10.57
15.81
19.08
20.11
19.12
16.80
14.14
11.96
10.63
9.97
9.50
8.71
7.30
5.29
2.89
0.35
-2.13
-4.52
-6.87
-9.33
-12.13
-15.48
-19.49
-23.93
-28.25
-31.67
-33.31
-32.59
-29.33
-23.84
-16.77
-8.94
-1.18
5.77
11.37
15.25
17.27
17.52
16.38
14.43
12.36
10.65
9.46
8.58
7.61
6.11
3.85
0.91
-2.39
-5.65
-8.64
-11.34
-13.98
-16.91
-20.48
-24.81
-29.67
-34.49
-38.42
-40.58
-40.29
-37.26
-31.66
-24.03
-15.14
-5.86
2.97
10.54
16.25
19.82
21.35
21.27
20.22
18.81
17.39
16.08
14.85
13.64
12.41
11.12
9.67
7.87
5.52
2.54
-1.01
-4.96
-9.15
-13.60
-18.40
-23.57
-28.78
-33.32
-36.21
-36.57
-33.98
-28.61
-21.17
-12.64
-3.96
4.16
11.23
17.00
21.34
24.17
25.54
25.64
24.84
23.63
22.43
21.42
20.57
19.65
18.41
16.73
14.70
12.52
10.37
8.30
6.18
3.75
0.73
-3.10
-7.81
-13.24
-18.95
-24.21
-28.15
-29.91
-28.95
-25.16
-18.91
-10.91
-2.05
6.76
14.65
20.89
24.99
26.79
26.51
24.76
22.32
19.95
18.10
16.85
15.98
15.12
14.00
12.53
10.77
8.83
6.83
4.78
2.61
0.19
-2.66
-6.13
-10.45
-15.65
-21.49
-27.25
-31.89
-34.26
-33.54
-29.57
-22.87
-14.52
-5.82
2.13
8.52
12.97
15.41
16.03
15.19
13.41
11.25
9.22
7.66
6.69
6.21
5.97
5.67
5.09
4.08
2.67
0.94
-0.99
-3.08
-5.46
-8.37
-12.11
-16.85
-22.37
-28.03
-32.80
-35.57
-35.47
-32.18
-26.00
-17.81
-8.79
-0.10
7.29
12.77
16.10
17.36
16.87
15.15
12.76
10.27
8.06
6.34
5.09
4.15
3.30
2.32
1.07
-0.50
-2.40
-4.59
-7.05
-9.88
-13.20
-17.23
-22.14
-27.80
-33.67
-38.77
-41.95
-42.21
-39.10
-32.88
-24.38
-14.76
-5.12
3.69
11.05
16.54
19.91
21.15
20.57
18.83
16.68
14.80
13.48
12.64
11.91
10.96
9.60
7.85
5.88
3.86
1.82
-0.33
-2.86
-6.06
-10.26
-15.62
-22.01
-28.90
-35.38
-40.34
-42.72
-41.85
-37.62
-30.53
-21.52
-11.73
-2.18
6.39
13.57
19.21
23.28
25.81
26.88
26.71
25.63
24.08
22.49
21.12
20.03
19.09
18.09
16.88
15.38
13.58
11.50
9.15
6.51
3.51
0.02
-4.19
-9.29
-15.23
-21.51
-27.13
-30.88
-31.68
-29.08
-23.39
-15.56
-6.75
2.02
10.10
17.17
23.02
27.44
30.24
31.38
31.09
29.85
28.29
26.89
25.85
25.03
24.09
22.65
20.50
17.76
14.79
12.02
9.69
7.75
5.83
3.33
-0.28
-5.34
-11.78
-19.11
-26.42
-32.54
-36.26
-36.69
-33.59
-27.39
-19.14
-10.11
-1.47
5.97
11.77
15.80
18.08
18.83
18.39
17.29
16.01
14.92
14.05
13.20
12.02
10.28
7.98
5.38
2.81
0.56
-1.22
-2.61
-3.85
-5.35
-7.58
-10.95
-15.65
-21.41
-27.47
-32.65
-35.65
-35.44
-31.65
-24.69
-15.64
-5.91
3.19
10.72
16.19
19.55
21.01
20.97
19.90
18.36
16.75
15.32
14.05
12.73
11.04
8.84
6.15
3.14
0.07
-2.95
-5.89
-8.82
-11.90
-15.37
-19.53
-24.61
-30.52
-36.69
-42.05
-45.24
-45.17
-41.39
-34.35
-25.14
-15.12
-5.50
2.98
9.91
15.08
18.43
20.01
20.12
19.27
18.09
17.04
16.31
15.67
14.75
13.23
11.02
8.33
5.50
2.84
0.40
-1.99
-4.70
-8.17
-12.75
-18.53
-25.24
-32.22
-38.45
-42.78
-44.21
-42.20
-36.86
-28.84
-19.18
-8.96
0.96
9.98
17.73
23.93
28.43
31.17
32.30
32.20
31.34
30.13
28.81
27.35
25.61
23.42
20.74
17.70
14.50
11.34
8.35
5.46
2.45
-1.05
-5.45
-10.95
-17.39
-24.05
-29.78
-33.30
-33.60
-30.33
-23.92
-15.36
-5.89
3.49
12.13
19.70
26.06
31.00
34.32
35.88
35.84
34.69
33.12
31.78
31.05
30.84
30.71
30.14
28.73
26.42
23.42
20.01
16.42
12.67
8.66
4.23
-0.82
-6.57
-13.07
-20.07
-27.02
-32.97
-36.78
-37.40
-34.35
-27.91
-19.05
-9.10
0.64
9.29
16.39
21.82
25.59
27.75
28.37
27.70
26.16
24.32
22.72
21.67
21.10
20.65
19.82
18.17
15.61
12.33
8.68
5.04
1.58
-1.78
-5.31
-9.37
-14.26
-20.07
-26.53
-32.96
-38.29
-41.32
-41.11
-37.31
-30.31
-21.20
-11.32
-1.93
6.05
12.11
16.10
18.07
18.31
17.32
15.76
14.30
13.41
13.22
13.47
13.67
13.37
12.27
10.37
7.84
4.90
1.70
-1.74
-5.50
-9.65
-14.26
-19.39
-25.01
-30.95
-36.74
-41.54
-44.31
-44.07
-40.33
-33.33
-24.02
-13.77
-3.91
4.59
11.24
15.95
18.84
20.11
20.00
18.94
17.36
15.75
14.40
13.36
12.43
11.34
9.87
7.96
5.71
3.25
0.68
-2.02
-5.02
-8.54
-12.88
-18.28
-24.78
-32.05
-39.22
-44.96
-47.88
-46.98
-42.02
-33.71
-23.32
-12.33
-1.90
7.25
14.86
20.83
25.09
27.57
28.30
27.56
25.87
23.90
22.14
20.78
19.64
18.36
16.61
14.30
11.61
8.90
6.43
4.19
1.92
-0.91
-4.79
-10.09
-16.88
-24.82
-33.11
-40.57
-45.77
-47.50
-45.07
-38.71
-29.43
-18.66
-7.77
2.32
11.18
18.70
24.76
29.14
31.61
32.16
31.15
29.31
27.39
25.95
25.10
24.56
23.88
22.70
20.91
18.67
16.21
13.73
11.22
8.45
5.09
0.88
-4.36
-10.65
-17.87
-25.68
-33.43
-40.11
-44.49
-45.49
-42.52
-35.77
-26.17
-15.07
-3.80
6.62
15.66
23.07
28.69
32.41
34.18
34.17
32.86
30.87
28.89
27.39
26.46
25.90
25.26
24.11
22.19
19.55
16.43
13.22
10.15
7.27
4.38
1.09
-2.97
-8.11
-14.38
-21.53
-28.94
-35.69
-40.62
-42.68
-41.17
-36.03
-27.84
-17.64
-6.64
4.06
13.61
21.47
27.28
30.86
32.26
31.79
29.98
27.52
24.99
22.79
20.97
19.33
17.54
15.29
12.48
9.20
5.66
2.10
-1.40
-4.87
-8.50
-12.60
-17.37
-22.96
-29.25
-35.78
-41.71
-45.93
-47.31
-45.08
-39.07
-29.84
-18.50
-6.38
5.30
15.59
23.87
29.76
33.14
34.11
33.03
30.49
27.19
23.74
20.50
17.51
14.60
11.46
7.88
3.85
-0.46
-4.71
-8.59
-12.01
-15.12
-18.35
-22.24
-27.27
-33.62
-41.10
-49.01
-56.19
-61.18
-62.58
-59.50
-51.89
-40.59
-27.11
-13.10
0.05
11.47
20.74
27.67
32.18
34.33
34.42
33.08
31.17
29.39
28.05
26.94
25.51
23.16
19.64
15.13
10.18
5.44
1.40
-1.83
-4.56
-7.41
-11.07
-16.12
-22.76
-30.67
-38.96
-46.31
-51.23
-52.46
-49.34
-41.97
-31.18
-18.25
-4.60
8.51
20.08
29.46
36.31
40.54
42.39
42.31
40.92
38.88
36.70
34.63
32.60
30.37
27.61
24.10
19.88
15.23
10.58
6.32
2.63
-0.61
-3.79
-7.45
-12.16
-18.20
-25.50
-33.39
-40.71
-46.00
-47.91
-45.64
-39.19
-29.35
-17.45
-4.92
6.96
17.30
25.56
31.50
35.08
36.43
35.89
33.94
31.10
27.85
24.53
21.30
18.17
15.02
11.79
8.45
5.08
1.73
-1.59
-4.98
-8.62
-12.78
-17.69
-23.60
-30.47
-37.93
-45.02
-50.39
-52.54
-50.36
-43.64
-33.08
-20.18
-6.63
6.04
16.80
25.06
30.58
33.40
33.80
32.35
29.77
26.83
23.97
21.19
18.18
14.51
9.98
4.68
-0.96
-6.39
-11.16
-15.07
-18.31
-21.35
-24.92
-29.72
-36.21
-44.29
-53.18
-61.36
-66.95
-68.24
-64.23
-55.10
-42.09
-27.08
-12.02
1.59
12.83
21.35
27.12
30.24
31.01
29.98
27.88
25.51
23.46
21.89
20.61
19.22
17.34
14.82
11.72
8.25
4.56
0.72
-3.38
-8.03
-13.62
-20.48
-28.57
-37.30
-45.43
-51.33
-53.47
-51.00
-44.00
-33.40
-20.66
-7.21
5.80
17.55
27.52
35.25
40.49
43.16
43.59
42.38
40.27
37.87
35.52
33.26
30.95
28.43
25.61
22.56
19.37
16.15
12.92
9.54
5.72
1.02
-5.03
-12.66
-21.64
-31.08
-39.47
-45.08
-46.41
-42.75
-34.39
-22.56
-9.03
4.37
16.28
25.89
33.00
37.76
40.50
41.63
41.57
40.74
39.55
38.26
36.98
35.54
33.60
30.85
27.18
22.76
18.01
13.33
8.95
4.72
0.13
-5.42
-12.51
-21.24
-31.10
-40.79
-48.47
-52.21
-50.52
-42.89
-30.14
-14.15
2.56
17.54
29.05
36.24
39.19
38.67
35.78
31.67
27.32
23.43
20.33
18.08
16.47
15.14
13.76
12.06
9.93
7.38
4.52
1.39
-2.09
-6.18
-11.28
-17.74
-25.55
-34.10
-42.12
-47.89
-49.80
-46.78
-38.82
-26.92
-12.81
1.59
14.60
25.12
32.64
37.09
38.78
38.17
35.88
32.55
28.78
25.05
21.63
18.62
15.97
13.54
11.16
8.65
5.94
2.97
-0.32
-4.10
-8.67
-14.42
-21.54
-29.77
-38.26
-45.61
-50.29
-51.08
-47.37
-39.37
-27.99
-14.53
-0.40
13.15
25.13
34.85
41.85
45.99
47.45
46.75
44.63
41.91
39.19
36.70
34.27
31.51
28.13
24.06
19.60
15.12
10.92
6.95
2.85
-1.97
-8.03
-15.55
-24.26
-33.32
-41.42
-47.07
-49.03
-46.60
-39.84
-29.56
-16.99
-3.53
9.65
21.65
31.87
39.95
45.70
49.11
50.43
50.12
48.82
47.13
45.48
43.93
42.28
40.15
37.24
33.46
28.99
24.22
19.53
15.14
11.01
6.87
2.33
-3.01
-9.42
-16.84
-24.84
-32.55
-38.81
-42.42
-42.52
-38.83
-31.72
-22.07
-11.06
0.14
10.55
19.46
26.45
31.31
34.00
34.73
33.91
32.11
29.93
27.84
26.07
24.55
22.96
20.96
18.33
15.04
11.34
7.56
3.96
0.61
-2.64
-6.17
-10.33
-15.45
-21.64
-28.72
-36.07
-42.70
-47.36
-48.93
-46.78
-41.03
-32.55
-22.63
-12.55
-3.22
4.87
11.53
16.63
20.03
21.62
21.54
20.25
18.41
16.58
15.05
13.74
12.37
10.64
8.41
5.70
2.67
-0.54
-3.84
-7.21
-10.71
-14.52
-18.90
-24.04
-29.94
-36.19
-41.90
-45.95
-47.28
-45.21
-39.69
-31.30
-21.06
-10.19
0.17
9.07
15.88
20.32
22.42
22.51
21.16
19.04
16.78
14.86
13.48
12.54
11.71
10.56
8.70
5.91
2.20
-2.17
-6.84
-11.44
-15.83
-20.13
-24.71
-29.93
-35.84
-41.92
-47.13
-50.19
-50.05
-46.25
-39.14
-29.68
-19.06
-8.41
1.48
10.09
17.11
22.32
25.56
26.84
26.43
24.87
22.81
20.85
19.33
18.25
17.34
16.25
14.69
12.59
9.92
6.80
3.31
-0.46
-4.42
-8.56
-12.97
-17.84
-23.28
-29.10
-34.58
-38.62
-40.07
-38.18
-32.93
-25.02
-15.52
-5.54
4.06
12.71
19.96
25.43
28.79
29.97
29.29
27.40
25.13
23.16
21.83
21.09
20.61
20.00
18.92
17.24
14.96
12.18
9.04
5.61
1.94
-2.06
-6.49
-11.47
-17.02
-22.88
-28.49
-32.96
-35.26
-34.55
-30.55
-23.67
-14.96
-5.71
2.88
10.07
15.56
19.40
21.73
22.67
22.38
21.02
19.02
16.83
14.91
13.46
12.41
11.47
10.35
8.86
7.02
5.03
3.07
1.20
-0.85
-3.52
-7.33
-12.51
-18.82
-25.44
-31.15
-34.70
-35.18
-32.31
-26.48
-18.56
-9.67
-0.89
6.91
13.15
17.45
19.70
20.08
19.02
17.16
15.16
13.54
12.45
11.66
10.73
9.29
7.21
4.64
1.94
-0.56
-2.76
-4.77
-6.88
-9.43
-12.71
-16.92
-22.05
-27.74
-33.21
-37.41
-39.22
-37.87
-33.18
-25.71
-16.50
-6.85
2.12
9.52
14.88
18.02
19.10
18.49
16.78
14.60
12.52
10.85
9.62
8.66
7.72
6.54
4.94
2.87
0.46
-2.11
-4.62
-6.96
-9.21
-11.64
-14.58
-18.24
-22.49
-26.83
-30.42
-32.37
-31.98
-28.93
-23.41
-16.03
-7.65
0.82
8.60
15.10
19.99
23.10
24.49
24.34
22.98
20.84
18.36
15.90
13.70
11.84
10.27
8.91
7.63
6.23
4.53
2.38
-0.26
-3.25
-6.39
-9.57
-12.82
-16.35
-20.21
-24.17
-27.57
-29.48
-29.06
-25.93
-20.38
-13.28
-5.73
1.27
7.07
11.33
14.05
15.30
15.27
14.24
12.59
10.75
9.17
8.19
7.94
8.30
8.92
9.34
9.18
8.26
6.68
4.70
2.59
0.45
-1.83
-4.53
-7.85
-11.80
-16.01
-19.82
-22.44
-23.15
-21.64
-18.02
-12.87
-6.99
-1.20
3.83
7.76
10.46
11.92
12.23
11.49
9.90
7.74
5.40
3.16
1.21
-0.42
-1.81
-3.10
-4.36
-5.68
-7.10
-8.67
-10.42
-12.41
-14.69
-17.41
-20.67
-24.42
-28.32
-31.69
-33.72
-33.69
-31.27
-26.69
-20.59
-13.82
-7.18
-1.27
3.55
7.10
9.34
10.34
10.36
9.70
8.73
7.76
6.92
6.18
5.36
4.22
2.60
0.43
-2.15
-4.93
-7.65
-10.23
-12.76
-15.50
-18.78
-22.78
-27.34
-31.97
-35.87
-38.14
-38.07
-35.37
-30.23
-23.33
-15.65
-8.25
-1.96
2.71
5.62
6.97
7.11
6.50
5.56
4.63
3.90
3.46
3.24
3.11
2.89
2.38
1.39
-0.27
-2.68
-5.83
-9.57
-13.70
-18.01
-22.41
-26.78
-30.92
-34.37
-36.49
-36.61
-34.31
-29.65
-23.16
-15.69
-8.08
-1.01
5.11
10.00
13.49
15.52
16.17
15.71
14.58
13.21
11.89
10.69
9.61
8.57
7.55
6.56
5.52
4.28
2.54
0.07
-3.31
-7.64
-12.81
-18.60
-24.63
-30.29
-34.78
-37.18
-36.77
-33.19
-26.73
-18.16
-8.52
1.10
9.84
17.14
22.67
26.29
28.06
28.21
27.16
25.50
23.83
22.54
21.79
21.40
21.03
20.36
19.22
17.63
15.75
13.76
11.78
9.74
7.44
4.61
0.98
-3.58
-8.95
-14.67
-19.86
-23.45
-24.45
-22.26
-16.99
-9.36
-0.50
8.45
16.59
23.50
29.04
33.18
35.88
37.08
36.86
35.55
33.70
31.88
30.50
29.59
28.88
28.00
26.67
24.86
22.75
20.51
18.23
15.85
13.20
10.14
6.62
2.56
-2.10
-7.42
-13.29
-19.25
-24.47
-27.90
-28.64
-26.28
-21.11
-13.93
-5.83
2.17
9.37
15.39
20.05
23.26
24.99
25.33
24.48
22.80
20.81
18.93
17.44
16.39
15.62
14.86
13.91
12.67
11.20
9.63
8.07
6.42
4.45
1.76
-2.00
-6.95
-12.87
-19.14
-24.78
-28.68
-29.89
-27.92
-22.88
-15.48
-6.82
1.90
9.67
15.81
20.01
22.32
22.99
22.40
21.00
19.19
17.29
15.55
14.10
12.97
12.07
11.24
10.23
8.83
6.93
4.51
1.73
-1.24
-4.38
-7.81
-11.73
-16.33
-21.47
-26.58
-30.74
-32.91
-32.30
-28.60
-22.15
-13.81
-4.75
3.88
11.21
16.68
20.12
21.67
21.66
20.51
18.69
16.59
14.51
12.64
11.00
9.51
8.01
6.35
4.49
2.41
0.16
-2.26
-4.92
-8.00
-11.71
-16.19
-21.33
-26.72
-31.60
-35.04
-36.21
-34.61
-30.28
-23.75
-15.89
-7.59
0.36
7.44
13.34
17.86
20.93
22.55
22.89
22.26
21.09
19.75
18.49
17.39
16.38
15.34
14.09
12.51
10.51
8.06
5.24
2.13
-1.24
-4.90
-8.93
-13.33
-17.88
-22.07
-25.16
-26.42
-25.38
-22.03
-16.79
-10.35
-3.48
3.18
9.16
14.14
17.97
20.61
22.14
22.73
22.58
21.92
20.95
19.86
18.77
17.69
16.55
15.24
13.67
11.91
10.13
8.52
7.17
5.94
4.47
2.27
-1.02
-5.53
-10.89
-16.38
-20.99
-23.72
-23.91
-21.42
-16.69
-10.49
-3.74
2.82
8.65
13.37
16.75
18.63
19.03
18.23
16.74
15.14
13.89
13.12
12.67
12.17
11.29
9.89
7.97
5.71
3.33
1.04
-1.07
-3.08
-5.16
-7.62
-10.73
-14.55
-18.87
-23.12
-26.48
-28.12
-27.47
-24.42
-19.30
-12.83
-5.89
0.69
6.27
10.45
13.08
14.18
13.99
12.90
11.42
10.06
9.15
8.73
8.60
8.38
7.72
6.46
4.61
2.33
-0.18
-2.77
-5.32
-7.79
-10.23
-12.81
-15.64
-18.77
-21.94
-24.56
-25.91
-25.32
-22.53
-17.79
-11.79
-5.43
0.43
5.17
8.48
10.33
10.91
10.55
9.64
8.54
7.51
6.65
5.99
5.49
5.09
4.68
4.05
2.99
1.23
-1.37
-4.76
-8.72
-13.00
-17.37
-21.67
-25.78
-29.47
-32.34
-33.85
-33.48
-30.94
-26.29
-20.01
-12.87
-5.70
0.73
5.89
9.56
11.76
12.72
12.77
12.24
11.40
10.42
9.39
8.29
7.11
5.83
4.47
3.05
1.59
0.05
-1.65
-3.68
-6.19
-9.33
-13.18
-17.69
-22.65
-27.67
-32.04
-34.94
-35.52
-33.28
-28.26
-21.08
-12.82
-4.60
2.67
8.47
12.68
15.37
16.73
17.04
16.63
15.88
15.11
14.48
13.93
13.25
12.27
10.93
9.33
7.64
6.05
4.64
3.41
2.23
0.83
-1.14
-4.04
-8.05
-12.95
-18.10
-22.45
-24.92
-24.65
-21.37
-15.45
-7.75
0.67
8.78
15.80
21.19
24.69
26.24
26.03
24.52
22.38
20.40
19.21
19.03
19.59
20.25
20.29
19.26
17.15
14.31
11.22
8.23
5.48
2.88
0.23
-2.77
-6.39
-10.83
-16.11
-21.88
-27.36
-31.45
-33.07
-31.56
-26.93
-19.92
-11.68
-3.46
3.78
9.48
13.42
15.65
16.30
15.65
14.16
12.44
11.20
11.00
12.06
14.08
16.34
17.85
17.79
15.74
11.95
7.15
2.25
-2.01
-5.39
-8.20
-11.12
-14.83
-19.62
-25.07
-30.17
-33.63
-34.34
-31.79
-26.28
-18.63
-9.92
-1.22
6.63
13.04
17.62
20.15
20.62
19.35
16.90
14.05
11.45
9.48
8.14
7.17
6.19
4.91
3.24
1.18
-1.16
-3.72
-6.49
-9.52
-12.98
-17.01
-21.69
-26.91
-32.15
-36.58
-39.18
-39.01
-35.60
-29.23
-20.75
-11.40
-2.39
5.37
11.40
15.62
18.21
19.49
19.80
19.46
18.66
17.52
16.07
14.31
12.24
9.92
7.48
5.01
2.61
0.32
-1.87
-4.08
-6.52
-9.53
-13.46
-18.48
-24.44
-30.66
-36.10
-39.58
-40.15
-37.39
-31.55
-23.40
-13.95
-4.25
4.90
12.91
19.36
24.00
26.76
27.76
27.35
26.01
24.31
22.79
21.88
21.83
22.64
24.07
25.58
26.49
26.24
24.49
21.29
16.94
11.73
5.80
-0.98
-8.70
-17.20
-25.77
-33.18
-38.01
-39.13
-36.12
-29.47
-20.32
-10.09
-0.02
9.09
16.84
23.12
27.83
30.91
32.38
32.53
31.85
30.98
30.37
30.14
30.01
29.44
27.95
25.30
21.62
17.27
12.80
8.63
5.02
1.92
-0.98
-4.21
-8.29
-13.49
-19.61
-25.86
-30.97
-33.62
-32.87
-28.50
-21.09
-11.79
-1.99
7.12
14.69
20.28
23.76
25.23
25.02
23.63
21.71
19.92
18.69
18.06
17.72
17.15
15.87
13.64
10.62
7.16
3.66
0.35
-2.77
-5.84
-9.06
-12.52
-16.29
-20.33
-24.40
-28.09
-30.66
-31.29
-29.29
-24.45
-17.22
-8.59
0.15
7.90
13.95
18.12
20.62
21.83
22.13
21.82
21.05
19.87
18.33
16.51
14.52
12.45
10.31
8.00
5.36
2.27
-1.27
-5.10
-9.02
-12.94
-16.92
-21.09
-25.42
-29.63
-33.06
-34.88
-34.35
-31.10
-25.33
-17.72
-9.31
-1.18
5.76
11.03
14.61
16.76
17.85
18.22
18.03
17.36
16.22
14.68
12.85
10.84
8.71
6.47
4.08
1.50
-1.30
-4.35
-7.68
-11.37
-15.52
-20.29
-25.73
-31.71
-37.76
-43.02
-46.31
-46.54
-43.09
-36.11
-26.57
-15.93
-5.64
3.21
10.14
15.06
18.17
19.72
19.97
19.25
17.88
16.29
14.72
13.28
11.94
10.52
8.87
6.87
4.55
2.02
-0.56
-3.12
-5.72
-8.62
-12.20
-16.74
-22.08
-27.55
-32.02
-34.21
-33.17
-28.58
-20.89
-11.19
-0.83
8.89
17.04
23.11
27.02
28.99
29.39
28.68
27.26
25.56
23.91
22.51
21.35
20.29
18.98
17.10
14.49
11.18
7.42
3.50
-0.38
-4.25
-8.42
-13.23
-18.87
-25.02
-30.86
-35.18
-36.80
-35.05
-29.98
-22.35
-13.23
-3.57
6.10
15.61
24.83
33.43
40.73
46.00
48.78
49.12
47.52
44.70
41.20
37.35
33.17
28.60
23.60
18.24
12.63
6.82
0.79
-5.63
-12.65
-20.43
-28.92
-37.62
-45.54
-51.35
-53.78
-52.10
-46.44
-37.81
-27.76
-17.83
-9.13
-2.22
2.91
6.46
8.73
9.86
10.01
9.36
8.18
6.77
5.38
4.19
3.20
2.31
1.29
-0.08
-2.04
-4.71
-8.16
-12.40
-17.43
-23.14
-29.23
-35.05
-39.65
-41.95
-41.06
-36.66
-29.13
-19.52
-9.16
0.65
9.03
15.54
20.15
23.02
24.42
24.63
24.03
23.09
22.22
21.69
21.56
21.69
21.78
21.45
20.31
17.98
14.19
8.76
1.63
-7.05
-17.02
-27.70
-38.27
-47.52
-54.06
-56.57
-54.30
-47.32
-36.66
-23.97
-11.07
0.61
10.28
17.69
22.93
26.22
27.77
27.85
26.81
25.11
23.17
21.25
19.46
17.79
16.19
14.64
13.06
11.35
9.32
6.75
3.46
-0.67
-5.75
-11.85
-18.86
-26.32
-33.30
-38.46
-40.48
-38.46
-32.33
-22.89
-11.48
0.47
11.80
21.74
29.87
35.98
39.98
41.96
42.24
41.34
39.91
38.52
37.49
36.82
36.25
35.47
34.18
32.27
29.82
27.05
24.16
21.20
18.07
14.50
10.10
4.49
-2.54
-10.85
-19.80
-28.19
-34.53
-37.40
-35.98
-30.34
-21.43
-10.73
0.28
10.45
19.16
26.14
31.31
34.60
35.98
35.61
33.95
31.66
29.49
27.92
27.08
26.64
26.09
24.92
22.96
20.29
17.25
14.18
11.20
8.18
4.83
0.79
-4.20
-10.28
-17.35
-24.97
-32.38
-38.41
-41.85
-41.72
-37.69
-30.23
-20.49
-9.91
0.16
8.78
15.47
20.11
22.79
23.74
23.31
22.00
20.34
18.84
17.79
17.22
16.92
16.54
15.72
14.26
12.16
9.60
6.81
3.92
0.89
-2.49
-6.55
-11.58
-17.70
-24.71
-32.03
-38.67
-43.38
-44.95
-42.57
-36.19
-26.61
-15.25
-3.71
6.67
15.09
21.25
25.16
26.95
26.87
25.39
23.19
21.04
19.54
18.83
18.55
18.03
16.65
14.18
10.81
7.04
3.34
-0.09
-3.40
-6.98
-11.35
-16.94
-23.87
-31.89
-40.28
-47.89
-53.33
-55.38
-53.34
-47.30
-38.09
-26.95
-15.23
-3.99
6.06
14.51
21.11
25.70
28.26
29.02
28.47
27.32
26.14
25.25
24.53
23.58
21.97
19.44
16.10
12.33
8.56
5.11
1.97
-1.24
-5.01
-9.85
-16.04
-23.56
-32.00
-40.57
-48.10
-53.31
-55.08
-52.78
-46.48
-36.93
-25.28
-12.76
-0.42
10.98
20.83
28.64
34.07
37.02
37.77
37.02
35.60
34.20
33.17
32.44
31.63
30.31
28.17
25.13
21.32
17.05
12.61
8.30
4.30
0.72
-2.51
-5.64
-9.11
-13.34
-18.54
-24.43
-30.11
-34.28
-35.61
-33.31
-27.38
-18.62
-8.30
2.31
12.19
20.74
27.58
32.44
35.14
35.67
34.31
31.66
28.46
25.36
22.74
20.63
18.77
16.82
14.44
11.52
8.14
4.56
1.01
-2.42
-5.85
-9.55
-13.79
-18.85
-24.78
-31.38
-38.18
-44.31
-48.68
-50.22
-48.25
-42.71
-34.23
-23.79
-12.40
-0.92
9.97
19.61
27.20
31.99
33.61
32.30
28.95
24.76
20.64
16.98
13.54
9.85
5.60
0.85
-4.00
-8.45
-12.19
-15.20
-17.72
-20.14
-22.90
-26.35
-30.63
-35.68
-41.05
-45.92
-49.27
-50.01
-47.43
-41.42
-32.54
-21.91
-10.88
-0.70
7.80
14.22
18.54
20.98
21.82
21.38
19.97
17.92
15.54
13.11
10.76
8.50
6.13
3.40
0.07
-3.91
-8.35
-12.91
-17.28
-21.37
-25.43
-29.90
-35.11
-40.88
-46.39
-50.28
-51.15
-48.04
-40.89
-30.54
-18.42
-6.11
5.12
14.43
21.46
26.23
28.98
30.06
29.90
28.87
27.21
25.02
22.25
18.87
14.94
10.66
6.32
2.29
-1.14
-3.84
-5.93
-7.75
-9.92
-13.16
-18.13
-25.15
-33.84
-43.06
-51.10
-56.04
-56.45
-51.86
-42.89
-30.98
-17.85
-5.02
6.48
16.07
23.50
28.66
31.66
32.81
32.65
31.78
30.62
29.30
27.63
25.38
22.40
18.84
14.93
10.92
6.90
2.86
-1.27
-5.56
-10.17
-15.35
-21.47
-28.74
-36.89
-44.95
-51.34
-54.33
-52.69
-46.12
-35.40
-21.99
-7.59
6.44
19.16
30.00
38.62
44.75
48.29
49.36
48.36
45.98
42.89
39.75
36.86
34.27
31.76
28.95
25.55
21.45
16.84
12.12
7.70
3.75
0.13
-3.60
-8.02
-13.54
-20.14
-27.27
-33.90
-38.71
-40.47
-38.36
-32.22
-22.61
-10.60
2.42
15.10
26.31
35.28
41.58
45.13
46.13
45.05
42.54
39.34
36.13
33.28
30.88
28.67
26.24
23.23
19.52
15.25
10.84
6.72
3.10
-0.11
-3.38
-7.27
-12.34
-18.82
-26.53
-34.70
-42.14
-47.34
-48.97
-46.21
-39.10
-28.59
-16.25
-3.83
7.30
16.35
23.10
27.69
30.36
31.30
30.73
28.96
26.49
23.80
21.30
19.04
16.82
14.26
11.07
7.23
3.05
-1.07
-4.72
-7.79
-10.53
-13.50
-17.45
-22.94
-29.98
-37.79
-44.85
-49.25
-49.35
-44.39
-34.87
-22.32
-8.79
3.87
14.37
22.20
27.33
30.05
30.76
29.95
28.18
26.01
23.86
21.86
19.86
17.53
14.59
10.84
6.41
1.60
-3.21
-7.61
-11.42
-14.74
-18.02
-21.92
-27.08
-33.72
-41.41
-48.94
-54.64
-56.87
-54.54
-47.52
-36.65
-23.44
-9.65
3.22
14.13
22.55
28.32
31.55
32.62
32.06
30.52
28.59
26.59
24.53
22.15
19.16
15.43
11.15
6.75
2.64
-0.92
-4.01
-7.03
-10.46
-14.81
-20.36
-27.10
-34.64
-42.14
-48.42
-52.13
-52.18
-48.02
-39.89
-28.72
-15.88
-2.77
9.48
20.13
28.76
35.18
39.32
41.23
41.20
39.73
37.47
35.01
32.69
30.53
28.27
25.56
22.22
18.29
14.02
9.66
5.30
0.86
-3.86
-9.09
-14.98
-21.57
-28.72
-35.96
-42.37
-46.69
-47.61
-44.28
-36.72
-25.82
-13.04
0.10
12.47
23.39
32.47
39.44
44.07
46.27
46.30
44.70
42.20
39.45
36.85
34.50
32.27
29.91
27.11
23.71
19.68
15.22
10.67
6.29
2.14
-1.96
-6.39
-11.53
-17.55
-24.32
-31.36
-37.80
-42.54
-44.42
-42.60
-36.85
-27.73
-16.46
-4.49
6.82
16.68
24.67
30.73
34.84
37.04
37.46
36.45
34.49
32.09
29.61
27.17
24.67
21.97
18.94
15.58
11.94
8.12
4.22
0.36
-3.44
-7.24
-11.26
-15.77
-21.05
-27.19
-33.85
-40.23
-45.09
-47.13
-45.37
-39.58
-30.43
-19.25
-7.62
3.12
12.12
19.10
24.02
26.95
27.95
27.19
25.08
22.28
19.52
17.33
15.80
14.65
13.34
11.42
8.69
5.32
1.65
-1.93
-5.23
-8.36
-11.74
-15.97
-21.59
-28.79
-37.08
-45.32
-51.81
-54.90
-53.47
-47.37
-37.41
-25.11
-12.19
-0.13
10.09
17.97
23.42
26.56
27.67
27.24
25.87
24.10
22.34
20.68
18.88
16.66
13.78
10.27
6.38
2.43
-1.33
-4.79
-8.03
-11.25
-14.79
-19.07
-24.57
-31.54
-39.76
-48.24
-55.35
-59.22
-58.42
-52.47
-42.09
-28.85
-14.60
-0.90
11.24
21.28
29.02
34.32
37.20
37.86
36.79
34.65
32.08
29.46
26.79
23.83
20.26
15.94
11.05
6.02
1.29
-2.85
-6.40
-9.65
-13.09
-17.26
-22.60
-29.23
-36.87
-44.65
-51.19
-54.93
-54.60
-49.61
-40.36
-28.02
-14.21
-0.41
12.22
23.02
31.62
37.83
41.60
43.08
42.71
41.12
38.95
36.62
34.21
31.56
28.40
24.56
20.04
15.04
9.93
5.09
0.84
-2.73
-5.81
-8.89
-12.63
-17.63
-24.14
-31.75
-39.44
-45.65
-48.75
-47.57
-41.73
-31.79
-19.07
-5.24
8.17
19.99
29.59
36.68
41.24
43.35
43.30
41.60
38.95
36.10
33.51
31.27
29.08
26.47
23.11
18.99
14.34
9.51
4.76
0.20
-4.19
-8.50
-12.86
-17.50
-22.75
-28.83
-35.56
-42.09
-47.05
-48.86
-46.40
-39.44
-28.81
-16.03
-2.83
9.33
19.54
27.33
32.60
35.45
36.07
34.84
32.28
29.03
25.66
22.57
19.85
17.36
14.81
11.90
8.49
4.61
0.40
-3.98
-8.43
-12.97
-17.79
-23.12
-29.14
-35.83
-42.78
-49.11
-53.56
-54.81
-51.96
-44.92
-34.40
-21.71
-8.33
4.50
15.95
25.46
32.65
37.21
39.03
38.32
35.66
31.82
27.57
23.39
19.44
15.59
11.60
7.35
2.82
-1.84
-6.46
-10.89
-15.23
-19.72
-24.76
-30.76
-38.03
-46.44
-55.42
-63.82
-70.14
-72.82
-70.76
-63.64
-52.14
-37.76
-22.31
-7.47
5.64
16.46
24.85
30.86
34.59
36.24
36.21
35.13
33.58
31.99
30.36
28.43
25.85
22.48
18.48
14.24
10.16
6.40
2.92
-0.51
-4.23
-8.58
-13.93
-20.54
-28.35
-36.67
-44.20
-49.16
-49.93
-45.60
-36.37
-23.42
-8.51
6.56
20.41
32.17
41.38
47.84
51.52
52.68
51.81
49.63
46.89
44.15
41.63
39.22
36.69
33.82
30.58
27.10
23.58
20.15
16.84
13.53
10.02
6.07
1.41
-4.24
-11.07
-19.04
-27.60
-35.69
-41.80
-44.45
-42.62
-36.21
-26.02
-13.51
-0.39
11.88
22.26
30.21
35.60
38.58
39.50
38.84
37.18
35.05
32.84
30.71
28.55
26.10
23.09
19.42
15.24
10.89
6.78
3.23
0.29
-2.28
-4.92
-8.23
-12.76
-18.89
-26.60
-35.31
-43.79
-50.32
-53.18
-51.18
-44.18
-33.15
-19.88
-6.38
5.68
15.29
22.13
26.33
28.23
28.31
27.07
25.08
22.84
20.73
18.87
17.12
15.24
12.96
10.19
7.04
3.77
0.65
-2.17
-4.77
-7.46
-10.76
-15.20
-21.16
-28.71
-37.31
-45.87
-52.77
-56.29
-55.09
-48.72
-37.80
-23.90
-9.04
4.93
16.70
25.67
31.77
35.20
36.32
35.53
33.34
30.39
27.27
24.38
21.75
19.09
15.98
12.09
7.42
2.29
-2.78
-7.30
-11.06
-14.23
-17.30
-20.96
-25.80
-32.00
-39.10
-45.94
-50.97
-52.65
-49.98
-42.88
-32.14
-19.17
-5.48
7.61
19.21
28.71
35.75
40.14
41.86
41.29
39.10
36.16
33.17
30.48
27.97
25.23
21.84
17.62
12.75
7.72
3.03
-0.97
-4.30
-7.27
-10.41
-14.25
-19.14
-25.10
-31.64
-37.86
-42.51
-44.40
-42.70
-37.25
-28.54
-17.57
-5.51
6.52
17.68
27.28
34.85
40.02
42.65
42.89
41.23
38.41
35.20
32.15
29.46
27.04
24.64
22.08
19.32
16.51
13.81
11.31
8.91
6.38
3.43
-0.16
-4.54
-9.73
-15.65
-21.96
-28.01
-32.81
-35.31
-34.67
-30.64
-23.68
-14.77
-5.12
4.26
12.66
19.71
25.17
28.86
30.66
30.62
29.07
26.55
23.67
20.86
18.34
16.06
13.84
11.51
8.98
6.22
3.27
0.20
-2.94
-6.12
-9.40
-12.95
-17.01
-21.76
-27.13
-32.68
-37.51
-40.52
-40.77
-37.75
-31.66
-23.30
-13.81
-4.29
4.38
11.67
17.29
21.12
23.10
23.33
22.16
20.08
17.68
15.35
13.24
11.26
9.17
6.82
4.15
1.24
-1.80
-4.89
-8.01
-11.23
-14.68
-18.58
-23.11
-28.29
-33.78
-38.77
-42.12
-42.68
-39.72
-33.23
-24.02
-13.38
-2.78
6.59
13.93
18.97
21.80
22.78
22.39
21.18
19.65
18.23
17.14
16.39
15.79
15.03
13.75
11.74
8.91
5.42
1.54
-2.44
-6.33
-10.18
-14.20
-18.75
-23.99
-29.75
-35.33
-39.61
-41.41
-39.87
-34.76
-26.60
-16.46
-5.63
4.69
13.55
20.36
24.80
26.89
26.98
25.66
23.73
21.86
20.45
19.49
18.70
17.69
16.17
14.03
11.36
8.34
5.22
2.20
-0.63
-3.31
-6.12
-9.48
-13.80
-19.22
-25.35
-31.25
-35.65
-37.28
-35.36
-29.90
-21.65
-11.83
-1.73
7.63
15.61
21.91
26.41
29.03
29.79
28.87
26.77
24.19
21.88
20.29
19.50
19.15
18.71
17.71
15.97
13.64
11.04
8.46
6.03
3.63
0.98
-2.26
-6.38
-11.52
-17.54
-24.00
-29.99
-34.38
-36.05
-34.29
-29.11
-21.29
-12.10
-2.87
5.36
12.08
17.16
20.62
22.47
22.76
21.67
19.57
17.06
14.67
12.76
11.33
10.12
8.78
7.02
4.75
2.05
-0.88
-3.83
-6.63
-9.24
-11.84
-14.76
-18.37
-22.93
-28.35
-33.98
-38.74
-41.37
-40.84
-36.79
-29.60
-20.35
-10.38
-0.92
7.19
13.57
18.14
21.00
22.32
22.29
21.20
19.42
17.34
15.26
13.28
11.27
8.99
6.24
2.99
-0.62
-4.35
-7.98
-11.48
-14.93
-18.55
-22.57
-27.11
-32.09
-37.20
-41.81
-45.09
-46.19
-44.47
-39.77
-32.51
-23.62
-14.30
-5.62
1.72
7.41
11.53
14.32
16.04
16.91
17.09
16.73
15.92
14.73
13.15
11.20
8.90
6.37
3.75
1.21
-1.19
-3.49
-5.84
-8.47
-11.69
-15.81
-21.07
-27.39
-34.25
-40.61
-45.15
-46.62
-44.37
-38.57
-30.18
-20.53
-10.89
-2.10
5.41
11.51
16.19
19.45
21.34
22.10
22.03
21.49
20.70
19.68
18.24
16.17
13.35
9.84
5.87
1.74
-2.26
-6.00
-9.59
-13.29
-17.51
-22.62
-28.76
-35.66
-42.52
-48.16
-51.33
-51.05
-46.98
-39.53
-29.58
-18.26
-6.55
4.79
15.22
24.20
31.19
35.78
37.84
37.72
36.17
34.07
32.04
30.28
28.57
26.49
23.71
20.15
15.99
11.60
7.28
3.23
-0.57
-4.31
-8.34
-13.07
-18.83
-25.62
-32.99
-39.87
-44.81
-46.37
-43.62
-36.50
-25.89
-13.27
-0.25
11.87
22.28
30.57
36.55
40.14
41.39
40.64
38.56
36.00
33.74
32.11
30.97
29.78
27.98
25.30
21.82
17.95
14.08
10.43
6.95
3.38
-0.64
-5.39
-11.05
-17.59
-24.71
-31.69
-37.52
-40.97
-40.97
-37.00
-29.28
-18.75
-6.85
4.89
15.19
23.20
28.59
31.39
31.99
30.93
28.85
26.31
23.78
21.51
19.59
17.98
16.52
15.03
13.29
11.12
8.33
4.90
0.90
-3.53
-8.27
-13.29
-18.73
-24.69
-30.99
-36.98
-41.56
-43.42
-41.52
-35.51
-25.93
-14.06
-1.57
10.00
19.51
26.40
30.53
32.07
31.41
29.06
25.67
21.92
18.39
15.38
12.92
10.76
8.56
6.05
3.12
-0.16
-3.62
-7.10
-10.58
-14.15
-18.12
-22.84
-28.55
-35.11
-41.83
-47.44
-50.37
-49.25
-43.41
-33.18
-19.82
-5.15
9.00
21.27
30.87
37.63
41.64
43.20
42.64
40.39
36.90
32.66
28.05
23.29
18.43
13.45
8.35
3.22
-1.78
-6.47
-10.81
-14.89
-18.98
-23.48
-28.86
-35.46
-43.24
-51.55
-59.11
-64.25
-65.32
-61.34
-52.34
-39.36
-24.11
-8.38
6.33
19.10
29.45
37.26
42.54
45.49
46.49
46.06
44.75
43.04
41.11
38.86
36.06
32.47
28.07
23.12
18.08
13.49
9.65
6.53
3.69
0.45
-3.91
-9.85
-17.31
-25.59
-33.40
-39.11
-41.17
-38.59
-31.28
-20.08
-6.53
7.58
20.71
31.87
40.65
46.97
50.98
52.84
52.78
51.22
48.70
45.79
42.87
40.04
37.06
33.60
29.39
24.52
19.32
14.30
9.82
6.02
2.72
-0.53
-4.24
-8.89
-14.72
-21.62
-29.01
-35.84
-40.78
-42.56
-40.32
-33.95
-24.14
-12.21
0.25
11.79
21.36
28.42
32.93
35.15
35.51
34.49
32.59
30.27
27.95
25.87
24.08
22.33
20.26
17.55
14.16
10.34
6.59
3.24
0.37
-2.35
-5.47
-9.57
-14.97
-21.62
-28.97
-36.06
-41.62
-44.39
-43.39
-38.28
-29.58
-18.49
-6.59
4.61
14.05
21.24
26.10
28.77
29.52
28.63
26.54
23.85
21.18
19.04
17.55
16.42
15.10
13.04
9.90
5.78
1.06
-3.80
-8.44
-12.83
-17.27
-22.20
-28.03
-34.85
-42.18
-49.01
-53.97
-55.75
-53.52
-47.21
-37.48
-25.52
-12.69
-0.25
10.82
19.79
26.23
30.03
31.42
31.00
29.52
27.73
26.05
24.57
23.03
21.12
18.56
15.28
11.38
7.09
2.67
-1.63
-5.62
-9.32
-12.93
-16.95
-21.90
-28.09
-35.24
-42.35
-47.94
-50.42
-48.78
-42.88
-33.47
-21.89
-9.62
2.17
12.71
21.58
28.58
33.52
36.29
36.94
35.74
33.21
30.00
26.74
23.82
21.33
19.05
16.66
13.93
10.80
7.45
4.19
1.23
-1.43
-3.99
-6.83
-10.39
-14.97
-20.58
-26.75
-32.48
-36.44
-37.39
-34.55
-28.00
-18.64
-7.81
3.16
13.30
22.13
29.50
35.31
39.41
41.60
41.81
40.29
37.63
34.61
31.88
29.80
28.28
26.93
25.19
22.65
19.20
15.03
10.56
6.23
2.31
-1.21
-4.57
-8.13
-12.26
-17.15
-22.74
-28.56
-33.75
-37.25
-38.01
-35.45
-29.62
-21.28
-11.62
-1.92
6.77
13.77
18.77
21.75
22.83
22.35
20.80
18.78
16.82
15.24
14.03
12.95
11.66
9.85
7.40
4.35
0.90
-2.73
-6.33
-9.75
-12.96
-16.07
-19.34
-23.06
-27.42
-32.24
-36.95
-40.55
-41.88
-40.06
-34.80
-26.63
-16.72
-6.59
2.42
9.42
14.10
16.63
17.40
16.92
15.58
13.73
11.60
9.36
7.03
4.62
2.07
-0.60
-3.32
-6.00
-8.58
-11.08
-13.60
-16.33
-19.52
-23.43
-28.26
-33.95
-40.05
-45.65
-49.47
-50.20
-46.98
-39.75
-29.31
-17.11
-4.91
5.85
14.19
19.76
22.69
23.46
22.60
20.70
18.25
15.66
13.22
11.04
9.05
7.04
4.76
1.97
-1.36
-5.12
-9.05
-12.93
-16.70
-20.50
-24.70
-29.63
-35.33
-41.40
-46.86
-50.41
-50.75
-47.10
-39.48
-28.75
-16.35
-3.84
7.52
17.00
24.30
29.43
32.48
33.63
33.14
31.50
29.30
27.09
25.19
23.60
22.09
20.32
18.06
15.28
12.13
8.87
5.65
2.49
-0.79
-4.59
-9.33
-15.28
-22.23
-29.46
-35.71
-39.52
-39.65
-35.58
-27.63
-16.96
-5.05
6.63
17.00
25.50
31.91
36.24
38.58
39.14
38.25
36.40
34.10
31.74
29.48
27.23
24.78
22.01
18.90
15.64
12.41
9.31
6.21
2.89
-0.94
-5.53
-10.96
-17.21
-24.11
-31.23
-37.80
-42.72
-44.78
-43.08
-37.37
-28.29
-17.18
-5.74
4.55
12.77
18.60
22.25
24.19
24.86
24.64
23.76
22.39
20.59
18.44
15.96
13.25
10.39
7.48
4.60
1.72
-1.20
-4.23
-7.42
-10.85
-14.65
-19.00
-24.08
-29.88
-35.97
-41.41
-44.83
-44.92
-40.89
-32.88
-21.99
-9.94
1.54
11.23
18.61
23.75
26.95
28.48
28.56
27.41
25.33
22.72
19.93
17.13
14.22
10.95
7.11
2.63
-2.28
-7.29
-12.01
-16.23
-19.96
-23.54
-27.48
-32.31
-38.20
-44.79
-51.06
-55.61
-57.04
-54.45
-47.73
-37.58
-25.23
-12.11
0.45
11.44
20.20
26.45
30.25
31.99
32.21
31.59
30.62
29.66
28.74
27.68
26.15
23.83
20.49
16.17
11.23
6.21
1.67
-2.10
-5.26
-8.41
-12.32
-17.57
-24.24
-31.66
-38.53
-43.21
-44.23
-40.72
-32.76
-21.29
-7.83
5.96
18.73
29.61
38.20
44.37
48.15
49.64
49.13
47.16
44.43
41.64
39.23
37.27
35.48
33.40
30.63
27.03
22.78
18.20
13.73
9.59
5.75
1.97
-2.14
-6.94
-12.60
-19.03
-25.81
-32.15
-37.04
-39.38
-38.30
-33.43
-25.10
-14.31
-2.48
8.89
18.59
25.96
30.84
33.46
34.24
33.62
32.06
29.97
27.71
25.57
23.66
21.94
20.20
18.18
15.67
12.55
8.90
4.92
0.84
-3.18
-7.06
-10.93
-14.97
-19.37
-24.04
-28.56
-32.12
-33.77
-32.76
-28.85
-22.44
-14.52
-6.25
1.34
7.62
12.34
15.46
16.99
16.97
15.53
13.02
10.04
7.19
4.95
3.42
2.33
1.21
-0.38
-2.60
-5.38
-8.42
-11.49
-14.47
-17.49
-20.79
-24.69
-29.38
-34.85
-40.75
-46.38
-50.69
-52.52
-50.88
-45.37
-36.30
-24.72
-12.08
0.15
10.80
19.20
25.11
28.62
30.02
29.73
28.29
26.23
24.00
21.86
19.84
17.81
15.56
12.92
9.84
6.36
2.61
-1.26
-5.16
-9.16
-13.49
-18.52
-24.53
-31.54
-39.03
-45.96
-50.87
-52.35
-49.44
-42.04
-30.93
-17.53
-3.47
9.77
21.16
30.15
36.52
40.29
41.69
41.11
39.16
36.57
34.01
31.90
30.28
28.85
27.19
24.91
21.88
18.25
14.37
10.57
7.02
3.59
-0.07
-4.45
-9.86
-16.33
-23.38
-30.12
-35.32
-37.70
-36.34
-30.92
-21.90
-10.46
1.86
13.55
23.47
30.98
35.96
38.63
39.38
38.71
37.12
35.09
32.96
30.91
28.88
26.67
24.06
20.94
17.37
13.57
9.85
6.49
3.66
1.27
-0.99
-3.69
-7.39
-12.39
-18.52
-25.02
-30.67
-34.19
-34.58
-31.50
-25.35
-17.11
-8.06
0.57
7.80
13.14
16.47
18.00
18.13
17.28
15.83
14.07
12.25
10.51
8.95
7.54
6.17
4.68
2.95
0.95
-1.23
-3.51
-5.82
-8.25
-11.01
-14.31
-18.32
-22.95
-27.84
-32.30
-35.46
-36.48
-34.80
-30.35
-23.70
-15.91
-8.24
-1.79
2.80
5.42
6.49
6.68
6.78
7.40
8.84
11.06
13.62
15.84
16.96
16.39
13.88
9.65
4.25
-1.62
-7.42
-12.91
-18.17
-23.51
-29.27
-35.59
-42.23
-48.53
-53.48
-55.95
-55.02
-50.26
-41.93
-30.99
-18.84
-6.93
3.51
11.76
17.55
21.00
22.45
22.38
21.35
19.88
18.37
17.01
15.71
14.19
12.14
9.36
5.86
1.82
-2.49
-6.93
-11.48
-16.29
-21.61
-27.61
-34.31
-41.31
-47.76
-52.40
-53.82
-50.93
-43.39
-31.79
-17.56
-2.47
11.80
24.07
33.74
40.65
44.93
46.80
46.69
45.15
42.85
40.37
38.02
35.73
33.23
30.23
26.70
22.81
18.92
15.29
11.89
8.41
4.37
-0.71
-7.05
-14.50
-22.54
-30.28
-36.53
-39.99
-39.63
-34.92
-26.11
-14.22
-0.74
12.72
24.83
34.69
41.90
46.39
48.29
47.95
45.87
42.74
39.25
35.94
32.99
30.28
27.50
24.34
20.70
16.73
12.73
8.95
5.46
2.08
-1.56
-5.87
-11.17
-17.58
-24.87
-32.38
-38.98
-43.30
-44.05
-40.47
-32.71
-21.80
-9.38
2.85
13.53
21.94
27.83
31.30
32.65
32.31
30.77
28.62
26.34
24.20
22.13
19.88
17.14
13.77
9.89
5.74
1.64
-2.18
-5.65
-8.87
-12.09
-15.72
-20.23
-25.87
-32.45
-39.11
-44.40
-46.68
-44.68
-38.03
-27.45
-14.54
-1.21
10.83
20.54
27.49
31.80
33.85
34.05
32.89
30.83
28.28
25.57
22.82
19.97
16.81
13.16
8.96
4.33
-0.47
-5.18
-9.67
-14.00
-18.48
-23.54
-29.49
-36.40
-43.87
-50.94
-56.31
-58.61
-56.83
-50.67
-40.62
-27.83
-13.79
0.12
12.81
23.56
31.96
37.74
40.86
41.52
40.21
37.67
34.62
31.59
28.75
25.94
22.87
19.32
15.26
10.84
6.26
1.69
-2.80
-7.25
-11.81
-16.71
-22.27
-28.66
-35.61
-42.25
-47.14
-48.78
-46.07
-38.90
-28.09
-15.12
-1.49
11.63
23.59
34.00
42.52
48.71
52.23
53.00
51.43
48.34
44.67
41.19
38.16
35.44
32.60
29.13
24.82
19.77
14.38
9.12
4.33
0.08
-3.85
-7.89
-12.48
-17.92
-24.29
-31.28
-38.18
-43.84
-46.98
-46.48
-41.84
-33.34
-22.02
-9.33
3.26
14.62
24.14
31.54
36.79
39.91
40.99
40.24
38.10
35.13
31.94
28.91
26.21
23.64
20.89
17.68
13.93
9.78
5.50
1.30
-2.79
-6.90
-11.25
-15.96
-21.07
-26.50
-32.13
-37.69
-42.78
-46.70
-48.54
-47.46
-43.00
-35.34
-25.37
-14.42
-3.79
5.52
13.06
18.76
22.73
25.09
25.95
25.47
24.01
22.06
20.15
18.56
17.28
15.97
14.11
11.32
7.59
3.23
-1.22
-5.36
-9.04
-12.49
-16.16
-20.49
-25.69
-31.71
-38.13
-44.22
-49.07
-51.62
-50.97
-46.62
-38.73
-28.13
-16.09
-4.03
6.94
16.14
23.34
28.46
31.54
32.63
31.94
29.82
26.89
23.82
21.04
18.66
16.43
13.95
10.90
7.23
3.15
-0.96
-4.80
-8.27
-11.52
-14.85
-18.56
-22.86
-27.88
-33.61
-39.78
-45.76
-50.53
-52.85
-51.61
-46.34
-37.40
-25.91
-13.38
-1.18
9.78
19.06
26.53
32.14
35.80
37.53
37.55
36.31
34.36
32.26
30.33
28.65
27.08
25.37
23.25
20.57
17.34
13.73
10.05
6.52
3.21
-0.07
-3.70
-8.06
-13.32
-19.36
-25.70
-31.56
-36.03
-38.23
-37.51
-33.69
-27.10
-18.45
-8.72
1.12
10.25
18.04
24.09
28.17
30.23
30.49
29.40
27.63
25.84
24.53
23.86
23.66
23.48
22.81
21.25
18.61
15.00
10.73
6.20
1.73
-2.53
-6.62
-10.75
-15.13
-19.87
-24.88
-29.75
-33.81
-36.28
-36.45
-33.94
-28.88
-21.86
-13.81
-5.73
1.58
7.65
12.30
15.50
17.33
17.89
17.33
16.00
14.29
12.57
11.09
9.80
8.46
6.73
4.38
1.40
-1.97
-5.40
-8.59
-11.47
-14.24
-17.28
-20.99
-25.58
-30.91
-36.49
-41.56
-45.21
-46.61
-45.19
-40.80
-33.75
-24.84
-15.13
-5.72
2.52
9.05
13.75
16.74
18.23
18.48
17.78
16.46
14.84
13.16
11.42
9.47
7.02
3.90
0.19
-3.77
-7.48
-10.57
-12.92
-14.78
-16.69
-19.31
-23.19
-28.50
-34.96
-41.79
-47.78
-51.64
-52.22
-48.87
-41.65
-31.27
-18.95
-6.11
5.97
16.32
24.39
30.03
33.31
34.56
34.25
32.96
31.29
29.76
28.60
27.68
26.56
24.68
21.68
17.48
12.39
6.97
1.73
-3.00
-7.20
-11.17
-15.40
-20.43
-26.57
-33.65
-40.86
-46.81
-49.86
-48.71
-42.84
-32.76
-19.81
-5.75
7.77
19.48
28.67
35.06
38.76
40.15
39.80
38.40
36.58
34.82
33.30
31.91
30.42
28.48
25.79
22.19
17.74
12.74
7.65
2.99
-0.99
-4.35
-7.55
-11.21
-15.81
-21.45
-27.73
-33.73
-38.26
-40.15
-38.53
-33.12
-24.40
-13.51
-1.95
8.73
17.38
23.42
26.86
28.11
27.79
26.46
24.68
22.86
21.29
20.08
19.07
17.88
16.02
13.12
9.05
4.13
-1.04
-5.81
-9.73
-12.79
-15.41
-18.25
-21.91
-26.59
-31.92
-37.06
-40.85
-42.12
-39.99
-34.14
-24.93
-13.42
-1.10
10.37
19.66
26.01
29.36
30.15
29.06
26.81
23.99
21.01
18.14
15.49
13.03
10.59
7.97
5.05
1.77
-1.87
-5.87
-10.25
-15.03
-20.23
-25.82
-31.75
-37.95
-44.18
-49.89
-54.18
-55.89
-54.01
-48.06
-38.36
-25.98
-12.46
0.67
12.20
21.40
28.05
32.23
34.27
34.61
33.74
32.09
30.00
27.67
25.06
22.12
18.80
15.13
11.22
7.24
3.31
-0.57
-4.55
-8.95
-14.11
-20.31
-27.62
-35.83
-44.31
-51.98
-57.47
-59.37
-56.72
-49.28
-37.76
-23.62
-8.61
5.72
18.36
28.84
37.10
43.08
46.75
48.13
47.42
45.22
42.22
39.10
36.20
33.49
30.70
27.56
23.96
19.96
15.76
11.48
7.10
2.50
-2.54
-8.21
-14.69
-22.04
-30.14
-38.49
-46.16
-51.84
-54.18
-52.17
-45.53
-34.83
-21.28
-6.46
8.18
21.51
32.82
41.70
47.96
51.61
52.81
51.99
49.74
46.81
43.85
41.28
39.17
37.28
35.16
32.44
28.95
24.82
20.39
16.01
11.86
7.88
3.74
-0.98
-6.61
-13.30
-20.95
-29.13
-37.12
-43.86
-48.16
-48.89
-45.39
-37.74
-26.81
-14.05
-1.08
10.72
20.50
27.96
33.17
36.34
37.66
37.37
35.79
33.41
30.79
28.36
26.33
24.57
22.72
20.39
17.35
13.60
9.40
5.10
0.98
-2.85
-6.53
-10.35
-14.70
-19.88
-25.92
-32.46
-38.71
-43.52
-45.64
-44.16
-38.71
-29.70
-18.23
-5.78
6.22
16.60
24.65
30.13
33.07
33.70
32.41
29.80
26.55
23.37
20.75
18.83
17.37
15.81
13.68
10.77
7.22
3.44
-0.21
-3.56
-6.80
-10.29
-14.48
-19.65
-25.87
-32.95
-40.35
-47.24
-52.42
-54.64
-52.84
-46.61
-36.36
-23.29
-9.09
4.56
16.32
25.42
31.63
35.11
36.26
35.60
33.75
31.29
28.74
26.44
24.48
22.70
20.75
18.27
15.01
11.01
6.57
2.13
-1.92
-5.47
-8.77
-12.36
-16.87
-22.79
-30.18
-38.53
-46.71
-53.20
-56.41
-55.20
-49.20
-39.02
-25.97
-11.75
2.10
14.52
25.01
33.40
39.70
43.86
45.82
45.70
43.82
40.80
37.38
34.18
31.52
29.35
27.29
24.84
21.66
17.66
13.08
8.34
3.88
-0.11
-3.70
-7.27
-11.37
-16.49
-22.87
-30.33
-38.13
-45.11
-49.85
-51.07
-47.95
-40.49
-29.42
-16.12
-2.22
10.83
21.99
30.74
36.98
40.85
42.62
42.63
41.29
39.07
36.50
34.01
31.88
30.16
28.73
27.33
25.67
23.56
20.92
17.86
14.55
11.23
8.00
4.81
1.45
-2.41
-7.06
-12.64
-19.02
-25.86
-32.57
-38.40
-42.53
-44.15
-42.63
-37.75
-29.75
-19.44
-7.99
3.27
13.23
21.15
26.79
30.29
31.97
32.22
31.37
29.75
27.65
25.40
23.28
21.53
20.18
19.16
18.25
17.18
15.76
13.87
11.54
8.88
6.05
3.18
0.29
-2.69
-5.89
-9.39
-13.18
-17.13
-20.98
-24.39
-26.91
-28.08
-27.53
-25.10
-20.93
-15.52
-9.55
-3.74
1.37
5.49
8.58
10.67
11.83
12.08
11.51
10.35
8.96
7.79
7.18
7.21
7.65
8.11
8.16
7.55
6.22
4.34
2.12
-0.23
-2.58
-4.87
-7.09
-9.28
-11.57
-14.08
-16.84
-19.77
-22.50
-24.53
-25.33
-24.54
-22.08
-18.19
-13.33
-8.04
-2.82
1.93
5.97
9.17
11.51
13.06
13.85
13.92
13.20
11.66
9.28
6.19
2.66
-0.96
-4.33
-7.25
-9.64
-11.55
-13.06
-14.28
-15.30
-16.25
-17.33
-18.75
-20.68
-23.19
-26.18
-29.32
-32.08
-33.90
-34.28
-33.01
-30.12
-25.95
-21.00
-15.78
-10.69
-6.03
-2.02
1.16
3.28
4.26
4.12
3.14
1.72
0.30
-0.83
-1.58
-2.05
-2.46
-3.02
-3.82
-4.88
-6.10
-7.44
-8.87
-10.49
-12.42
-14.77
-17.57
-20.73
-24.00
-27.07
-29.58
-31.14
-31.38
-30.00
-26.85
-22.00
-15.83
-8.93
-2.05
4.11
9.11
12.72
15.00
16.15
16.48
16.25
15.72
15.05
14.31
13.47
12.45
11.12
9.44
7.40
5.11
2.75
0.42
-1.85
-4.21
-6.88
-10.04
-13.74
-17.81
-21.95
-25.71
-28.67
-30.40
-30.48
-28.65
-24.80
-19.18
-12.36
-5.15
1.69
7.60
12.34
15.87
18.26
19.56
19.83
19.22
17.98
16.49
15.10
14.00
13.21
12.62
12.10
11.56
10.95
10.26
9.48
8.51
7.21
5.43
2.97
-0.33
-4.52
-9.45
-14.72
-19.69
-23.56
-25.60
-25.29
-22.52
-17.56
-11.05
-3.84
3.22
9.35
14.08
17.17
18.74
19.07
18.63
17.86
17.15
16.76
16.83
17.41
18.38
19.50
20.41
20.71
20.08
18.42
15.87
12.77
9.48
6.18
2.86
-0.70
-4.74
-9.37
-14.41
-19.41
-23.72
-26.64
-27.61
-26.35
-22.94
-17.82
-11.69
-5.43
0.21
4.68
7.77
9.58
10.42
10.60
10.38
9.87
9.15
8.29
7.40
6.61
5.98
5.48
5.00
4.44
3.74
2.89
1.93
0.80
-0.67
-2.69
-5.39
-8.69
-12.21
-15.34
-17.44
-18.04
-17.01
-14.51
-10.99
-6.97
-2.97
0.60
3.40
5.21
5.86
5.31
3.74
1.48
-0.98
-3.22
-4.95
-6.12
-6.93
-7.73
-8.84
-10.54
-12.84
-15.56
-18.31
-20.71
-22.52
-23.84
-25.07
-26.86
-29.85
-34.38
-40.36
-47.07
-53.34
-57.69
-58.74
-55.54
-47.93
-36.64
-23.09
-9.09
3.68
13.98
21.24
25.41
26.88
26.21
24.12
21.32
18.49
16.09
14.26
12.78
11.21
9.12
6.32
2.95
-0.65
-4.16
-7.45
-10.67
-14.22
-18.49
-23.78
-30.03
-36.78
-43.15
-47.95
-49.88
-47.96
-41.79
-31.76
-18.89
-4.62
9.65
22.77
33.92
42.56
48.37
51.21
51.30
49.19
45.75
41.93
38.48
35.70
33.48
31.44
29.14
26.28
22.76
18.61
14.00
9.15
4.33
-0.08
-3.74
-6.42
-8.16
-9.27
-10.15
-11.02
-11.59
-11.12
-8.60
-3.26
5.08
15.72
27.36
38.43
47.63
54.18
57.85
58.81
57.39
54.01
49.16
43.51
37.80
32.79
28.91
26.20
24.20
22.23
19.67
16.19
11.88
7.12
2.39
-2.06
-6.23
-10.36
-14.79
-19.75
-25.20
-30.68
-35.34
-38.08
-37.83
-33.95
-26.46
-16.24
-4.72
6.49
16.07
23.23
27.77
29.92
30.07
28.69
26.22
23.12
19.82
16.70
13.89
11.37
8.97
6.49
3.87
1.13
-1.59
-4.26
-6.95
-9.88
-13.36
-17.60
-22.69
-28.46
-34.46
-39.90
-43.79
-45.02
-42.73
-36.61
-27.05
-15.22
-2.69
8.91
18.32
24.91
28.67
30.03
29.60
28.07
25.93
23.52
20.94
18.15
14.95
11.20
6.84
2.02
-2.97
-7.73
-11.88
-15.16
-17.53
-19.25
-20.87
-23.11
-26.65
-31.70
-37.79
-43.67
-47.53
-47.64
-42.98
-33.65
-20.83
-6.34
7.94
20.61
30.87
38.44
43.36
45.79
46.03
44.53
41.90
38.75
35.54
32.42
29.24
25.69
21.52
16.71
11.49
6.27
1.49
-2.60
-6.02
-9.08
-12.32
-16.35
-21.58
-28.10
-35.37
-42.21
-47.01
-48.15
-44.52
-36.02
-23.63
-9.04
5.85
19.52
31.13
40.38
47.25
51.74
53.86
53.74
51.83
48.89
45.77
43.06
40.89
38.93
36.58
33.36
29.11
24.09
18.84
13.93
9.74
6.31
3.29
0.14
-3.73
-8.72
-14.96
-22.21
-29.81
-36.74
-41.72
-43.45
-41.00
-34.18
-23.71
-11.06
1.94
13.63
22.92
29.42
33.33
35.06
35.05
33.70
31.42
28.66
25.89
23.47
21.48
19.76
17.94
15.66
12.76
9.31
5.62
2.15
-0.77
-3.03
-4.84
-6.67
-9.11
-12.63
-17.35
-22.96
-28.63
-33.22
-35.58
-34.88
-30.88
-24.08
-15.51
-6.51
1.73
8.39
13.17
16.18
17.81
18.42
18.31
17.67
16.61
15.25
13.72
12.14
10.57
8.99
7.28
5.35
3.22
1.04
-1.00
-2.75
-4.31
-5.96
-8.16
-11.26
-15.43
-20.50
-26.01
-31.27
-35.43
-37.67
-37.38
-34.37
-28.89
-21.67
-13.63
-5.67
1.56
7.68
12.49
15.90
17.84
18.35
17.65
16.10
14.19
12.30
10.59
8.98
7.21
5.05
2.39
-0.66
-3.87
-6.93
-9.69
-12.15
-14.58
-17.34
-20.79
-25.14
-30.33
-35.94
-41.24
-45.28
-47.06
-45.81
-41.18
-33.40
-23.25
-11.88
-0.58
9.53
17.63
23.30
26.50
27.53
26.89
25.22
23.10
21.05
19.34
18.01
16.84
15.54
13.76
11.28
8.10
4.41
0.56
-3.05
-6.12
-8.61
-10.69
-12.80
-15.52
-19.27
-24.23
-30.01
-35.72
-40.06
-41.75
-39.92
-34.42
-25.91
-15.54
-4.69
5.49
14.19
21.02
25.88
28.87
30.22
30.25
29.38
28.07
26.79
25.89
25.50
25.52
25.58
25.23
24.09
21.98
19.05
15.67
12.32
9.27
6.55
3.86
0.79
-2.96
-7.40
-12.24
-16.87
-20.58
-22.73
-22.83
-20.70
-16.51
-10.71
-4.00
2.86
9.17
14.38
18.21
20.68
21.96
22.37
22.22
21.70
20.98
20.12
19.13
18.01
16.70
15.20
13.49
11.58
9.51
7.31
5.01
2.63
0.16
-2.46
-5.31
-8.46
-11.91
-15.54
-19.08
-22.13
-24.22
-24.96
-24.16
-21.85
-18.28
-13.84
-8.97
-4.13
0.27
3.86
6.41
7.82
8.19
7.73
6.70
5.36
3.92
2.55
1.42
0.68
0.37
0.42
0.58
0.58
0.23
-0.52
-1.55
-2.65
-3.77
-4.93
-6.36
-8.24
-10.65
-13.40
-16.14
-18.36
-19.63
-19.73
-18.67
-16.68
-14.04
-11.06
-7.99
-5.10
-2.67
-1.05
-0.48
-0.99
-2.34
-4.06
-5.63
-6.66
-7.09
-7.07
-6.85
-6.64
-6.45
-6.23
-5.96
-5.64
-5.45
-5.56
-6.16
-7.33
-9.13
-11.45
-14.06
-16.65
-18.84
-20.28
-20.71
-19.99
-18.14
-15.32
-11.79
-7.92
-4.09
-0.65
2.13
4.11
5.27
5.79
5.95
6.10
6.54
7.33
8.31
9.15
9.43
8.91
7.60
5.73
3.62
1.51
-0.58
-2.80
-5.38
-8.54
-12.35
-16.68
-21.27
-25.69
-29.44
-31.95
-32.75
-31.58
-28.49
-23.94
-18.62
-13.39
-9.03
-6.09
-4.75
-4.85
-5.95
-7.58
-9.34
-11.00
-12.48
-13.76
-14.74
-15.30
-15.28
-14.67
-13.66
-12.67
-12.22
-12.72
-14.39
-17.23
-21.11
-25.84
-31.22
-36.84
-42.08
-46.00
-47.56
-45.98
-40.99
-33.07
-23.34
-13.17
-3.85
3.72
9.15
12.48
14.00
14.12
13.27
11.83
10.13
8.32
6.49
4.68
2.90
1.12
-0.68
-2.59
-4.74
-7.22
-10.08
-13.37
-17.16
-21.62
-26.90
-33.00
-39.44
-45.17
-48.74
-48.63
-43.94
-34.64
-21.78
-7.07
7.64
20.73
31.20
38.65
43.15
45.07
44.93
43.32
40.78
37.79
34.60
31.31
27.94
24.46
20.83
17.04
13.05
8.84
4.32
-0.55
-5.89
-11.81
-18.47
-25.77
-33.24
-39.84
-44.09
-44.44
-39.84
-30.18
-16.46
-0.46
15.69
30.20
41.86
50.24
55.46
57.95
58.26
56.93
54.47
51.37
48.04
44.74
41.59
38.55
35.45
32.11
28.39
24.25
19.71
14.80
9.49
3.64
-2.95
-10.30
-18.03
-25.21
-30.48
-32.38
-29.87
-22.76
-11.79
1.45
15.13
27.57
37.65
44.88
49.25
51.14
51.01
49.44
46.91
43.86
40.56
37.20
33.78
30.24
26.55
22.69
18.79
14.94
11.26
7.70
4.06
-0.00
-4.83
-10.52
-16.70
-22.41
-26.34
-27.09
-23.79
-16.40
-5.83
6.29
18.17
28.30
35.82
40.58
42.86
43.21
42.15
40.19
37.74
35.18
32.74
30.55
28.56
26.59
24.45
22.00
19.23
16.23
13.06
9.67
5.84
1.24
-4.28
-10.56
-16.87
-22.10
-25.01
-24.66
-20.77
-13.80
-4.85
4.69
13.53
20.76
25.96
29.13
30.55
30.59
29.57
27.74
25.27
22.34
19.13
15.83
12.61
9.56
6.63
3.73
0.72
-2.50
-6.00
-9.88
-14.25
-19.25
-24.92
-31.04
-36.92
-41.52
-43.63
-42.25
-37.01
-28.41
-17.67
-6.42
3.81
12.02
17.84
21.46
23.37
24.04
23.82
22.88
21.33
19.30
16.98
14.54
12.17
9.90
7.70
5.42
2.89
-0.01
-3.41
-7.33
-11.77
-16.58
-21.50
-26.08
-29.66
-31.53
-31.07
-28.01
-22.51
-15.24
-7.16
0.66
7.37
12.41
15.65
17.24
17.51
16.85
15.57
13.87
11.86
9.66
7.38
5.19
3.21
1.45
-0.20
-1.95
-4.03
-6.57
-9.62
-13.13
-17.07
-21.32
-25.67
-29.60
-32.39
-33.23
-31.49
-27.00
-20.13
-11.73
-2.94
5.10
11.50
15.78
17.87
18.08
16.99
15.28
13.55
12.11
11.04
10.13
9.13
7.81
6.12
4.17
2.12
0.11
-1.81
-3.74
-5.85
-8.34
-11.40
-15.16
-19.63
-24.58
-29.43
-33.32
-35.20
-34.22
-30.02
-22.94
-13.89
-4.13
5.11
12.94
18.87
22.82
24.92
25.40
24.53
22.58
19.86
16.75
13.70
11.18
9.54
8.83
8.76
8.73
8.13
6.56
3.99
0.74
-2.71
-5.98
-8.95
-11.74
-14.67
-18.04
-21.98
-26.33
-30.55
-33.86
-35.35
-34.34
-30.65
-24.64
-17.18
-9.29
-1.83
4.68
10.04
14.27
17.38
19.34
20.13
19.83
18.69
17.10
15.51
14.21
13.33
12.73
12.15
11.33
10.14
8.62
6.89
5.06
3.13
0.99
-1.48
-4.30
-7.37
-10.51
-13.60
-16.70
-20.04
-23.79
-27.94
-32.09
-35.55
-37.45
-37.11
-34.23
-28.97
-21.89
-13.85
-5.78
1.52
7.47
11.79
14.46
15.73
15.97
15.62
15.08
14.70
14.71
15.19
16.03
16.98
17.73
18.02
17.71
16.84
15.58
14.08
12.43
10.63
8.61
6.33
3.85
1.28
-1.22
-3.57
-5.76
-7.89
-10.11
-12.58
-15.39
-18.41
-21.27
-23.38
-24.10
-22.94
-19.80
-15.04
-9.38
-3.67
1.43
5.53
8.54
10.59
11.85
12.45
12.52
12.28
11.92
11.64
11.44
11.15
10.54
9.48
8.01
6.33
4.70
3.25
1.95
0.69
-0.61
-2.00
-3.46
-4.98
-6.62
-8.45
-10.54
-12.89
-15.40
-17.94
-20.28
-22.09
-22.97
-22.52
-20.53
-17.11
-12.73
-8.02
-3.61
0.10
2.95
5.03
6.44
7.32
7.71
7.70
7.33
6.72
6.01
5.35
4.93
4.83
5.00
5.16
4.99
4.16
2.61
0.41
-2.22
-5.12
-8.24
-11.60
-15.19
-18.90
-22.50
-25.79
-28.60
-30.83
-32.37
-32.98
-32.40
-30.41
-27.03
-22.52
-17.37
-12.06
-7.03
-2.54
1.21
4.13
6.14
7.27
7.57
7.18
6.32
5.19
4.03
3.06
2.44
2.14
1.91
1.35
0.07
-2.11
-4.99
-8.08
-10.79
-12.73
-13.91
-14.71
-15.65
-17.17
-19.44
-22.33
-25.47
-28.38
-30.49
-31.28
-30.35
-27.53
-22.97
-17.12
-10.66
-4.34
1.20
5.55
8.53
10.22
10.86
10.80
10.44
10.09
9.92
9.96
10.03
9.92
9.42
8.48
7.11
5.45
3.64
1.80
-0.00
-1.73
-3.41
-5.06
-6.72
-8.47
-10.41
-12.60
-15.11
-17.86
-20.66
-23.10
-24.69
-24.92
-23.46
-20.29
-15.70
-10.25
-4.54
0.96
5.96
10.35
13.95
16.57
18.08
18.51
18.13
17.48
17.04
17.02
17.29
17.47
17.21
16.38
15.08
13.54
11.94
10.31
8.63
6.92
5.24
3.65
2.11
0.44
-1.59
-4.12
-7.09
-10.21
-13.06
-15.14
-16.12
-15.76
-14.05
-11.18
-7.49
-3.44
0.58
4.21
7.24
9.51
10.95
11.58
11.55
11.15
10.74
10.67
11.03
11.68
12.27
12.47
12.04
11.03
9.64
8.11
6.67
5.42
4.33
3.29
2.12
0.62
-1.37
-3.87
-6.74
-9.55
-11.77
-12.80
-12.31
-10.26
-7.03
-3.23
0.46
3.51
5.67
6.95
7.52
7.55
7.15
6.41
5.43
4.40
3.58
3.13
3.07
3.23
3.31
3.02
2.28
1.15
-0.12
-1.36
-2.45
-3.42
-4.28
-5.05
-5.72
-6.33
-7.01
-7.96
-9.36
-11.24
-13.37
-15.32
-16.61
-16.86
-15.91
-13.86
-11.02
-7.76
-4.51
-1.62
0.66
2.22
3.09
3.43
3.38
3.09
2.67
2.29
2.21
2.74
4.06
6.05
8.21
9.83
10.27
9.31
7.18
4.45
1.66
-1.02
-3.74
-6.84
-10.59
-14.95
-19.55
-23.83
-27.12
-28.78
-28.32
-25.49
-20.43
-13.70
-6.21
1.08
7.30
12.01
15.08
16.67
17.06
16.61
15.70
14.75
14.04
13.70
13.57
13.29
12.43
10.69
7.91
4.18
-0.25
-4.91
-9.29
-12.90
-15.51
-17.22
-18.50
-19.96
-22.07
-24.96
-28.33
-31.65
-34.21
-35.45
-34.91
-32.35
-27.82
-21.67
-14.52
-7.20
-0.48
5.10
9.25
11.99
13.48
13.98
13.79
13.23
12.62
12.19
12.07
12.18
12.28
12.08
11.33
9.95
8.11
6.10
4.27
2.86
1.84
0.96
-0.22
-2.08
-4.74
-7.98
-11.21
-13.60
-14.34
-12.85
-8.97
-3.03
4.23
11.89
19.02
24.97
29.39
32.23
33.59
33.64
32.59
30.69
28.30
25.85
23.71
22.06
20.87
19.96
19.08
18.11
17.06
16.02
15.01
13.91
12.41
10.25
7.22
3.30
-1.32
-6.42
-11.66
-16.73
-21.20
-24.56
-26.20
-25.65
-22.73
-17.72
-11.39
-4.78
1.03
5.29
7.74
8.54
8.16
7.12
5.82
4.50
3.29
2.26
1.48
1.01
0.85
0.93
1.07
1.05
0.62
-0.39
-2.03
-4.28
-7.02
-10.19
-13.76
-17.70
-21.97
-26.27
-30.04
-32.53
-32.98
-30.90
-26.29
-19.62
-11.73
-3.63
3.81
9.92
14.37
17.03
18.04
17.69
16.37
14.55
12.57
10.71
9.02
7.43
5.75
3.82
1.51
-1.14
-4.03
-7.04
-10.10
-13.32
-16.88
-21.06
-26.03
-31.81
-38.13
-44.36
-49.51
-52.45
-52.08
-47.75
-39.41
-27.78
-14.15
-0.12
12.85
23.65
31.69
36.82
39.24
39.38
37.78
35.02
31.65
28.05
24.41
20.69
16.71
12.34
7.57
2.59
-2.31
-6.91
-11.15
-15.22
-19.54
-24.57
-30.72
-38.15
-46.54
-55.07
-62.37
-66.89
-67.22
-62.63
-53.30
-40.27
-25.02
-9.02
6.63
21.21
34.22
45.22
53.73
59.35
62.08
62.30
60.82
58.45
55.82
53.14
50.30
47.00
42.99
38.23
32.83
27.07
21.15
15.22
9.29
3.29
-2.85
-9.26
-16.16
-23.78
-32.17
-40.83
-48.58
-53.82
-54.97
-51.16
-42.56
-30.31
-16.03
-1.28
12.85
25.75
37.11
46.60
53.87
58.64
60.94
61.10
59.71
57.35
54.44
51.26
47.94
44.60
41.25
37.92
34.51
30.88
26.93
22.63
18.11
13.55
9.10
4.77
0.48
-3.90
-8.48
-13.30
-18.50
-24.21
-30.52
-37.09
-43.02
-46.81
-46.87
-42.11
-32.49
-19.18
-4.18
10.42
23.06
32.97
40.11
44.78
47.25
47.73
46.40
43.64
40.06
36.37
33.23
30.99
29.59
28.63
27.57
25.89
23.34
19.97
16.05
11.99
8.10
4.54
1.21
-2.08
-5.64
-9.70
-14.47
-20.00
-26.13
-32.40
-37.98
-41.81
-42.80
-40.25
-34.11
-25.11
-14.54
-3.89
5.64
13.34
19.04
22.91
25.17
26.01
25.61
24.19
22.13
19.95
18.15
16.99
16.40
15.98
15.15
13.50
10.91
7.64
4.14
0.88
-1.90
-4.30
-6.65
-9.40
-12.96
-17.53
-23.06
-29.19
-35.24
-40.30
-43.30
-43.33
-39.91
-33.26
-24.27
-14.21
-4.40
4.26
11.36
16.92
21.11
24.00
25.52
25.62
24.48
22.63
20.75
19.44
18.82
18.60
18.12
16.80
14.32
10.78
6.60
2.28
-1.74
-5.25
-8.23
-10.84
-13.40
-16.27
-19.88
-24.58
-30.49
-37.36
-44.48
-50.72
-54.78
-55.44
-51.97
-44.40
-33.60
-20.98
-8.13
3.62
13.42
20.96
26.25
29.50
30.96
30.94
29.94
28.56
27.49
27.32
28.30
30.22
32.50
34.31
34.86
33.67
30.71
26.39
21.40
16.38
11.76
7.54
3.43
-1.01
-6.12
-12.02
-18.58
-25.45
-32.17
-38.14
-42.63
-44.86
-44.14
-40.08
-32.86
-23.21
-12.26
-1.27
8.73
17.09
23.55
28.19
31.19
32.82
33.32
32.98
32.09
30.97
29.83
28.81
27.89
26.99
25.93
24.59
22.88
20.86
18.58
16.15
13.62
10.99
8.17
5.03
1.48
-2.49
-6.80
-11.24
-15.56
-19.61
-23.29
-26.48
-28.98
-30.38
-30.17
-27.94
-23.59
-17.53
-10.52
-3.42
3.02
8.34
12.37
15.10
16.58
16.94
16.36
15.19
13.84
12.71
12.01
11.78
11.80
11.79
11.46
10.71
9.55
8.09
6.44
4.62
2.61
0.34
-2.27
-5.18
-8.31
-11.60
-15.04
-18.61
-22.21
-25.54
-28.13
-29.45
-29.08
-26.83
-22.86
-17.56
-11.46
-5.19
0.68
5.67
9.45
11.87
12.95
12.86
11.90
10.42
8.78
7.34
6.34
5.85
5.72
5.66
5.35
4.58
3.33
1.72
-0.09
-1.99
-4.03
-6.30
-8.93
-11.98
-15.45
-19.27
-23.30
-27.32
-30.90
-33.51
-34.55
-33.60
-30.55
-25.70
-19.69
-13.30
-7.19
-1.81
2.62
6.01
8.29
9.43
9.49
8.70
7.47
6.32
5.62
5.49
5.70
5.82
5.45
4.38
2.65
0.49
-1.81
-4.10
-6.33
-8.60
-11.02
-13.75
-16.92
-20.59
-24.72
-29.08
-33.25
-36.58
-38.41
-38.23
-35.78
-31.19
-24.87
-17.53
-9.89
-2.72
3.39
8.05
11.09
12.63
12.99
12.64
12.03
11.51
11.18
10.94
10.52
9.67
8.22
6.20
3.74
1.05
-1.65
-4.26
-6.69
-8.98
-11.23
-13.70
-16.73
-20.60
-25.39
-30.74
-35.83
-39.63
-41.11
-39.68
-35.31
-28.51
-20.14
-11.19
-2.57
4.97
10.93
15.07
17.44
18.34
18.17
17.40
16.37
15.32
14.37
13.54
12.77
12.00
11.14
10.21
9.26
8.44
7.89
7.59
7.31
6.63
5.04
2.08
-2.44
-8.32
-14.96
-21.41
-26.60
-29.57
-29.68
-26.77
-21.11
-13.37
-4.43
4.72
13.14
20.07
24.97
27.64
28.25
27.30
25.49
23.57
22.05
21.15
20.79
20.64
20.33
19.59
18.26
16.36
14.02
11.38
8.60
5.78
2.96
0.07
-3.07
-6.72
-11.08
-16.07
-21.27
-25.88
-29.00
-29.84
-28.02
-23.67
-17.38
-9.98
-2.36
4.73
10.74
15.39
18.52
20.21
20.67
20.23
19.26
18.13
17.10
16.30
15.70
15.14
14.37
13.16
11.33
8.94
6.15
3.21
0.34
-2.38
-5.10
-8.02
-11.37
-15.20
-19.31
-23.20
-26.24
-27.76
-27.27
-24.63
-19.99
-13.92
-7.18
-0.58
5.15
9.52
12.35
13.74
13.94
13.33
12.21
10.80
9.20
7.47
5.69
3.99
2.52
1.37
0.47
-0.40
-1.55
-3.30
-5.84
-9.17
-13.23
-17.87
-22.88
-27.94
-32.56
-36.09
-37.79
-37.10
-33.75
-27.98
-20.44
-12.07
-3.87
3.33
8.98
12.84
14.97
15.64
15.19
14.02
12.46
10.75
8.98
7.15
5.13
2.79
0.11
-2.88
-6.03
-9.22
-12.45
-15.91
-19.88
-24.62
-30.29
-36.81
-43.87
-50.84
-56.81
-60.63
-61.08
-57.24
-48.84
-36.43
-21.37
-5.48
9.47
22.05
31.47
37.53
40.48
40.91
39.56
37.15
34.30
31.34
28.29
24.99
21.25
17.07
12.59
8.05
3.64
-0.61
-4.88
-9.41
-14.56
-20.62
-27.85
-36.34
-45.83
-55.43
-63.48
-67.79
-66.31
-57.86
-42.76
-22.87
-0.92
20.30
38.74
53.43
64.24
71.43
75.28
76.04
74.08
70.10
65.10
60.05
55.51
51.46
47.35
42.54
36.64
29.81
22.55
15.56
9.22
3.51
-1.97
-7.93
-14.98
-23.47
-33.24
-43.46
-52.70
-59.15
-61.02
-57.07
-47.06
-31.83
-13.12
6.87
26.04
42.76
56.00
65.24
70.45
71.92
70.27
66.35
61.09
55.42
50.05
45.32
41.24
37.51
33.69
29.41
24.56
19.25
13.82
8.53
3.42
-1.84
-7.81
-14.99
-23.45
-32.48
-40.63
-46.00
-46.82
-42.10
-31.98
-17.74
-1.31
15.30
30.49
43.20
52.87
59.17
62.00
61.56
58.49
53.80
48.68
44.04
40.25
37.13
34.19
30.93
27.13
22.88
18.39
13.91
9.54
5.23
0.82
-3.89
-9.17
-15.18
-21.83
-28.60
-34.44
-37.99
-37.92
-33.46
-24.73
-12.76
0.77
14.03
25.49
34.27
40.04
42.99
43.54
42.22
39.59
36.24
32.71
29.41
26.50
23.87
21.31
18.56
15.57
12.41
9.29
6.34
3.55
0.76
-2.35
-6.13
-10.85
-16.61
-23.17
-29.88
-35.68
-39.33
-39.79
-36.55
-29.93
-20.93
-10.97
-1.46
6.58
12.60
16.54
18.69
19.45
19.22
18.33
16.91
15.02
12.66
9.94
6.99
4.06
1.30
-1.19
-3.44
-5.54
-7.58
-9.66
-11.95
-14.67
-18.07
-22.29
-27.19
-32.28
-36.79
-39.77
-40.32
-37.87
-32.35
-24.23
-14.54
-4.63
4.16
10.85
14.99
16.76
16.77
15.74
14.29
12.74
11.14
9.38
7.33
4.95
2.27
-0.61
-3.55
-6.48
-9.38
-12.26
-15.14
-18.07
-21.11
-24.39
-28.02
-32.01
-36.05
-39.51
-41.48
-41.01
-37.47
-30.84
-21.75
-11.39
-1.15
7.70
14.34
18.42
20.16
20.06
18.83
17.08
15.33
13.77
12.44
11.18
9.82
8.17
6.08
3.51
0.50
-2.83
-6.30
-9.83
-13.41
-17.23
-21.51
-26.35
-31.52
-36.35
-39.74
-40.49
-37.73
-31.23
-21.70
-10.57
0.40
9.70
16.46
20.54
22.40
22.74
22.18
21.18
20.02
18.89
17.93
17.09
16.18
14.79
12.55
9.27
5.09
0.37
-4.39
-8.81
-12.82
-16.60
-20.53
-24.99
-30.18
-36.02
-41.96
-47.09
-50.35
-50.72
-47.66
-41.27
-32.28
-21.86
-11.23
-1.42
6.92
13.47
18.18
21.16
22.59
22.78
22.13
21.07
19.99
19.12
18.48
17.91
17.22
16.21
14.76
12.94
10.86
8.64
6.37
3.98
1.32
-1.79
-5.51
-9.87
-14.68
-19.52
-23.76
-26.60
-27.35
-25.51
-21.02
-14.32
-6.26
2.17
10.00
16.53
21.40
24.44
25.72
25.41
23.81
21.40
18.76
16.44
14.78
13.86
13.43
13.11
12.58
11.65
10.28
8.50
6.36
3.89
1.13
-1.91
-5.19
-8.71
-12.48
-16.48
-20.52
-24.19
-26.85
-27.85
-26.68
-23.29
-18.06
-11.79
-5.42
0.19
4.49
7.29
8.72
9.13
8.91
8.36
7.71
7.08
6.53
6.05
5.60
5.10
4.51
3.82
3.05
2.23
1.38
0.46
-0.65
-2.09
-4.00
-6.49
-9.55
-13.08
-16.73
-20.02
-22.36
-23.16
-22.04
-18.97
-14.35
-8.89
-3.44
1.25
4.76
6.99
8.07
8.29
7.91
7.13
6.13
5.07
4.04
3.09
2.25
1.45
0.65
-0.21
-1.10
-2.02
-2.96
-3.99
-5.21
-6.76
-8.80
-11.39
-14.50
-17.93
-21.25
-23.91
-25.35
-25.18
-23.33
-19.99
-15.60
-10.65
-5.68
-1.18
2.45
4.87
5.96
5.83
4.79
3.32
1.83
0.56
-0.44
-1.24
-1.99
-2.80
-3.76
-4.96
-6.48
-8.38
-10.68
-13.35
-16.32
-19.50
-22.77
-26.02
-29.03
-31.55
-33.23
-33.66
-32.54
-29.67
-25.21
-19.49
-13.09
-6.65
-0.77
4.13
7.74
9.95
10.81
10.51
9.39
7.83
6.18
4.68
3.35
2.13
0.89
-0.48
-1.99
-3.60
-5.28
-7.07
-9.02
-11.29
-14.00
-17.19
-20.79
-24.50
-27.86
-30.26
-31.10
-29.96
-26.71
-21.63
-15.30
-8.42
-1.73
4.17
8.89
12.22
14.15
14.86
14.66
13.97
13.16
12.50
12.01
11.53
10.78
9.52
7.67
5.34
2.78
0.28
-2.03
-4.16
-6.25
-8.51
-11.09
-14.04
-17.19
-20.19
-22.47
-23.34
-22.14
-18.44
-12.40
-4.75
3.28
10.40
15.66
18.79
20.11
20.29
19.93
19.34
18.59
17.60
16.40
15.14
14.01
13.12
12.40
11.67
10.71
9.42
7.74
5.72
3.46
1.02
-1.53
-4.28
-7.35
-10.86
-14.73
-18.54
-21.54
-22.80
-21.66
-17.95
-12.18
-5.34
1.44
7.21
11.49
14.24
15.65
16.05
15.69
14.77
13.45
11.95
10.47
9.22
8.24
7.47
6.73
5.85
4.70
3.22
1.43
-0.72
-3.32
-6.48
-10.32
-14.74
-19.53
-24.22
-28.27
-31.08
-32.10
-30.98
-27.64
-22.36
-15.73
-8.60
-1.84
3.86
8.02
10.51
11.48
11.24
10.18
8.71
7.21
5.93
4.99
4.41
4.04
3.72
3.21
2.35
1.05
-0.73
-2.95
-5.58
-8.65
-12.16
-16.11
-20.34
-24.45
-27.82
-29.72
-29.52
-26.90
-22.01
-15.42
-8.02
-0.76
5.57
10.48
13.83
15.78
16.59
16.54
15.79
14.39
12.37
9.76
6.67
3.31
-0.10
-3.35
-6.24
-8.71
-10.79
-12.69
-14.76
-17.42
-21.02
-25.62
-30.90
-36.10
-40.13
-41.90
-40.57
-35.82
-28.01
-18.10
-7.37
2.81
11.37
17.73
21.80
23.90
24.53
24.18
23.22
21.88
20.24
18.33
16.14
13.66
10.99
8.22
5.46
2.78
0.12
-2.74
-6.12
-10.33
-15.52
-21.59
-28.03
-33.94
-38.13
-39.42
-36.99
-30.64
-20.95
-9.13
3.30
14.93
24.75
32.30
37.52
40.66
42.06
42.06
40.98
39.10
36.63
33.75
30.52
27.02
23.26
19.32
15.25
11.11
6.92
2.58
-2.05
-7.20
-13.08
-19.73
-26.89
-33.87
-39.53
-42.53
-41.73
-36.51
-27.11
-14.55
-0.37
13.76
26.45
36.74
44.23
48.90
51.02
51.10
49.69
47.33
44.45
41.26
37.82
34.08
30.04
25.75
21.31
16.77
12.10
7.20
1.98
-3.59
-9.50
-15.80
-22.57
-29.81
-37.16
-43.78
-48.32
-49.27
-45.50
-36.77
-23.87
-8.38
7.74
22.77
35.52
45.39
52.21
56.13
57.44
56.67
54.47
51.60
48.68
46.08
43.74
41.33
38.42
34.71
30.17
25.03
19.64
14.31
9.20
4.27
-0.71
-6.05
-12.09
-19.02
-26.63
-34.21
-40.49
-43.91
-43.12
-37.51
-27.44
-14.26
0.14
13.86
25.48
34.26
39.99
42.95
43.60
42.54
40.37
37.69
34.85
32.08
29.39
26.69
23.94
21.12
18.20
15.12
11.81
8.21
4.29
0.07
-4.52
-9.63
-15.48
-22.16
-29.44
-36.62
-42.58
-46.01
-45.82
-41.50
-33.23
-22.00
-9.30
3.25
14.23
22.67
28.17
30.87
31.24
29.97
27.76
25.18
22.61
20.21
17.91
15.58
13.09
10.43
7.70
5.05
2.54
0.09
-2.53
-5.58
-9.34
-14.04
-19.78
-26.42
-33.39
-39.69
-43.88
-44.58
-40.83
-32.60
-20.91
-7.52
5.56
16.66
24.80
29.81
32.01
32.01
30.47
27.95
24.95
21.86
18.90
16.16
13.51
10.66
7.31
3.35
-1.12
-5.76
-10.23
-14.36
-18.35
-22.67
-27.83
-34.11
-41.13
-47.91
-53.00
-54.99
-52.87
-46.49
-36.47
-24.11
-10.94
1.65
12.60
21.29
27.51
31.26
32.74
32.27
30.34
27.52
24.41
21.45
18.87
16.63
14.47
12.17
9.59
6.77
3.81
0.88
-2.01
-4.97
-8.26
-12.21
-17.01
-22.42
-27.75
-31.84
-33.39
-31.43
-25.69
-16.76
-5.84
5.64
16.50
25.99
33.69
39.44
43.13
44.72
44.40
42.50
39.61
36.30
32.98
29.85
26.85
23.86
20.74
17.51
14.23
11.01
7.91
4.89
1.77
-1.71
-5.80
-10.64
-16.16
-21.99
-27.41
-31.50
-33.28
-32.04
-27.57
-20.34
-11.33
-1.80
7.09
14.55
20.27
24.24
26.61
27.63
27.54
26.66
25.32
23.81
22.26
20.64
18.83
16.72
14.31
11.74
9.16
6.71
4.38
2.12
-0.23
-2.89
-6.09
-10.05
-14.85
-20.33
-25.98
-31.01
-34.53
-35.78
-34.36
-30.36
-24.30
-17.05
-9.51
-2.52
3.32
7.69
10.52
11.91
12.15
11.61
10.72
9.84
9.17
8.66
8.04
6.97
5.26
2.92
0.25
-2.39
-4.72
-6.71
-8.51
-10.38
-12.56
-15.19
-18.35
-21.92
-25.63
-28.97
-31.25
-31.80
-30.14
-26.19
-20.35
-13.36
-6.07
0.64
6.12
9.93
11.98
12.46
11.86
10.79
9.77
9.06
8.63
8.19
7.39
6.00
3.95
1.38
-1.44
-4.25
-6.80
-8.96
-10.77
-12.43
-14.26
-16.64
-19.77
-23.61
-27.72
-31.30
-33.37
-33.07
-29.93
-24.12
-16.37
-7.79
0.53
7.69
13.22
16.93
18.74
18.76
17.21
14.46
11.04
7.49
4.12
0.96
-2.11
-5.28
-8.53
-11.73
-14.68
-17.20
-19.27
-20.95
-22.37
-23.76
-25.43
-27.70
-30.73
-34.31
-37.74
-40.00
-40.08
-37.30
-31.62
-23.70
-14.52
-5.18
3.38
10.55
15.96
19.53
21.39
21.74
20.91
19.24
17.15
14.99
13.07
11.52
10.31
9.20
7.92
6.25
4.17
1.70
-1.09
-4.25
-7.88
-12.04
-16.60
-21.25
-25.53
-28.88
-30.82
-30.89
-28.76
-24.34
-17.85
-9.89
-1.31
6.94
14.12
19.75
23.72
26.13
27.27
27.49
27.21
26.72
26.14
25.47
24.60
23.45
22.07
20.56
19.02
17.43
15.66
13.51
10.84
7.56
3.69
-0.74
-5.67
-10.96
-16.23
-20.89
-24.18
-25.41
-24.18
-20.54
-15.05
-8.70
-2.55
2.52
6.09
8.19
9.25
9.77
10.10
10.38
10.55
10.49
10.13
9.44
8.48
7.27
5.91
4.48
3.17
2.07
1.21
0.42
-0.59
-2.18
-4.60
-7.98
-12.16
-16.74
-21.07
-24.36
-25.88
-25.11
-22.02
-17.08
-11.16
-5.25
-0.14
3.67
6.07
7.19
7.30
6.71
5.73
4.65
3.73
3.09
2.76
2.61
2.44
1.96
0.94
-0.72
-2.93
-5.51
-8.17
-10.71
-13.08
-15.40
-17.83
-20.47
-23.13
-25.38
-26.64
-26.39
-24.38
-20.73
-15.87
-10.44
-5.17
-0.63
2.74
4.79
5.58
5.32
4.26
2.70
0.93
-0.84
-2.48
-3.93
-5.26
-6.61
-8.12
-9.91
-12.03
-14.54
-17.51
-21.03
-25.15
-29.89
-35.05
-40.20
-44.68
-47.62
-48.18
-45.76
-40.20
-31.99
-22.15
-11.95
-2.58
5.19
11.09
15.24
17.95
19.55
20.30
20.34
19.79
18.72
17.16
15.12
12.68
9.90
6.91
3.81
0.62
-2.71
-6.33
-10.44
-15.24
-20.88
-27.34
-34.21
-40.58
-45.11
-46.36
-43.31
-35.73
-24.42
-10.92
2.96
15.60
25.93
33.40
38.01
40.05
40.13
38.97
37.27
35.59
34.12
32.72
31.06
28.80
25.74
21.87
17.33
12.39
7.32
2.35
-2.40
-7.07
-11.90
-17.26
-23.22
-29.40
-34.86
-38.20
-38.06
-33.56
-24.68
-12.31
1.95
16.33
29.26
39.67
47.10
51.53
53.25
52.79
50.78
47.93
44.93
42.24
39.99
37.97
35.75
32.92
29.32
25.07
20.50
15.93
11.50
7.12
2.51
-2.61
-8.48
-15.08
-22.16
-29.07
-34.82
-38.16
-37.93
-33.50
-25.03
-13.59
-0.80
11.61
22.32
30.60
36.31
39.63
40.81
40.13
37.93
34.68
30.99
27.33
23.97
20.84
17.63
14.10
10.18
6.12
2.21
-1.33
-4.64
-8.09
-12.18
-17.24
-23.25
-29.80
-36.15
-41.32
-44.23
-43.90
-39.72
-31.72
-20.76
-8.31
3.85
14.22
21.93
26.85
29.34
30.00
29.35
27.75
25.44
22.64
19.57
16.39
13.15
9.80
6.31
2.71
-0.83
-4.19
-7.34
-10.49
-14.00
-18.24
-23.53
-29.94
-37.20
-44.56
-50.83
-54.53
-54.31
-49.39
-39.88
-26.86
-12.10
2.47
15.18
25.03
31.66
35.27
36.36
35.61
33.69
31.22
28.64
26.16
23.74
21.18
18.20
14.60
10.36
5.63
0.71
-4.14
-8.78
-13.33
-18.14
-23.67
-30.23
-37.70
-45.36
-51.92
-55.84
-55.74
-50.86
-41.32
-28.05
-12.56
3.44
18.43
31.18
40.93
47.31
50.39
50.66
48.91
46.05
42.90
39.91
37.09
34.12
30.57
26.15
20.89
15.10
9.26
3.79
-1.13
-5.59
-9.95
-14.70
-20.31
-27.00
-34.51
-42.01
-48.15
-51.36
-50.36
-44.63
-34.60
-21.54
-7.08
7.22
20.30
31.54
40.65
47.44
51.76
53.56
53.14
51.14
48.42
45.75
43.49
41.49
39.23
36.11
31.82
26.52
20.72
15.08
10.10
5.91
2.21
-1.52
-5.87
-11.25
-17.74
-24.98
-32.18
-38.17
-41.69
-41.65
-37.54
-29.59
-18.76
-6.43
6.01
17.41
27.08
34.64
39.99
43.08
44.02
43.09
40.81
37.85
34.85
32.21
29.92
27.70
25.16
22.00
18.24
14.14
10.08
6.33
2.95
-0.27
-3.67
-7.61
-12.34
-17.89
-24.06
-30.36
-35.98
-39.86
-40.93
-38.43
-32.23
-23.01
-12.10
-1.09
8.65
16.29
21.58
24.70
26.06
26.11
25.24
23.81
22.13
20.37
18.64
16.92
15.17
13.36
11.40
9.26
6.83
4.04
0.87
-2.52
-5.99
-9.48
-13.10
-17.08
-21.58
-26.34
-30.69
-33.57
-33.95
-31.17
-25.29
-17.08
-7.85
1.05
8.50
13.88
17.11
18.49
18.49
17.53
15.97
14.00
11.82
9.54
7.26
4.98
2.63
0.08
-2.71
-5.75
-8.92
-12.09
-15.17
-18.18
-21.30
-24.79
-28.89
-33.66
-38.85
-43.70
-47.13
-47.91
-45.10
-38.43
-28.46
-16.49
-4.14
7.03
15.98
22.26
25.95
27.45
27.29
26.02
24.10
21.93
19.84
17.99
16.36
14.73
12.79
10.28
7.12
3.48
-0.30
-3.93
-7.30
-10.59
-14.19
-18.54
-23.82
-29.80
-35.75
-40.54
-42.98
-42.09
-37.46
-29.39
-18.80
-6.98
4.68
15.02
23.26
28.97
32.14
33.08
32.40
30.83
29.05
27.48
26.22
25.02
23.56
21.61
19.17
16.44
13.68
11.04
8.53
6.02
3.27
0.07
-3.78
-8.38
-13.63
-19.20
-24.40
-28.34
-30.09
-28.91
-24.59
-17.52
-8.58
1.06
10.22
18.01
23.87
27.64
29.41
29.47
28.23
26.15
23.73
21.39
19.45
18.00
16.97
16.11
15.18
13.96
12.36
10.34
7.92
5.14
2.00
-1.49
-5.27
-9.25
-13.25
-17.08
-20.46
-22.98
-24.20
-23.65
-21.14
-16.79
-11.15
-5.05
0.66
5.37
8.79
11.01
12.23
12.69
12.50
11.73
10.43
8.74
6.81
4.86
3.02
1.33
-0.24
-1.77
-3.33
-4.99
-6.80
-8.89
-11.33
-14.16
-17.32
-20.62
-23.70
-26.08
-27.20
-26.56
-23.90
-19.29
-13.24
-6.55
-0.19
5.06
8.74
10.78
11.48
11.22
10.39
9.24
7.92
6.47
4.91
3.16
1.17
-1.08
-3.55
-6.12
-8.57
-10.82
-12.92
-15.08
-17.57
-20.67
-24.43
-28.69
-33.03
-36.73
-38.97
-38.95
-36.15
-30.51
-22.52
-13.16
-3.64
4.88
11.57
16.08
18.46
19.10
18.51
17.22
15.68
14.16
12.76
11.39
9.90
8.14
6.02
3.52
0.70
-2.33
-5.49
-8.75
-12.11
-15.64
-19.40
-23.46
-27.74
-31.89
-35.29
-37.04
-36.27
-32.45
-25.65
-16.61
-6.62
2.92
10.89
16.71
20.38
22.33
23.07
23.04
22.47
21.47
20.13
18.64
17.21
16.04
15.16
14.43
13.52
12.17
10.21
7.72
4.84
1.71
-1.62
-5.28
-9.35
-13.77
-18.11
-21.65
-23.43
-22.71
-19.17
-13.07
-5.23
3.29
11.46
18.55
24.22
28.42
31.19
32.55
32.57
31.41
29.37
26.95
24.58
22.49
20.62
18.69
16.43
13.78
10.85
7.93
5.26
2.86
0.57
-1.90
-4.82
-8.30
-12.19
-16.19
-19.79
-22.44
-23.66
-23.10
-20.65
-16.52
-11.15
-5.13
0.86
6.26
10.61
13.67
15.36
15.83
15.35
14.27
12.91
11.52
10.22
8.95
7.59
6.03
4.24
2.33
0.43
-1.32
-2.90
-4.42
-6.10
-8.18
-10.77
-13.92
-17.45
-21.05
-24.23
-26.37
-26.85
-25.31
-21.72
-16.54
-10.54
-4.64
0.42
4.19
6.51
7.51
7.41
6.53
5.25
3.96
2.96
2.39
2.12
1.90
1.38
0.32
-1.33
-3.41
-5.70
-8.01
-10.30
-12.72
-15.50
-18.86
-22.81
-27.03
-30.93
-33.75
-34.80
-33.62
-30.12
-24.57
-17.58
-9.95
-2.58
3.73
8.45
11.37
12.67
12.72
11.97
10.67
8.98
6.96
4.75
2.59
0.70
-0.80
-2.03
-3.28
-4.87
-6.97
-9.55
-12.42
-15.49
-18.80
-22.50
-26.66
-30.97
-34.75
-36.98
-36.75
-33.53
-27.50
-19.45
-10.57
-2.02
5.35
11.20
15.56
18.67
20.70
21.74
21.82
21.06
19.63
17.76
15.62
13.24
10.57
7.65
4.60
1.71
-0.79
-2.86
-4.69
-6.70
-9.32
-12.88
-17.38
-22.45
-27.42
-31.34
-33.23
-32.36
-28.46
-21.91
-13.59
-4.64
3.83
11.03
16.59
20.49
22.89
24.05
24.24
23.73
22.78
21.64
20.46
19.34
18.18
16.80
14.98
12.60
9.70
6.54
3.47
0.72
-1.70
-4.12
-6.96
-10.66
-15.37
-20.85
-26.41
-31.06
-33.72
-33.52
-30.12
-23.81
-15.49
-6.33
2.55
10.38
16.80
21.76
25.22
27.20
27.69
26.88
25.20
23.26
21.64
20.63
20.12
19.72
18.91
17.31
14.80
11.54
7.91
4.30
1.05
-1.74
-4.22
-6.69
-9.50
-12.90
-16.90
-21.18
-25.19
-28.17
-29.40
-28.33
-24.78
-18.99
-11.65
-3.66
4.01
10.63
15.80
19.49
21.89
23.27
23.88
23.90
23.52
22.92
22.26
21.69
21.20
20.67
19.94
18.85
17.36
15.52
13.45
11.29
9.10
6.88
4.55
1.96
-1.01
-4.40
-8.09
-11.80
-15.09
-17.45
-18.45
-17.78
-15.39
-11.52
-6.73
-1.73
2.76
6.24
8.52
9.78
10.36
10.63
10.82
11.03
11.27
11.54
11.79
11.98
11.94
11.57
10.79
9.65
8.28
6.84
5.38
3.86
2.16
0.08
-2.45
-5.46
-8.79
-12.13
-15.00
-16.87
-17.28
-16.06
-13.41
-9.76
-5.70
-1.75
1.76
4.66
6.90
8.42
9.20
9.25
8.73
7.85
6.87
6.01
5.37
4.93
4.63
4.31
3.86
3.18
2.25
1.08
-0.30
-1.91
-3.83
-6.15
-8.97
-12.24
-15.77
-19.18
-21.98
-23.68
-23.94
-22.64
-19.92
-16.11
-11.62
-6.90
-2.31
1.81
5.21
7.70
9.15
9.65
9.36
8.58
7.60
6.60
5.67
4.78
3.86
2.84
1.72
0.52
-0.75
-2.13
-3.68
-5.47
-7.61
-10.17
-13.22
-16.76
-20.62
-24.49
-27.81
-29.92
-30.26
-28.50
-24.72
-19.36
-13.11
-6.73
-0.82
4.23
8.21
11.04
12.75
13.40
13.14
12.22
10.87
9.36
7.84
6.43
5.16
4.09
3.17
2.35
1.47
0.37
-1.10
-2.96
-5.23
-7.90
-11.03
-14.70
-18.82
-22.95
-26.29
-27.91
-27.07
-23.58
-17.91
-11.04
-4.07
2.10
7.04
10.69
13.25
14.98
16.11
16.78
17.02
16.82
16.15
15.01
13.52
11.86
10.30
9.00
8.00
7.21
6.42
5.39
3.90
1.82
-0.94
-4.34
-8.18
-12.12
-15.62
-18.10
-19.06
-18.12
-15.25
-10.69
-4.99
1.12
6.87
11.69
15.26
17.60
18.95
19.62
19.90
19.94
19.84
19.62
19.31
18.89
18.25
17.20
15.56
13.28
10.47
7.51
4.86
2.85
1.45
0.27
-1.30
-3.76
-7.17
-11.04
-14.44
-16.38
-16.26
-14.08
-10.43
-6.21
-2.24
0.94
3.21
4.68
5.57
6.10
6.42
6.71
7.10
7.69
8.38
8.92
8.95
8.13
6.27
3.38
-0.32
-4.53
-8.94
-13.31
-17.56
-21.70
-25.77
-29.69
-33.20
-35.77
-36.83
-35.89
-32.75
-27.66
-21.23
-14.30
-7.70
-2.14
2.00
4.63
5.92
6.18
5.79
5.04
4.13
3.16
2.15
1.12
0.03
-1.16
-2.51
-4.06
-5.81
-7.76
-9.91
-12.43
-15.57
-19.59
-24.47
-29.75
-34.47
-37.44
-37.58
-34.26
-27.65
-18.57
-8.36
1.59
10.11
16.57
20.83
23.16
24.04
23.91
23.01
21.40
19.05
15.97
12.37
8.57
4.94
1.68
-1.26
-4.21
-7.53
-11.55
-16.47
-22.30
-28.90
-35.81
-42.25
-47.12
-49.16
-47.37
-41.39
-31.70
-19.59
-6.67
5.57
16.10
24.47
30.64
34.76
37.03
37.70
37.04
35.36
32.98
30.09
26.84
23.28
19.47
15.48
11.37
7.17
2.79
-1.83
-6.77
-12.14
-18.00
-24.36
-30.99
-37.23
-41.91
-43.60
-41.11
-33.98
-22.73
-8.80
5.92
19.65
31.11
39.69
45.30
48.23
48.97
48.06
46.11
43.61
40.87
38.01
35.01
31.77
28.29
24.64
20.92
17.21
13.53
9.82
5.94
1.69
-3.25
