1624868045.00
64.000000
-0.00
-0.00
-0.00
-0.00
-0.00
-0.00
-0.00
-0.00
-0.00
-0.00
0.00
0.01
0.01
-0.00
-0.03
-0.05
-0.05
0.00
0.13
0.36
0.66
1.01
1.37
1.72
2.06
2.40
2.79
3.24
3.80
4.42
5.06
5.66
6.20
6.68
7.15
7.68
8.31
9.14
10.09
11.04
11.88
12.56
13.14
13.76
14.65
15.96
17.91
20.32
22.90
25.38
27.58
29.57
31.68
34.32
37.81
42.54
48.15
54.10
59.83
64.97
69.58
74.14
79.34
85.71
93.76
103.00
112.62
121.73
129.77
136.75
143.30
150.75
157.77
166.64
177.95
191.79
206.97
220.57
228.25
225.36
208.53
176.87
132.76
80.05
23.07
-34.94
-92.44
-149.16
-205.23
-260.37
-313.74
-363.87
-409.83
-450.91
-486.50
-515.74
-537.23
-549.22
-549.96
-538.37
-514.21
-478.67
-433.88
-382.45
-327.02
-269.84
-212.63
-156.66
-102.95
-52.37
-5.90
35.58
71.43
101.35
125.50
144.38
158.69
169.15
176.37
180.75
182.57
182.07
179.51
175.23
169.65
163.18
156.15
148.81
141.30
133.69
126.02
118.33
110.69
103.16
95.80
88.68
81.82
75.24
68.96
62.97
57.28
51.89
46.78
41.96
37.42
33.20
29.29
25.71
22.45
19.49
16.79
14.33
12.09
10.07
8.27
6.73
5.43
4.36
3.48
2.70
1.98
1.29
0.63
0.05
-0.39
-0.65
-0.75
-0.78
-0.87
-1.14
-1.63
-2.27
-2.91
-3.37
-3.52
-3.38
-3.14
-3.06
-3.38
-4.20
-5.36
-6.58
-7.47
-7.81
-7.61
-7.19
-7.01
-7.47
-8.71
-10.54
-12.44
-13.89
-14.55
-14.45
-13.93
-13.50
-13.59
-14.52
-16.46
-19.43
-23.10
-26.52
-28.13
-26.17
-19.48
-8.23
5.80
19.75
30.83
37.40
39.50
38.40
35.81
32.93
30.14
27.27
24.22
21.32
19.27
18.70
19.71
21.82
24.14
25.79
26.31
25.78
24.70
23.69
23.22
23.37
23.94
24.46
24.46
23.57
21.61
18.63
14.83
10.62
6.22
1.90
-2.20
-6.02
-9.54
-12.76
-15.64
-18.11
-20.07
-21.47
-22.21
-22.30
-21.81
-20.89
-19.80
-18.80
-18.08
-17.75
-17.82
-18.13
-18.37
-18.10
-16.79
-13.99
-9.60
-3.96
2.13
7.61
11.60
13.66
13.90
12.91
11.39
9.84
8.46
7.19
5.92
4.64
3.49
2.68
2.41
2.73
3.55
4.64
5.82
6.97
8.06
9.10
10.11
11.06
11.84
12.33
12.44
12.18
11.64
10.94
10.21
9.58
9.05
8.54
7.90
6.90
5.36
3.62
1.91
0.47
-0.60
-1.30
-1.78
-2.30
-3.12
-4.44
-6.33
-8.76
-11.51
-14.29
-16.75
-18.70
-20.14
-21.36
-22.82
-24.98
-28.13
-32.20
-36.63
-40.47
-42.62
-42.06
-38.24
-31.26
-21.82
-11.16
-0.55
8.91
16.57
22.26
26.14
28.57
29.91
30.44
30.32
29.67
28.56
27.12
25.51
23.90
22.45
21.30
20.53
20.16
20.18
20.46
20.87
21.24
21.40
21.23
20.67
19.70
18.35
16.65
14.62
12.28
9.63
6.74
3.71
0.71
-2.09
-4.54
-6.59
-8.30
-9.87
-11.52
-13.43
-15.65
-18.12
-20.68
-23.14
-25.38
-27.41
-29.41
-31.68
-34.55
-38.12
-42.10
-45.71
-47.90
-47.69
-44.53
-38.52
-30.34
-21.00
-11.47
-2.54
5.35
11.94
17.16
21.02
23.58
25.07
25.75
25.91
25.81
25.56
25.22
24.78
24.26
23.73
23.26
22.93
22.74
22.61
22.45
22.16
21.73
21.18
20.52
19.71
18.58
17.00
14.86
12.26
9.37
6.49
3.82
1.50
-0.49
-2.26
-4.00
-5.87
-8.05
-10.63
-13.58
-16.79
-19.98
-22.94
-25.47
-27.58
-29.44
-31.34
-33.64
-36.58
-40.21
-44.28
-48.21
-51.18
-52.32
-50.94
-46.76
-40.01
-31.39
-21.88
-12.45
-3.87
3.38
9.18
13.61
16.86
19.15
20.70
21.64
22.14
22.36
22.47
22.60
22.82
23.11
23.38
23.58
23.73
23.90
24.19
24.64
25.17
25.61
25.73
25.41
24.63
23.50
22.17
20.74
19.19
17.37
15.10
12.29
9.05
5.68
2.53
-0.13
-2.27
-4.10
-5.96
-8.14
-10.74
-13.66
-16.67
-19.55
-22.12
-24.35
-26.32
-28.21
-30.32
-32.97
-36.39
-40.53
-44.95
-48.81
-51.03
-50.69
-47.26
-40.88
-32.31
-22.65
-13.04
-4.40
2.77
8.36
12.48
15.38
17.32
18.51
19.16
19.43
19.46
19.37
19.22
19.02
18.77
18.54
18.38
18.40
18.63
19.04
19.55
20.00
20.29
20.35
20.10
19.46
18.31
16.56
14.23
11.50
8.65
6.00
3.80
2.07
0.63
-0.82
-2.58
-4.76
-7.33
-10.11
-12.84
-15.37
-17.65
-19.79
-21.92
-24.25
-26.93
-30.15
-33.96
-38.31
-42.80
-46.71
-49.09
-49.05
-46.07
-40.25
-32.32
-23.33
-14.40
-6.29
0.63
6.39
11.15
15.06
18.12
20.25
21.39
21.62
21.23
20.64
20.20
20.10
20.30
20.61
20.88
21.09
21.37
21.86
22.56
23.31
23.86
23.97
23.56
22.72
21.61
20.37
19.00
17.39
15.37
12.80
9.68
6.22
2.74
-0.36
-2.85
-4.72
-6.24
-7.77
-9.61
-11.88
-14.43
-17.03
-19.52
-21.87
-24.20
-26.71
-29.61
-33.06
-37.07
-41.46
-45.78
-49.27
-51.05
-50.35
-46.79
-40.56
-32.35
-23.12
-13.82
-5.16
2.44
8.80
13.89
17.77
20.51
22.28
23.27
23.72
23.87
23.93
24.05
24.32
24.76
25.35
26.02
26.69
27.30
27.76
28.03
28.03
27.76
27.20
26.35
25.21
23.76
21.94
19.73
17.15
14.27
11.22
8.13
5.16
2.40
-0.06
-2.23
-4.19
-6.12
-8.22
-10.62
-13.33
-16.23
-19.08
-21.68
-23.92
-25.80
-27.46
-29.21
-31.37
-34.27
-37.99
-42.27
-46.40
-49.35
-50.05
-47.78
-42.45
-34.57
-25.16
-15.34
-6.09
1.98
8.62
13.83
17.73
20.45
22.12
22.85
22.84
22.38
21.85
21.62
21.91
22.73
23.88
25.04
25.95
26.46
26.60
26.48
26.17
25.77
25.26
24.61
23.76
22.64
21.16
19.32
17.16
14.79
12.37
10.01
7.75
5.56
3.37
1.13
-1.20
-3.63
-6.15
-8.74
-11.38
-14.05
-16.75
-19.55
-22.55
-25.90
-29.66
-33.82
-38.15
-42.26
-45.56
-47.40
-47.11
-44.31
-39.03
-31.71
-23.19
-14.40
-6.17
0.98
6.85
11.52
15.13
17.89
19.89
21.23
21.99
22.28
22.26
22.14
22.15
22.47
23.18
24.22
25.44
26.66
27.71
28.47
28.86
28.80
28.28
27.34
26.15
24.87
23.66
22.54
21.39
20.01
18.18
15.82
12.99
9.91
6.83
4.01
1.61
-0.34
-2.00
-3.61
-5.50
-7.90
-10.84
-14.14
-17.44
-20.41
-22.87
-24.97
-27.08
-29.70
-33.25
-37.77
-42.87
-47.66
-51.03
-51.96
-49.82
-44.66
-37.10
-28.14
-18.83
-10.02
-2.22
4.31
9.52
13.50
16.40
18.46
19.91
20.92
21.51
21.65
21.34
20.71
20.06
19.71
19.89
20.60
21.63
22.65
23.39
23.71
23.61
23.19
22.52
21.59
20.35
18.78
16.94
14.95
12.96
11.07
9.25
7.41
5.43
3.26
0.94
-1.42
-3.76
-6.05
-8.38
-10.83
-13.44
-16.13
-18.73
-21.08
-23.12
-24.94
-26.76
-28.91
-31.66
-35.04
-38.77
-42.20
-44.44
-44.62
-42.14
-36.94
-29.52
-20.76
-11.67
-3.15
4.27
10.39
15.21
18.83
21.37
22.93
23.65
23.72
23.34
22.74
22.12
21.62
21.32
21.28
21.49
21.91
22.48
23.11
23.68
24.09
24.24
24.08
23.58
22.71
21.48
19.90
17.98
15.77
13.29
10.64
7.96
5.35
2.87
0.52
-1.83
-4.28
-6.94
-9.78
-12.70
-15.56
-18.22
-20.65
-22.93
-25.28
-27.95
-31.14
-34.92
-39.13
-43.34
-46.90
-49.03
-49.05
-46.58
-41.64
-34.73
-26.59
-18.09
-9.94
-2.61
3.70
8.99
13.32
16.71
19.18
20.74
21.45
21.49
21.10
20.55
20.09
19.89
20.02
20.47
21.21
22.18
23.30
24.43
25.41
26.02
26.09
25.54
24.45
23.00
21.40
19.81
18.25
16.59
14.65
12.32
9.57
6.56
3.57
0.84
-1.47
-3.44
-5.30
-7.40
-9.96
-13.03
-16.39
-19.69
-22.62
-25.05
-27.12
-29.18
-31.65
-34.83
-38.78
-43.27
-47.69
-51.21
-52.91
-52.06
-48.39
-42.20
-34.29
-25.70
-17.34
-9.77
-3.10
2.76
7.93
12.37
15.85
18.16
19.19
19.10
18.26
17.12
16.13
15.58
15.58
16.11
17.03
18.18
19.43
20.65
21.77
22.73
23.40
23.63
23.29
22.32
20.76
18.76
16.50
14.15
11.82
9.53
7.26
4.96
2.53
-0.08
-2.90
-5.86
-8.82
-11.59
-14.08
-16.34
-18.57
-21.13
-24.32
-28.36
-33.24
-38.72
-44.27
-49.14
-52.46
-53.40
-51.42
-46.49
-39.10
-30.13
-20.63
-11.48
-3.24
3.85
9.79
14.67
18.54
21.40
23.25
24.17
24.34
24.09
23.78
23.72
24.10
24.89
25.95
27.07
28.11
28.99
29.73
30.32
30.70
30.74
30.28
29.22
27.58
25.51
23.20
20.81
18.44
16.08
13.68
11.20
8.67
6.15
3.65
1.14
-1.53
-4.49
-7.75
-11.20
-14.60
-17.71
-20.45
-22.89
-25.25
-27.85
-31.02
-35.02
-39.89
-45.33
-50.58
-54.53
-55.99
-54.11
-48.74
-40.52
-30.66
-20.48
-10.99
-2.67
4.43
10.47
15.61
19.93
23.45
26.22
28.26
29.64
30.35
30.43
30.05
29.45
29.01
29.03
29.67
30.83
32.29
33.70
34.79
35.36
35.34
34.69
33.42
31.59
29.29
26.69
24.00
21.37
18.89
16.51
14.12
11.57
8.81
5.89
2.95
0.15
-2.48
-4.99
-7.44
-9.89
-12.28
-14.55
-16.65
-18.67
-20.78
-23.22
-26.22
-29.89
-34.20
-38.92
-43.54
-47.37
-49.50
-49.11
-45.72
-39.39
-30.77
-20.98
-11.22
-2.43
4.90
10.78
15.49
19.33
22.45
24.77
26.15
26.58
26.24
25.50
24.78
24.39
24.44
24.87
25.56
26.33
27.09
27.70
28.07
28.08
27.70
26.93
25.90
24.69
23.39
22.02
20.53
18.89
17.02
14.87
12.43
9.68
6.70
3.60
0.51
-2.48
-5.38
-8.16
-10.82
-13.24
-15.31
-16.94
-18.23
-19.48
-21.08
-23.45
-26.85
-31.25
-36.34
-41.50
-45.89
-48.55
-48.68
-45.82
-40.03
-31.97
-22.65
-13.21
-4.61
2.62
8.35
12.79
16.25
19.00
21.16
22.72
23.59
23.75
23.28
22.45
21.56
20.90
20.66
20.90
21.56
22.54
23.70
24.87
25.81
26.30
26.15
25.32
23.90
22.11
20.14
18.12
16.13
14.19
12.32
10.53
8.78
6.94
4.90
2.61
0.18
-2.19
-4.31
-6.11
-7.67
-9.24
-11.01
-13.11
-15.50
-18.06
-20.66
-23.22
-25.78
-28.47
-31.48
-34.96
-38.85
-42.74
-45.92
-47.52
-46.79
-43.43
-37.69
-30.31
-22.26
-14.44
-7.48
-1.67
3.03
6.79
9.81
12.27
14.22
15.62
16.43
16.64
16.36
15.81
15.26
14.90
14.85
15.11
15.66
16.48
17.57
18.90
20.33
21.63
22.45
22.54
21.76
20.23
18.25
16.17
14.24
12.52
10.88
9.08
6.95
4.47
1.79
-0.84
-3.21
-5.20
-6.85
-8.28
-9.64
-11.07
-12.65
-14.40
-16.34
-18.48
-20.85
-23.59
-26.79
-30.53
-34.70
-38.90
-42.48
-44.68
-44.81
-42.50
-37.82
-31.28
-23.66
-15.84
-8.55
-2.26
2.89
7.04
10.44
13.33
15.78
17.72
19.00
19.51
19.35
18.76
18.13
17.83
18.07
18.81
19.84
20.85
21.61
22.00
22.05
21.85
21.45
20.82
19.93
18.76
17.42
16.10
14.99
14.17
13.51
12.70
11.44
9.56
7.12
4.38
1.68
-0.71
-2.65
-4.19
-5.52
-6.87
-8.45
-10.37
-12.57
-14.88
-17.04
-18.89
-20.41
-21.85
-23.57
-25.96
-29.23
-33.30
-37.78
-41.98
-45.12
-46.45
-45.44
-41.90
-36.09
-28.61
-20.29
-11.99
-4.41
2.02
7.11
10.95
13.71
15.64
16.95
17.80
18.29
18.50
18.52
18.44
18.38
18.46
18.77
19.31
20.09
21.02
22.03
23.01
23.84
24.38
24.49
24.10
23.21
21.88
20.25
18.47
16.68
15.00
13.48
12.10
10.82
9.53
8.15
6.58
4.79
2.85
0.89
-0.95
-2.53
-3.88
-5.10
-6.41
-7.97
-9.77
-11.66
-13.41
-14.88
-16.07
-17.22
-18.61
-20.47
-22.94
-26.05
-29.76
-33.92
-38.25
-42.23
-45.10
-46.06
-44.47
-40.18
-33.54
-25.38
-16.72
-8.49
-1.29
4.62
9.23
12.68
15.07
16.54
17.20
17.23
16.90
16.48
16.23
16.28
16.64
17.22
17.89
18.57
19.25
19.95
20.73
21.55
22.30
22.80
22.82
22.25
21.11
19.56
17.88
16.24
14.69
13.18
11.59
9.86
8.04
6.25
4.59
3.10
1.68
0.25
-1.29
-2.98
-4.85
-6.90
-9.07
-11.26
-13.27
-14.94
-16.20
-17.12
-17.96
-19.00
-20.52
-22.69
-25.58
-29.18
-33.31
-37.68
-41.72
-44.71
-45.85
-44.53
-40.52
-34.15
-26.22
-17.83
-10.03
-3.53
1.42
5.05
7.80
10.10
12.18
13.98
15.35
16.15
16.41
16.35
16.26
16.35
16.70
17.25
17.86
18.43
18.96
19.52
20.19
21.02
21.86
22.45
22.43
21.52
19.76
17.41
15.00
13.05
11.86
11.37
11.23
10.92
10.05
8.39
6.02
3.20
0.27
-2.41
-4.62
-6.32
-7.62
-8.77
-9.98
-11.39
-13.06
-14.96
-17.07
-19.36
-21.80
-24.29
-26.76
-29.22
-31.82
-34.75
-38.09
-41.54
-44.37
-45.67
-44.66
-41.06
-35.19
-27.88
-20.03
-12.43
-5.54
0.48
5.59
9.76
12.90
14.91
15.80
15.72
14.98
14.00
13.20
12.89
13.16
13.98
15.17
16.53
17.93
19.21
20.24
20.91
21.16
20.99
20.50
19.78
18.88
17.81
16.56
15.15
13.66
12.11
10.47
8.62
6.45
4.00
1.48
-0.85
-2.83
-4.50
-6.09
-7.87
-9.98
-12.41
-15.04
-17.75
-20.46
-23.22
-26.09
-29.21
-32.70
-36.60
-40.82
-44.95
-48.29
-50.00
-49.36
-46.06
-40.37
-33.04
-25.03
-17.18
-10.00
-3.70
1.77
6.44
10.35
13.37
15.40
16.43
16.63
16.35
15.96
15.83
16.16
16.96
18.13
19.49
20.91
22.29
23.60
24.81
25.87
26.64
26.99
26.83
26.13
24.97
23.45
21.70
19.80
17.76
15.54
13.10
10.41
7.54
4.59
1.70
-0.99
-3.43
-5.70
-7.96
-10.46
-13.46
-17.10
-21.33
-25.89
-30.45
-34.72
-38.56
-42.08
-45.54
-49.34
-53.85
-59.37
-65.90
-73.11
-80.20
-86.10
-89.69
-90.20
-87.47
-81.97
-74.72
-66.79
-59.00
-51.67
-44.65
-37.51
-29.80
-21.21
-11.68
-1.38
9.37
20.23
30.87
41.09
50.70
59.57
67.50
74.23
79.51
83.20
85.31
86.11
85.90
84.95
83.37
81.10
78.04
74.14
69.57
64.59
59.52
54.62
49.99
45.59
41.34
37.16
33.04
29.04
25.22
21.67
18.36
15.21
12.08
8.85
5.46
1.92
-1.68
-5.21
-8.53
-11.56
-14.33
-16.98
-19.81
-23.14
-27.27
-32.30
-38.04
-44.00
-49.44
-53.53
-55.46
-54.67
-50.96
-44.56
-36.18
-26.79
-17.39
-8.74
-1.19
5.26
10.74
15.42
19.31
22.37
24.53
25.85
26.51
26.72
26.72
26.72
26.88
27.34
28.18
29.39
30.85
32.36
33.68
34.62
35.02
34.80
33.96
32.58
30.84
28.99
27.23
25.65
24.20
22.67
20.87
18.66
16.01
13.01
9.81
6.56
3.37
0.32
-2.58
-5.36
-8.08
-10.75
-13.36
-15.87
-18.32
-20.87
-23.73
-27.14
-31.23
-36.01
-41.27
-46.67
-51.63
-55.40
-57.09
-55.92
-51.58
-44.36
-35.17
-25.20
-15.55
-6.89
0.65
7.23
13.09
18.25
22.57
25.79
27.73
28.40
28.07
27.16
26.21
25.67
25.80
26.68
28.14
29.94
31.79
33.48
34.81
35.58
35.69
35.09
33.88
32.26
30.50
28.75
27.12
25.55
24.00
22.37
20.55
18.42
15.88
12.91
9.67
6.47
3.62
1.31
-0.49
-2.05
-3.73
-5.75
-8.22
-11.08
-14.16
-17.25
-20.19
-22.83
-25.16
-27.29
-29.51
-32.22
-35.80
-40.40
-45.81
-51.38
-56.06
-58.67
-58.20
-54.19
-46.88
-37.21
-26.46
-15.93
-6.55
1.31
7.66
12.71
16.65
19.57
21.50
22.54
22.88
22.80
22.58
22.38
22.26
22.25
22.34
22.57
23.03
23.77
24.76
25.90
26.94
27.61
27.67
26.99
25.62
23.72
21.50
19.09
16.60
14.05
11.49
9.01
6.75
4.82
3.16
1.63
-0.00
-1.91
-4.17
-6.71
-9.42
-12.16
-14.85
-17.40
-19.79
-22.02
-24.22
-26.64
-29.63
-33.47
-38.15
-43.22
-47.75
-50.54
-50.55
-47.25
-40.81
-32.09
-22.26
-12.49
-3.62
3.92
10.04
14.83
18.40
20.96
22.69
23.89
24.81
25.59
26.22
26.59
26.62
26.32
25.81
25.29
24.94
24.89
25.17
25.73
26.49
27.29
27.93
28.20
27.90
26.90
25.14
22.67
19.55
15.99
12.24
8.62
5.46
2.89
0.89
-0.79
-2.49
-4.49
-6.95
-9.83
-12.93
-15.96
-18.68
-20.96
-22.89
-24.76
-27.01
-30.04
-34.10
-39.05
-44.41
-49.37
-53.01
-54.42
-52.96
-48.41
-41.12
-31.90
-21.90
-12.26
-3.84
2.99
8.28
12.37
15.67
18.45
20.81
22.69
24.06
24.93
25.39
25.60
25.71
25.84
26.02
26.26
26.50
26.74
26.98
27.29
27.63
27.94
27.99
27.59
26.59
25.00
23.00
20.87
18.89
17.17
15.64
14.12
12.36
10.23
7.70
4.92
2.07
-0.62
-3.05
-5.24
-7.32
-9.47
-11.82
-14.35
-16.91
-19.29
-21.40
-23.30
-25.15
-27.25
-29.84
-33.11
-37.10
-41.73
-46.68
-51.40
-55.09
-56.81
-55.77
-51.60
-44.57
-35.51
-25.64
-16.15
-7.89
-1.20
4.06
8.25
11.70
14.59
16.90
18.57
19.59
20.06
20.18
20.15
20.05
19.96
19.91
19.98
20.29
20.91
21.78
22.75
23.60
24.08
24.04
23.44
22.30
20.68
18.77
16.77
14.84
13.10
11.52
9.98
8.32
6.44
4.32
2.00
-0.51
-3.20
-6.05
-8.99
-11.83
-14.37
-16.47
-18.15
-19.68
-21.45
-23.89
-27.30
-31.69
-36.80
-42.04
-46.62
-49.63
-50.32
-48.23
-43.39
-36.27
-27.72
-18.71
-10.05
-2.29
4.36
9.93
14.54
18.31
21.28
23.41
24.71
25.21
25.08
24.53
23.83
23.23
22.90
22.98
23.48
24.39
25.61
26.98
28.23
29.08
29.24
28.57
27.11
25.07
22.78
20.51
18.42
16.46
14.48
12.32
9.89
7.25
4.55
1.94
-0.48
-2.72
-4.85
-6.98
-9.18
-11.46
-13.75
-16.01
-18.20
-20.37
-22.66
-25.24
-28.29
-31.95
-36.25
-41.05
-46.01
-50.50
-53.73
-54.84
-53.18
-48.53
-41.27
-32.28
-22.71
-13.66
-5.81
0.63
5.89
10.31
14.16
17.46
20.13
22.01
23.08
23.49
23.48
23.25
22.97
22.71
22.55
22.59
22.96
23.73
24.88
26.19
27.38
28.10
28.11
27.32
25.83
23.86
21.67
19.52
17.53
15.69
13.87
11.90
9.62
6.99
4.10
1.16
-1.58
-3.99
-6.06
-7.97
-9.99
-12.32
-14.99
-17.84
-20.56
-22.95
-25.03
-27.05
-29.41
-32.51
-36.47
-41.08
-45.70
-49.48
-51.49
-50.98
-47.65
-41.67
-33.75
-24.79
-15.75
-7.33
0.14
6.60
12.09
16.64
20.14
22.48
23.64
23.79
23.26
22.48
21.80
21.41
21.37
21.66
22.21
23.03
24.08
25.30
26.50
27.50
28.00
27.83
26.91
25.28
23.14
20.73
18.30
15.95
13.74
11.58
9.36
7.01
4.51
1.91
-0.72
-3.24
-5.59
-7.67
-9.47
-11.10
-12.74
-14.68
-17.16
-20.37
-24.38
-29.08
-34.26
-39.52
-44.22
-47.55
-48.67
-46.98
-42.38
-35.34
-26.82
-17.94
-9.64
-2.41
3.72
8.99
13.72
18.00
21.74
24.75
26.88
28.16
28.79
29.04
29.20
29.42
29.71
30.04
30.35
30.63
30.90
31.15
31.30
31.18
30.57
29.33
27.44
25.04
22.39
19.78
17.40
15.30
13.34
11.29
8.92
6.19
3.20
0.15
-2.74
-5.36
-7.73
-9.94
-12.09
-14.21
-16.32
-18.40
-20.42
-22.43
-24.43
-26.47
-28.61
-30.96
-33.75
-37.13
-41.14
-45.49
-49.56
-52.49
-53.43
-51.79
-47.43
-40.69
-32.31
-23.28
-14.48
-6.58
0.11
5.63
10.20
14.01
17.15
19.55
21.05
21.62
21.39
20.70
19.96
19.49
19.43
19.76
20.36
21.13
21.99
22.87
23.69
24.25
24.33
23.77
22.53
20.78
18.85
17.04
15.58
14.47
13.53
12.49
11.11
9.26
6.98
4.43
1.83
-0.56
-2.60
-4.23
-5.54
-6.76
-8.14
-9.87
-11.98
-14.34
-16.73
-18.90
-20.70
-22.15
-23.42
-24.84
-26.79
-29.53
-33.07
-37.07
-40.77
-43.18
-43.37
-40.79
-35.45
-27.99
-19.38
-10.66
-2.64
4.21
9.77
14.10
17.34
19.54
20.76
21.00
20.41
19.24
17.86
16.69
16.02
16.00
16.54
17.44
18.48
19.51
20.43
21.22
21.85
22.24
22.30
21.96
21.21
20.07
18.61
16.91
15.04
13.05
10.98
8.85
6.69
4.58
2.59
0.75
-0.96
-2.64
-4.44
-6.43
-8.61
-10.93
-13.29
-15.65
-18.08
-20.66
-23.47
-26.58
-29.97
-33.59
-37.25
-40.55
-42.87
-43.50
-41.84
-37.71
-31.42
-23.77
-15.75
-8.24
-1.73
3.67
8.10
11.77
14.75
16.98
18.39
18.99
18.99
18.69
18.43
18.39
18.62
18.99
19.39
19.75
20.09
20.46
20.91
21.45
22.00
22.53
22.90
23.02
22.73
21.95
20.69
19.07
17.29
15.53
13.81
11.99
9.89
7.42
4.72
2.09
-0.14
-1.82
-2.99
-3.96
-5.06
-6.55
-8.52
-10.84
-13.34
-15.77
-17.97
-19.89
-21.61
-23.38
-25.55
-28.47
-32.32
-36.94
-41.80
-46.00
-48.51
-48.51
-45.60
-39.95
-32.29
-23.67
-15.14
-7.54
-1.28
3.63
7.38
10.27
12.52
14.23
15.44
16.19
16.58
16.71
16.68
16.57
16.46
16.40
16.47
16.74
17.26
17.99
18.87
19.79
20.61
21.21
21.48
21.31
20.63
19.45
17.88
16.06
14.20
12.38
10.65
8.89
7.02
4.94
2.68
0.31
-2.04
-4.26
-6.37
-8.42
-10.49
-12.63
-14.76
-16.75
-18.41
-19.68
-20.59
-21.38
-22.38
-23.99
-26.53
-30.08
-34.42
-38.91
-42.65
-44.58
-43.89
-40.20
-33.81
-25.57
-16.63
-8.05
-0.54
5.66
10.61
14.49
17.35
19.14
19.79
19.38
18.27
16.95
15.95
15.49
15.57
15.93
16.34
16.70
17.14
17.85
18.92
20.23
21.42
22.12
22.07
21.26
19.94
18.45
17.06
15.92
15.01
14.21
13.36
12.31
10.98
9.34
7.44
5.39
3.31
1.26
-0.77
-2.85
-5.03
-7.28
-9.53
-11.64
-13.56
-15.33
-17.05
-18.92
-21.07
-23.64
-26.74
-30.46
-34.81
-39.59
-44.31
-48.21
-50.40
-50.09
-46.92
-41.07
-33.22
-24.37
-15.52
-7.44
-0.49
5.28
9.98
13.74
16.59
18.51
19.52
19.79
19.59
19.24
18.97
18.88
18.95
19.15
19.53
20.15
21.07
22.29
23.64
24.93
25.97
26.65
26.88
26.64
25.91
24.69
23.05
21.15
19.19
17.35
15.66
14.03
12.25
10.20
7.88
5.47
3.23
1.38
-0.06
-1.25
-2.52
-4.15
-6.26
-8.82
-11.59
-14.31
-16.75
-18.82
-20.61
-22.36
-24.39
-27.00
-30.37
-34.44
-38.82
-42.87
-45.75
-46.68
-45.12
-40.99
-34.68
-26.94
-18.66
-10.64
-3.44
2.68
7.68
11.63
14.61
16.69
17.95
18.49
18.46
18.04
17.42
16.78
16.26
15.93
15.85
16.01
16.41
17.02
17.78
18.59
19.37
19.97
20.28
20.20
19.68
18.74
17.47
16.03
14.50
12.90
11.17
9.20
6.98
4.63
2.38
0.47
-0.99
-2.09
-3.12
-4.38
-6.07
-8.17
-10.52
-12.85
-14.97
-16.84
-18.56
-20.42
-22.71
-25.69
-29.43
-33.71
-37.94
-41.33
-43.00
-42.27
-38.88
-33.07
-25.53
-17.17
-8.87
-1.33
5.06
10.16
14.00
16.68
18.36
19.21
19.48
19.44
19.34
19.32
19.44
19.63
19.83
20.00
20.17
20.39
20.72
21.16
21.69
22.22
22.65
22.84
22.65
21.98
20.84
19.28
17.49
15.59
13.64
11.57
9.39
7.13
4.89
2.84
1.02
-0.67
-2.43
-4.51
-7.02
-9.84
-12.72
-15.36
-17.57
-19.37
-21.00
-22.83
-25.19
-28.34
-32.27
-36.77
-41.39
-45.52
-48.41
-49.35
-47.79
-43.55
-36.93
-28.65
-19.70
-11.02
-3.27
3.28
8.69
13.12
16.71
19.47
21.41
22.54
22.98
22.95
22.65
22.25
21.86
21.55
21.35
21.35
21.60
22.16
23.02
24.09
25.19
26.04
26.42
26.16
25.23
23.76
21.95
19.98
18.00
16.03
14.07
12.09
10.05
7.97
5.89
3.82
1.85
-0.03
-1.83
-3.65
-5.61
-7.79
-10.18
-12.66
-15.11
-17.45
-19.74
-22.16
-24.92
-28.20
-32.05
-36.34
-40.71
-44.53
-47.01
-47.35
-45.00
-39.91
-32.63
-24.17
-15.63
-7.91
-1.44
3.76
7.91
11.18
13.64
15.26
16.06
16.16
15.84
15.38
15.04
14.97
15.20
15.72
16.48
17.38
18.33
19.25
20.05
20.69
21.09
21.19
20.93
20.26
19.22
17.88
16.32
14.61
12.82
10.99
9.19
7.47
5.78
3.98
1.86
-0.72
-3.75
-7.02
-10.21
-13.04
-15.42
-17.47
-19.45
-21.67
-24.33
-27.59
-31.46
-35.82
-40.32
-44.38
-47.20
-47.96
-46.05
-41.34
-34.25
-25.65
-16.62
-8.15
-0.81
5.24
10.17
14.24
17.63
20.33
22.25
23.35
23.72
23.58
23.19
22.73
22.31
21.99
21.85
22.02
22.65
23.76
25.25
26.80
28.04
28.69
28.61
27.88
26.67
25.18
23.50
21.67
19.65
17.44
15.08
12.62
10.12
7.63
5.17
2.75
0.45
-1.68
-3.66
-5.57
-7.62
-9.98
-12.72
-15.71
-18.77
-21.69
-24.44
-27.23
-30.41
-34.30
-38.94
-43.93
-48.42
-51.36
-51.80
-49.27
-43.87
-36.30
-27.58
-18.72
-10.50
-3.32
2.79
7.95
12.32
15.99
18.92
21.08
22.44
23.08
23.24
23.21
23.25
23.54
24.07
24.71
25.32
25.85
26.37
26.98
27.77
28.67
29.43
29.71
29.23
27.92
25.93
23.59
21.28
19.23
17.43
15.70
13.77
11.44
8.70
5.75
2.88
0.36
-1.70
-3.42
-5.05
-6.89
-9.14
-11.79
-14.68
-17.54
-20.18
-22.52
-24.65
-26.81
-29.33
-32.49
-36.39
-40.87
-45.42
-49.21
-51.25
-50.69
-47.12
-40.72
-32.29
-22.95
-13.83
-5.68
1.17
6.79
11.41
15.18
18.14
20.22
21.39
21.76
21.59
21.21
20.91
20.87
21.16
21.75
22.61
23.69
24.91
26.17
27.29
28.05
28.28
27.92
26.99
25.63
23.99
22.15
20.15
18.02
15.78
13.48
11.21
9.06
7.08
5.25
3.46
1.54
-0.64
-3.20
-6.08
-9.17
-12.28
-15.23
-17.94
-20.44
-22.89
-25.51
-28.59
-32.31
-36.72
-41.51
-46.05
-49.41
-50.65
-49.11
-44.69
-37.89
-29.61
-20.90
-12.56
-5.13
1.24
6.59
11.10
14.97
18.32
21.17
23.44
25.00
25.77
25.80
25.33
24.69
24.24
24.17
24.55
25.32
26.34
27.52
28.71
29.77
30.50
30.69
30.19
29.01
27.26
25.20
23.06
21.03
19.17
17.38
15.52
13.41
10.96
8.24
5.45
2.86
0.63
-1.19
-2.80
-4.42
-6.30
-8.55
-11.12
-13.86
-16.59
-19.21
-21.72
-24.27
-27.09
-30.46
-34.58
-39.44
-44.70
-49.68
-53.44
-55.03
-53.78
-49.53
-42.66
-34.01
-24.61
-15.40
-7.07
0.01
5.81
10.44
14.13
17.04
19.31
20.99
22.11
22.70
22.83
22.63
22.27
21.94
21.79
21.92
22.36
23.05
23.89
24.75
25.45
25.87
25.85
25.34
24.33
22.93
21.32
19.67
18.05
16.40
14.51
12.22
9.46
6.37
3.25
0.40
-1.97
-3.86
-5.39
-6.83
-8.40
-10.28
-12.51
-15.03
-17.62
-20.04
-22.09
-23.74
-25.18
-26.81
-29.10
-32.40
-36.72
-41.66
-46.39
-49.81
-50.92
-49.03
-44.07
-36.52
-27.37
-17.69
-8.48
-0.36
6.39
11.79
15.96
19.08
21.24
22.54
23.09
23.08
22.75
22.41
22.28
22.47
22.95
23.58
24.24
24.86
25.47
26.06
26.65
27.07
27.17
26.81
25.95
24.70
23.23
21.70
20.16
18.52
16.64
14.39
11.77
8.90
6.02
3.33
0.91
-1.29
-3.46
-5.80
-8.41
-11.29
-14.30
-17.30
-20.21
-23.04
-25.83
-28.71
-31.81
-35.32
-39.38
-43.98
-48.76
-53.01
-55.73
-55.96
-53.13
-47.32
-39.21
-29.90
-20.51
-11.86
-4.31
2.15
7.72
12.57
16.71
20.02
22.40
23.85
24.57
24.90
25.13
25.36
25.55
25.55
25.33
25.06
25.04
25.56
26.70
28.25
29.75
30.71
30.83
30.05
28.56
26.67
24.66
22.65
20.63
18.48
16.09
13.39
10.46
7.50
4.73
2.34
0.38
-1.21
-2.63
-4.10
-5.80
-7.85
-10.24
-12.90
-15.66
-18.43
-21.16
-23.93
-26.92
-30.36
-34.35
-38.85
-43.56
-47.94
-51.32
-52.95
-52.26
-48.95
-43.13
-35.32
-26.36
-17.21
-8.71
-1.41
4.53
9.23
12.98
15.99
18.29
19.75
20.21
19.71
18.54
17.23
16.37
16.35
17.26
18.84
20.67
22.33
23.54
24.18
24.28
23.99
23.42
22.70
21.89
20.98
19.93
18.66
17.15
15.37
13.37
11.12
8.63
5.91
3.03
0.11
-2.67
-5.17
-7.38
-9.43
-11.54
-13.89
-16.54
-19.41
-22.38
-25.40
-28.57
-32.16
-36.40
-41.31
-46.47
-51.04
-53.88
-53.97
-50.78
-44.45
-35.79
-25.99
-16.20
-7.24
0.54
7.15
12.77
17.53
21.40
24.25
26.01
26.74
26.70
26.29
25.81
25.50
25.41
25.51
25.78
26.28
27.09
28.23
29.56
30.79
31.52
31.50
30.66
29.21
27.48
25.71
23.99
22.19
20.12
17.64
14.82
11.88
9.09
6.61
4.41
2.26
-0.14
-3.01
-6.37
-10.03
-13.70
-17.03
-19.89
-22.36
-24.70
-27.24
-30.28
-33.98
-38.35
-43.24
-48.29
-52.94
-56.44
-57.92
-56.68
-52.42
-45.36
-36.28
-26.27
-16.37
-7.38
0.35
6.85
12.34
17.04
21.06
24.30
26.61
27.88
28.19
27.80
27.13
26.51
26.18
26.21
26.55
27.17
28.07
29.21
30.50
31.71
32.56
32.79
32.33
31.23
29.66
27.82
25.81
23.67
21.35
18.75
15.76
12.36
8.68
5.05
1.88
-0.53
-2.13
-3.18
-4.13
-5.40
-7.25
-9.66
-12.46
-15.43
-18.44
-21.44
-24.47
-27.62
-31.05
-34.96
-39.45
-44.45
-49.51
-53.85
-56.50
-56.59
-53.63
-47.74
-39.55
-30.03
-20.23
-10.98
-2.79
4.14
9.82
14.28
17.53
19.56
20.48
20.51
20.08
19.63
19.53
19.96
20.88
22.11
23.41
24.60
25.57
26.26
26.71
26.92
26.93
26.71
26.26
25.52
24.45
23.01
21.20
19.02
16.54
13.88
11.16
8.54
6.10
3.81
1.52
-0.95
-3.72
-6.78
-9.93
-12.92
-15.58
-17.92
-20.19
-22.77
-26.01
-30.10
-34.97
-40.22
-45.23
-49.18
-51.18
-50.55
-46.99
-40.74
-32.53
-23.39
-14.29
-5.92
1.45
7.91
13.61
18.63
22.87
26.08
28.08
28.86
28.66
27.86
26.93
26.24
25.99
26.25
26.95
27.95
29.12
30.32
31.41
32.20
32.49
32.15
31.13
29.52
27.49
25.27
23.00
20.76
18.51
16.15
13.58
10.74
7.70
4.62
1.69
-0.92
-3.20
-5.28
-7.42
-9.87
-12.75
-15.97
-19.34
-22.59
-25.60
-28.38
-31.14
-34.18
-37.80
-42.13
-46.94
-51.65
-55.35
-57.07
-56.05
-52.02
-45.28
-36.60
-26.94
-17.22
-8.12
-0.00
6.98
12.82
17.56
21.21
23.83
25.49
26.33
26.56
26.41
26.10
25.79
25.53
25.37
25.38
25.64
26.20
27.05
28.06
29.04
29.80
30.17
30.04
29.40
28.26
26.67
24.76
22.61
20.29
17.82
15.15
12.25
9.16
6.01
3.03
0.45
-1.55
-2.91
-3.73
-4.31
-5.07
-6.49
-8.87
-12.21
-16.14
-20.08
-23.42
-25.86
-27.46
-28.72
-30.33
-32.94
-36.86
-41.96
-47.52
-52.49
-55.63
-55.91
-52.84
-46.60
-38.02
-28.28
-18.56
-9.68
-2.07
4.25
9.43
13.65
17.00
19.49
21.09
21.79
21.70
21.03
20.07
19.12
18.46
18.29
18.75
19.83
21.44
23.37
25.34
27.02
28.13
28.50
28.12
27.08
25.56
23.73
21.70
19.50
17.10
14.49
11.68
8.78
5.96
3.39
1.15
-0.82
-2.76
-4.99
-7.71
-10.91
-14.32
-17.55
-20.29
-22.44
-24.21
-26.01
-28.34
-31.61
-35.99
-41.29
-46.84
-51.63
-54.47
-54.33
-50.73
-43.92
-34.80
-24.62
-14.56
-5.45
2.26
8.51
13.37
17.00
19.58
21.32
22.42
23.05
23.38
23.53
23.64
23.84
24.22
24.78
25.48
26.27
27.13
28.07
29.06
30.04
30.81
31.17
30.98
30.20
28.87
27.07
24.92
22.53
20.06
17.62
15.27
12.97
10.60
8.10
5.49
2.93
0.50
-1.82
-4.21
-6.87
-9.91
-13.19
-16.42
-19.25
-21.50
-23.18
-24.50
-25.78
-27.42
-29.85
-33.43
-38.31
-44.28
-50.62
-56.18
-59.65
-59.94
-56.59
-49.86
-40.68
-30.33
-20.10
-10.89
-3.17
3.06
8.08
12.23
15.77
18.76
21.13
22.80
23.72
23.92
23.58
22.92
22.20
21.65
21.48
21.85
22.78
24.18
25.82
27.37
28.53
29.06
28.85
27.92
26.41
24.46
22.32
20.18
18.20
16.46
14.88
13.30
11.50
9.30
6.67
3.78
0.89
-1.78
-4.12
-6.23
-8.30
-10.50
-12.94
-15.57
-18.25
-20.91
-23.51
-26.10
-28.75
-31.56
-34.66
-38.17
-42.19
-46.60
-50.98
-54.54
-56.31
-55.45
-51.58
-44.90
-36.16
-26.36
-16.45
-7.13
1.18
8.28
14.05
18.43
21.41
23.05
23.51
23.04
21.92
20.47
19.03
17.93
17.42
17.63
18.51
19.88
21.46
22.97
24.22
25.12
25.63
25.76
25.49
24.79
23.62
22.03
20.09
17.92
15.65
13.33
10.94
8.44
5.83
3.18
0.59
-1.83
-4.06
-6.19
-8.34
-10.66
-13.21
-15.96
-18.89
-21.93
-25.12
-28.53
-32.27
-36.44
-41.04
-45.87
-50.49
-54.20
-56.17
-55.71
-52.43
-46.44
-38.33
-28.94
-19.21
-9.87
-1.43
5.88
11.96
16.85
20.62
23.33
25.11
26.07
26.38
26.23
25.82
25.30
24.83
24.49
24.34
24.44
24.82
25.46
26.30
27.18
27.91
28.27
28.13
27.44
26.29
24.81
23.18
21.52
19.86
18.12
16.12
13.73
10.89
7.78
4.69
1.97
-0.20
-1.89
-3.39
-5.08
-7.21
-9.81
-12.74
-15.71
-18.57
-21.31
-24.04
-26.98
-30.26
-34.00
-38.26
-43.08
-48.31
-53.51
-57.86
-60.27
-59.72
-55.66
-48.26
-38.47
-27.64
-17.07
-7.64
0.34
7.01
12.62
17.27
20.91
23.42
24.82
25.32
25.31
25.15
25.09
25.20
25.43
25.75
26.12
26.57
27.15
27.85
28.66
29.48
30.21
30.68
30.74
30.28
29.25
27.74
25.91
23.94
21.98
20.02
17.95
15.58
12.77
9.55
6.18
3.00
0.33
-1.76
-3.46
-5.13
-7.15
-9.69
-12.68
-15.85
-18.93
-21.77
-24.36
-26.85
-29.45
-32.41
-35.99
-40.39
-45.58
-51.10
-56.13
-59.49
-60.05
-57.09
-50.53
-41.05
-29.84
-18.30
-7.65
1.35
8.46
13.83
17.83
20.81
23.00
24.50
25.37
25.70
25.64
25.38
25.10
24.93
24.93
25.15
25.60
26.30
27.22
28.28
29.32
30.11
30.43
30.16
29.20
27.64
25.61
23.27
20.80
18.31
15.95
13.77
11.77
9.85
7.85
5.58
2.90
-0.20
-3.58
-7.04
-10.35
-13.34
-15.91
-18.10
-20.01
-21.86
-23.95
-26.68
-30.40
-35.28
-41.10
-47.18
-52.41
-55.51
-55.41
-51.59
-44.33
-34.58
-23.71
-12.99
-3.36
4.75
11.33
16.58
20.69
23.80
25.97
27.29
27.89
27.96
27.69
27.31
26.97
26.78
26.86
27.28
28.04
29.13
30.45
31.80
32.96
33.66
33.71
33.00
31.53
29.42
26.87
24.11
21.34
18.74
16.36
14.18
12.07
9.90
7.57
5.09
2.52
-0.04
-2.57
-5.12
-7.79
-10.68
-13.78
-16.98
-20.08
-22.87
-25.29
-27.48
-29.80
-32.68
-36.48
-41.28
-46.74
-52.07
-56.23
-58.14
-57.00
-52.58
-45.26
-35.94
-25.79
-15.86
-6.88
0.85
7.32
12.72
17.18
20.77
23.46
25.26
26.18
26.40
26.07
25.38
24.52
23.68
23.08
22.90
23.31
24.33
25.85
27.62
29.31
30.60
31.20
30.93
29.73
27.68
25.03
22.14
19.37
17.00
15.04
13.30
11.48
9.30
6.72
3.91
1.17
-1.22
-3.16
-4.73
-6.20
-7.84
-9.84
-12.24
-14.92
-17.70
-20.41
-22.96
-25.43
-28.01
-30.95
-34.48
-38.67
-43.29
-47.76
-51.27
-52.91
-51.95
-48.12
-41.63
-33.17
-23.68
-14.13
-5.30
2.33
8.58
13.51
17.24
19.93
21.66
22.48
22.47
21.82
20.84
19.86
19.16
18.86
18.92
19.29
19.90
20.77
21.90
23.22
24.49
25.44
25.82
25.55
24.70
23.44
21.96
20.36
18.69
16.91
14.97
12.81
10.40
7.71
4.85
2.00
-0.58
-2.72
-4.40
-5.82
-7.31
-9.18
-11.58
-14.43
-17.52
-20.58
-23.53
-26.45
-29.60
-33.26
-37.57
-42.32
-46.95
-50.58
-52.26
-51.25
-47.31
-40.79
-32.52
-23.58
-14.92
-7.16
-0.47
5.25
10.24
14.65
18.45
21.47
23.54
24.62
24.85
24.57
24.18
23.99
24.12
24.53
25.07
25.61
26.09
26.52
26.93
27.30
27.55
27.57
27.22
26.42
25.19
23.66
22.00
20.40
18.96
17.60
16.12
14.25
11.81
8.84
5.62
2.55
-0.03
-2.01
-3.53
-4.93
-6.57
-8.67
-11.25
-14.12
-17.05
-19.82
-22.32
-24.59
-26.75
-29.01
-31.65
-34.93
-39.01
-43.84
-48.98
-53.59
-56.59
-56.96
-54.09
-48.02
-39.48
-29.63
-19.69
-10.62
-2.88
3.47
8.65
12.92
16.39
19.06
20.89
21.83
22.01
21.65
21.08
20.57
20.33
20.41
20.79
21.38
22.10
22.88
23.66
24.33
24.75
24.75
24.23
23.19
21.80
20.30
18.91
17.72
16.64
15.44
13.84
11.70
9.03
6.00
2.92
0.06
-2.42
-4.51
-6.37
-8.24
-10.28
-12.57
-15.02
-17.43
-19.60
-21.43
-22.96
-24.41
-26.08
-28.31
-31.37
-35.36
-40.10
-44.95
-48.95
-50.96
-50.06
-45.85
-38.66
-29.44
-19.43
-9.83
-1.46
5.35
10.67
14.79
18.01
20.54
22.41
23.61
24.11
24.02
23.55
22.99
22.59
22.47
22.63
22.98
23.51
24.28
25.32
26.57
27.81
28.70
28.87
28.15
26.53
24.23
21.56
18.86
16.34
14.07
12.00
9.97
7.87
5.61
3.20
0.70
-1.89
-4.58
-7.44
-10.48
-13.60
-16.54
-19.07
-21.03
-22.53
-23.93
-25.68
-28.24
-31.83
-36.38
-41.43
-46.25
-49.84
-51.23
-49.71
-45.10
-37.84
-28.84
-19.25
-10.11
-2.10
4.53
9.82
14.03
17.41
20.14
22.32
23.94
24.91
25.19
24.84
24.02
23.05
22.24
21.85
21.99
22.68
23.81
25.23
26.72
28.02
28.81
28.82
27.92
26.20
23.94
21.55
19.35
17.52
15.94
14.36
12.50
10.23
7.66
5.05
2.71
0.76
-0.90
-2.54
-4.45
-6.78
-9.48
-12.32
-15.08
-17.63
-20.00
-22.32
-24.80
-27.66
-31.10
-35.27
-40.14
-45.36
-50.25
-53.80
-54.98
-53.07
-47.97
-40.23
-30.88
-21.14
-12.01
-4.08
2.49
7.80
12.07
15.41
17.91
19.59
20.48
20.68
20.33
19.66
18.90
18.31
18.03
18.15
18.59
19.22
19.89
20.49
20.96
21.26
21.32
21.03
20.31
19.14
17.59
15.80
13.90
11.93
9.89
7.70
5.38
2.98
0.56
-1.86
-4.30
-6.82
-9.44
-12.09
-14.60
-16.84
-18.75
-20.40
-21.95
-23.63
-25.67
-28.31
-31.68
-35.84
-40.53
-45.19
-48.93
-50.76
-49.90
-46.05
-39.52
-31.07
-21.74
-12.47
-4.02
3.21
9.05
13.59
16.98
19.47
21.23
22.33
22.82
22.67
21.95
20.86
19.72
18.88
18.61
19.04
20.10
21.61
23.26
24.79
25.94
26.54
26.49
25.74
24.30
22.21
19.63
16.78
13.96
11.42
9.30
7.54
5.90
4.05
1.70
-1.27
-4.75
-8.50
-12.19
-15.60
-18.61
-21.27
-23.69
-26.06
-28.65
-31.73
-35.54
-40.19
-45.46
-50.71
-54.98
-57.15
-56.35
-52.18
-45.01
-35.76
-25.68
-15.95
-7.35
-0.18
5.68
10.53
14.67
18.18
21.01
23.06
24.24
24.67
24.55
24.14
23.73
23.49
23.59
24.08
24.96
26.15
27.49
28.76
29.72
30.18
30.06
29.38
28.22
26.69
24.87
22.81
20.51
18.02
15.34
12.49
9.51
6.41
3.24
0.05
-3.11
-6.19
-9.16
-12.01
-14.77
-17.43
-19.98
-22.47
-25.01
-27.79
-31.12
-35.25
-40.27
-45.91
-51.54
-56.14
-58.66
-58.24
-54.52
-47.73
-38.70
-28.49
-18.21
-8.70
-0.42
6.42
11.89
16.07
19.07
21.01
22.04
22.40
22.34
22.13
21.94
21.86
21.86
21.95
22.16
22.62
23.41
24.57
25.98
27.41
28.51
28.97
28.54
27.11
24.76
21.71
18.33
15.03
12.16
9.88
8.10
6.53
4.75
2.48
-0.40
-3.69
-7.08
-10.30
-13.21
-15.93
-18.71
-21.82
-25.44
-29.64
-34.38
-39.45
-44.41
-48.57
-51.00
-50.85
-47.58
-41.21
-32.41
-22.25
-11.89
-2.27
6.11
13.09
18.81
23.40
27.01
29.61
31.23
31.93
31.90
31.45
30.91
30.59
30.64
31.07
31.76
32.56
33.33
34.03
34.65
35.14
35.36
35.13
34.27
32.65
30.30
27.41
24.25
21.07
18.04
15.18
12.37
9.43
6.22
2.70
-1.04
-4.84
-8.54
-12.04
-15.32
-18.41
-21.42
-24.48
-27.81
-31.64
-36.16
-41.33
-46.82
-51.87
-55.50
-56.69
-54.79
-49.66
-41.82
-32.19
-21.89
-11.86
-2.70
5.34
12.30
18.33
23.53
27.88
31.23
33.48
34.59
34.76
34.31
33.68
33.20
33.07
33.33
33.86
34.51
35.15
35.70
36.08
36.22
36.01
35.34
34.13
32.40
30.25
27.85
25.38
22.89
20.34
17.61
14.61
11.34
7.98
4.77
1.92
-0.53
-2.71
-4.86
-7.22
-9.88
-12.77
-15.70
-18.54
-21.27
-24.03
-27.10
-30.71
-35.00
-39.94
-45.25
-50.41
-54.72
-57.35
-57.58
-54.94
-49.36
-41.33
-31.70
-21.55
-11.81
-3.15
4.19
10.27
15.25
19.25
22.33
24.48
25.72
26.21
26.17
25.85
25.48
25.21
25.16
25.38
25.92
26.71
27.63
28.44
28.93
28.92
28.38
27.40
26.12
24.61
22.93
21.05
18.93
16.60
14.10
11.51
8.86
6.20
3.51
0.84
-1.79
-4.29
-6.63
-8.79
-10.79
-12.71
-14.64
-16.67
-18.89
-21.39
-24.27
-27.68
-31.76
-36.57
-41.90
-47.21
-51.56
-53.87
-53.25
-49.29
-42.29
-33.15
-23.09
-13.26
-4.43
3.08
9.36
14.65
19.11
22.78
25.51
27.15
27.63
27.11
25.94
24.60
23.53
22.99
23.07
23.65
24.57
25.65
26.73
27.72
28.46
28.79
28.53
27.61
26.01
23.93
21.59
19.20
16.85
14.52
12.14
9.62
7.03
4.47
2.05
-0.24
-2.50
-4.90
-7.53
-10.36
-13.25
-16.01
-18.58
-21.00
-23.40
-25.98
-28.93
-32.40
-36.49
-41.12
-45.96
-50.34
-53.38
-54.18
-52.09
-46.99
-39.37
-30.18
-20.53
-11.36
-3.24
3.67
9.46
14.28
18.25
21.34
23.52
24.81
25.31
25.25
24.84
24.30
23.78
23.39
23.20
23.29
23.66
24.29
25.07
25.85
26.49
26.81
26.71
26.10
24.98
23.47
21.73
19.97
18.28
16.59
14.71
12.44
9.65
6.46
3.14
0.03
-2.65
-4.84
-6.67
-8.38
-10.18
-12.22
-14.52
-17.00
-19.53
-21.96
-24.23
-26.36
-28.52
-31.00
-34.08
-37.99
-42.65
-47.61
-52.04
-54.91
-55.24
-52.50
-46.74
-38.66
-29.36
-19.95
-11.28
-3.80
2.41
7.38
11.18
13.85
15.52
16.37
16.71
16.80
16.79
16.74
16.63
16.51
16.52
16.85
17.63
18.79
20.14
21.38
22.29
22.76
22.83
22.57
22.03
21.20
20.01
18.40
16.40
14.12
11.74
9.39
7.16
5.01
2.85
0.55
-1.98
-4.75
-7.68
-10.63
-13.43
-15.96
-18.18
-20.20
-22.22
-24.53
-27.42
-31.05
-35.40
-40.13
-44.68
-48.20
-49.84
-48.90
-45.10
-38.67
-30.32
-21.09
-11.99
-3.77
3.22
9.02
13.78
17.65
20.60
22.49
23.23
22.88
21.75
20.29
18.99
18.22
18.10
18.59
19.51
20.64
21.80
22.88
23.77
24.36
24.59
24.39
23.75
22.70
21.29
19.60
17.63
15.42
12.99
10.39
7.71
5.07
2.57
0.28
-1.83
-3.89
-6.09
-8.58
-11.42
-14.49
-17.56
-20.40
-22.92
-25.23
-27.59
-30.34
-33.74
-37.89
-42.71
-47.84
-52.65
-56.28
-57.68
-56.04
-50.99
-42.90
-32.79
-22.07
-12.05
-3.57
3.09
8.19
12.18
15.46
18.22
20.44
21.99
22.76
22.81
22.31
21.56
20.85
20.44
20.44
20.83
21.52
22.37
23.30
24.17
24.89
25.32
25.28
24.62
23.30
21.40
19.14
16.79
14.54
12.48
10.54
8.59
6.51
4.27
1.92
-0.49
-2.93
-5.48
-8.21
-11.17
-14.29
-17.46
-20.50
-23.30
-25.87
-28.36
-31.03
-34.20
-38.01
-42.36
-46.79
-50.50
-52.54
-52.08
-48.69
-42.52
-34.26
-24.93
-15.60
-7.04
0.34
6.46
11.43
15.32
18.14
19.86
20.47
20.12
19.15
17.98
17.04
16.58
16.74
17.45
18.59
19.95
21.41
22.82
24.10
25.19
25.99
26.38
26.20
25.33
23.72
21.44
18.63
15.54
12.42
9.51
6.91
4.56
2.26
-0.28
-3.29
-6.77
-10.52
-14.18
-17.44
-20.19
-22.62
-25.12
-28.13
-31.94
-36.62
-42.01
-47.63
-52.78
-56.57
-58.06
-56.55
-51.81
-44.18
-34.57
-24.12
-13.90
-4.66
3.25
9.78
15.04
19.15
22.22
24.33
25.56
26.02
25.89
25.40
24.80
24.36
24.33
24.82
25.81
27.15
28.60
29.95
31.03
31.73
32.03
31.90
31.31
30.27
28.79
26.91
24.70
22.21
19.52
16.73
13.94
11.24
8.63
6.03
3.29
0.24
-3.19
-6.90
-10.67
-14.23
-17.37
-20.06
-22.45
-24.82
-27.50
-30.77
-34.86
-39.83
-45.52
-51.46
-56.79
-60.45
-61.36
-58.81
-52.66
-43.50
-32.45
-20.86
-9.92
-0.37
7.58
14.11
19.50
23.90
27.22
29.30
30.05
29.66
28.65
27.67
27.23
27.48
28.28
29.29
30.27
31.13
31.91
32.68
33.37
33.86
34.02
33.82
33.32
32.56
31.52
30.03
27.90
25.02
21.47
17.51
13.52
9.87
6.75
4.18
1.97
-0.15
-2.44
-5.05
-7.98
-11.14
-14.35
-17.47
-20.42
-23.30
-26.28
-29.67
-33.73
-38.58
-44.06
-49.58
-54.22
-56.95
-56.84
-53.43
-46.87
-37.84
-27.43
-16.79
-6.86
1.76
8.87
14.52
18.88
22.08
24.19
25.30
25.59
25.34
24.89
24.52
24.41
24.59
24.98
25.49
26.08
26.73
27.48
28.27
29.03
29.59
29.76
29.37
28.32
26.57
24.22
21.44
18.47
15.54
12.80
10.28
7.84
5.31
2.51
-0.60
-3.91
-7.20
-10.26
-12.95
-15.30
-17.47
-19.72
-22.28
-25.36
-29.13
-33.67
-38.94
-44.62
-49.99
-54.04
-55.67
-54.05
-48.94
-40.84
-30.83
-20.21
-10.06
-0.99
6.88
13.71
19.69
24.82
28.93
31.79
33.28
33.49
32.71
31.36
29.87
28.63
27.92
27.88
28.57
29.87
31.56
33.30
34.71
35.44
35.32
34.37
32.78
30.81
28.67
26.46
24.14
21.62
18.84
15.82
12.67
9.55
6.63
3.99
1.58
-0.72
-3.06
-5.57
-8.30
-11.20
-14.17
-17.11
-19.99
-22.88
-25.90
-29.24
-33.09
-37.59
-42.71
-48.14
-53.19
-56.88
-58.13
-56.17
-50.86
-42.76
-32.99
-22.79
-13.15
-4.58
2.81
9.18
14.67
19.34
23.15
26.06
28.02
29.07
29.30
28.85
27.96
26.92
26.02
25.51
25.48
25.92
26.78
27.95
29.26
30.45
31.19
31.20
30.35
28.80
26.89
24.96
23.20
21.50
19.63
17.39
14.74
11.86
8.95
6.19
3.57
1.02
-1.56
-4.15
-6.66
-9.02
-11.25
-13.47
-15.87
-18.59
-21.69
-25.14
-28.85
-32.79
-36.97
-41.42
-46.05
-50.49
-54.03
-55.81
-55.00
-51.19
-44.55
-35.85
-26.17
-16.59
-7.88
-0.41
5.79
10.81
14.68
17.39
18.90
19.26
18.69
17.57
16.35
15.42
15.06
15.30
15.98
16.83
17.52
17.88
17.89
17.69
17.40
17.08
16.59
15.69
14.17
11.91
9.02
5.69
2.18
-1.37
-4.96
-8.68
-12.66
-16.89
-21.34
-25.85
-30.31
-34.64
-38.83
-42.88
-46.85
-50.78
-54.82
-59.11
-63.84
-69.04
-74.51
-79.64
-83.48
-84.88
-82.75
-76.41
-65.79
-51.50
-34.75
-17.00
0.36
16.34
30.43
42.55
52.82
61.30
67.93
72.49
74.85
75.05
73.38
70.34
66.53
62.53
58.78
55.60
53.14
51.42
50.34
49.69
49.20
48.60
47.58
45.90
43.50
40.46
37.06
33.63
30.41
27.41
24.48
21.37
17.91
14.15
10.27
6.48
2.96
-0.31
-3.40
-6.38
-9.25
-11.99
-14.56
-16.97
-19.33
-21.74
-24.42
-27.60
-31.50
-36.22
-41.62
-47.17
-52.07
-55.34
-56.12
-53.94
-48.87
-41.43
-32.48
-22.98
-13.76
-5.43
1.68
7.49
12.08
15.62
18.27
20.15
21.34
21.94
22.06
21.84
21.44
21.03
20.76
20.74
20.99
21.49
22.11
22.74
23.24
23.53
23.51
23.13
22.34
21.14
19.57
17.75
15.83
13.91
12.03
10.12
8.11
5.94
3.61
1.17
-1.30
-3.79
-6.31
-8.87
-11.44
-13.96
-16.33
-18.51
-20.53
-22.52
-24.68
-27.27
-30.53
-34.57
-39.36
-44.61
-49.70
-53.81
-56.04
-55.64
-52.27
-46.12
-37.94
-28.77
-19.70
-11.51
-4.60
1.06
5.72
9.61
12.83
15.33
17.01
17.80
17.75
17.05
16.01
15.00
14.37
14.41
15.25
16.78
18.72
20.70
22.36
23.51
24.04
23.89
23.05
21.51
19.31
16.69
13.94
11.39
9.23
7.43
5.79
4.02
1.84
-0.87
-4.12
-7.71
-11.39
-14.80
-17.72
-20.04
-21.91
-23.68
-25.78
-28.61
-32.41
-37.11
-42.32
-47.36
-51.31
-53.24
-52.41
-48.57
-42.01
-33.58
-24.35
-15.35
-7.27
-0.37
5.40
10.27
14.45
18.04
21.00
23.24
24.68
25.30
25.16
24.49
23.56
22.69
22.19
22.27
23.00
24.31
25.98
27.70
29.16
30.07
30.28
29.77
28.64
27.00
25.03
22.80
20.36
17.74
14.93
11.98
8.94
5.88
2.82
-0.21
-3.17
-6.04
-8.79
-11.36
-13.79
-16.13
-18.48
-21.02
-23.90
-27.26
-31.16
-35.62
-40.56
-45.73
-50.66
-54.59
-56.65
-55.99
-52.14
-45.22
-35.97
-25.52
-15.06
-5.51
2.74
9.64
15.33
19.97
23.60
26.24
27.91
28.73
28.88
28.57
27.97
27.23
26.52
26.00
25.85
26.21
27.09
28.38
29.84
31.15
32.01
32.19
31.62
30.41
28.74
26.82
24.75
22.53
20.07
17.31
14.31
11.19
8.13
5.24
2.50
-0.20
-3.02
-6.01
-9.12
-12.19
-15.08
-17.68
-20.03
-22.23
-24.38
-26.61
-29.07
-32.02
-35.74
-40.38
-45.70
-50.99
-55.09
-56.78
-55.16
-50.06
-42.07
-32.31
-22.06
-12.32
-3.67
3.68
9.76
14.61
18.23
20.54
21.59
21.56
20.83
19.87
19.11
18.82
19.05
19.68
20.52
21.44
22.41
23.50
24.78
26.20
27.58
28.60
28.96
28.42
26.92
24.56
21.66
18.60
15.71
13.23
11.17
9.32
7.35
4.96
2.07
-1.22
-4.60
-7.81
-10.67
-13.24
-15.68
-18.21
-20.99
-24.12
-27.70
-31.81
-36.44
-41.35
-45.97
-49.40
-50.64
-48.94
-44.08
-36.49
-27.18
-17.37
-8.11
-0.04
6.72
12.33
17.03
20.92
23.97
26.08
27.20
27.53
27.37
27.07
26.88
26.92
27.14
27.44
27.73
27.99
28.24
28.53
28.85
29.16
29.37
29.32
28.85
27.85
26.29
24.25
21.88
19.33
16.65
13.85
10.89
7.78
4.64
1.64
-1.09
-3.56
-5.94
-8.42
-11.12
-14.00
-16.87
-19.50
-21.83
-23.98
-26.26
-29.07
-32.75
-37.37
-42.70
-48.17
-52.89
-55.88
-56.27
-53.54
-47.73
-39.34
-29.34
-18.78
-8.63
0.42
8.07
14.27
19.14
22.81
25.37
26.85
27.36
27.08
26.37
25.63
25.19
25.23
25.71
26.43
27.23
28.02
28.85
29.76
30.69
31.43
31.63
31.01
29.46
27.15
24.47
21.86
19.60
17.74
16.10
14.42
12.51
10.32
7.98
5.58
3.19
0.78
-1.67
-4.19
-6.67
-9.06
-11.33
-13.54
-15.73
-17.89
-19.91
-21.73
-23.40
-25.19
-27.53
-30.86
-35.33
-40.70
-46.25
-50.96
-53.70
-53.53
-50.00
-43.32
-34.29
-24.12
-14.13
-5.34
1.71
6.95
10.69
13.31
15.18
16.50
17.39
17.91
18.10
18.03
17.76
17.43
17.19
17.19
17.56
18.37
19.54
20.95
22.38
23.62
24.46
24.76
24.45
23.54
22.07
20.16
17.94
15.57
13.19
10.92
8.81
6.87
5.01
3.15
1.19
-0.92
-3.20
-5.64
-8.22
-10.86
-13.52
-16.11
-18.57
-20.89
-23.12
-25.40
-27.91
-30.91
-34.54
-38.76
-43.22
-47.18
-49.72
-49.93
-47.28
-41.83
-34.23
-25.46
-16.58
-8.34
-1.14
4.97
10.07
14.25
17.54
19.90
21.35
21.99
22.03
21.74
21.36
21.07
20.95
21.00
21.17
21.43
21.78
22.30
23.01
23.89
24.76
25.42
25.62
25.19
24.10
22.46
20.42
18.16
15.80
13.41
11.03
8.68
6.38
4.17
2.06
0.06
-1.85
-3.74
-5.67
-7.71
-9.91
-12.20
-14.48
-16.62
-18.58
-20.45
-22.48
-25.00
-28.26
-32.39
-37.23
-42.38
-47.12
-50.58
-51.88
-50.43
-46.08
-39.25
-30.85
-21.94
-13.47
-6.01
0.24
5.42
9.76
13.53
16.84
19.70
22.02
23.69
24.59
24.73
24.22
23.33
22.35
21.64
21.41
21.79
22.74
24.11
25.62
26.97
27.87
28.10
27.58
26.38
24.67
22.68
20.62
18.66
16.86
15.16
13.43
11.49
9.21
6.58
3.73
0.93
-1.54
-3.53
-5.05
-6.29
-7.49
-8.89
-10.59
-12.52
-14.55
-16.55
-18.49
-20.46
-22.68
-25.43
-28.97
-33.37
-38.48
-43.82
-48.59
-51.82
-52.60
-50.33
-45.06
-37.39
-28.43
-19.38
-11.21
-4.40
1.02
5.32
8.87
11.87
14.36
16.20
17.27
17.50
17.00
16.03
14.94
14.13
13.91
14.42
15.59
17.17
18.83
20.29
21.35
21.93
22.05
21.72
20.99
19.91
18.57
17.08
15.53
13.96
12.33
10.60
8.70
6.61
4.37
2.02
-0.44
-2.98
-5.58
-8.17
-10.65
-12.90
-14.87
-16.62
-18.29
-20.09
-22.29
-25.14
-28.80
-33.25
-38.24
-43.21
-47.37
-49.84
-49.84
-46.97
-41.32
-33.50
-24.47
-15.27
-6.74
0.64
6.76
11.75
15.81
19.03
21.36
22.72
23.13
22.79
22.08
21.41
21.10
21.28
21.88
22.75
23.77
24.84
25.90
26.86
27.64
28.11
28.14
27.66
26.69
25.32
23.71
22.00
20.31
18.62
16.86
14.85
12.48
9.72
6.71
3.70
0.95
-1.38
-3.27
-4.93
-6.61
-8.57
-10.95
-13.72
-16.69
-19.65
-22.48
-25.14
-27.81
-30.69
-34.03
-37.94
-42.30
-46.70
-50.47
-52.74
-52.73
-50.00
-44.60
-37.10
-28.39
-19.42
-10.92
-3.28
3.38
9.11
13.94
17.84
20.72
22.51
23.23
23.03
22.20
21.17
20.36
20.04
20.28
20.96
21.85
22.80
23.72
24.62
25.49
26.24
26.65
26.59
25.98
24.90
23.54
22.05
20.46
18.72
16.72
14.36
11.65
8.70
5.73
3.01
0.80
-0.81
-1.98
-3.09
-4.57
-6.70
-9.46
-12.54
-15.56
-18.28
-20.74
-23.19
-25.92
-29.07
-32.64
-36.50
-40.51
-44.50
-48.12
-50.79
-51.75
-50.29
-46.03
-39.20
-30.53
-21.10
-11.93
-3.75
3.12
8.67
13.07
16.48
18.97
20.57
21.36
21.55
21.46
21.41
21.62
22.08
22.60
23.02
23.23
23.36
23.60
24.13
24.94
25.92
26.81
27.35
27.35
26.71
25.41
23.54
21.25
18.72
16.16
13.66
11.25
8.93
6.72
4.61
2.66
0.82
-1.02
-3.00
-5.23
-7.76
-10.51
-13.35
-16.17
-18.94
-21.66
-24.46
-27.55
-31.17
-35.49
-40.40
-45.44
-49.74
-52.24
-52.04
-48.72
-42.51
-34.23
-24.98
-15.79
-7.33
0.11
6.54
12.02
16.55
20.03
22.39
23.73
24.30
24.48
24.58
24.80
25.11
25.43
25.67
25.90
26.24
26.86
27.82
28.94
29.98
30.60
30.58
29.88
28.67
27.19
25.67
24.20
22.68
20.93
18.79
16.23
13.40
10.56
7.95
5.68
3.68
1.75
-0.36
-2.80
-5.61
-8.72
-11.93
-15.02
-17.78
-20.06
-21.88
-23.44
-25.10
-27.31
-30.43
-34.63
-39.69
-45.04
-49.75
-52.74
-53.00
-49.98
-43.76
-35.11
-25.33
-15.80
-7.56
-1.07
3.82
7.60
10.75
13.45
15.62
17.05
17.61
17.40
16.74
15.99
15.48
15.40
15.75
16.51
17.55
18.83
20.29
21.84
23.33
24.48
25.04
24.78
23.63
21.74
19.37
16.83
14.35
12.03
9.89
7.95
6.18
4.59
3.10
1.50
-0.39
-2.74
-5.54
-8.58
-11.61
-14.40
-16.89
-19.14
-21.42
-23.99
-27.12
-30.95
-35.40
-40.12
-44.43
-47.45
-48.32
-46.45
-41.67
-34.39
-25.46
-15.99
-6.98
0.80
7.02
11.76
15.38
18.25
20.65
22.63
24.07
24.86
24.97
24.59
24.00
23.48
23.22
23.28
23.61
24.17
24.91
25.77
26.67
27.47
27.98
28.06
27.63
26.71
25.37
23.70
21.75
19.52
17.02
14.25
11.29
8.27
5.39
2.76
0.42
-1.76
-3.96
-6.33
-8.89
-11.54
-14.08
-16.37
-18.38
-20.26
-22.32
-24.87
-28.18
-32.30
-37.06
-42.01
-46.48
-49.61
-50.58
-48.81
-44.16
-37.01
-28.16
-18.69
-9.60
-1.62
4.95
10.20
14.40
17.86
20.72
22.94
24.43
25.14
25.21
24.93
24.65
24.62
24.91
25.40
25.91
26.32
26.66
26.98
27.37
27.76
27.93
27.63
26.68
25.09
23.04
20.81
18.60
16.49
14.42
12.30
10.12
7.95
5.93
4.13
2.47
0.81
-1.04
-3.21
-5.69
-8.40
-11.18
-13.88
-16.36
-18.49
-20.26
-21.80
-23.39
-25.51
-28.57
-32.75
-37.81
-43.06
-47.46
-49.97
-49.77
-46.57
-40.65
-32.77
-23.94
-15.14
-7.13
-0.32
5.20
9.53
12.85
15.32
17.09
18.25
18.90
19.08
18.87
18.36
17.70
17.10
16.78
16.88
17.46
18.40
19.56
20.76
21.88
22.78
23.33
23.36
22.72
21.37
19.38
16.94
14.28
11.67
9.26
7.21
5.53
4.17
2.96
1.65
0.02
-2.05
-4.50
-7.15
-9.77
-12.16
-14.25
-16.10
-17.91
-19.94
-22.48
-25.75
-29.76
-34.26
-38.69
-42.26
-44.13
-43.63
-40.48
-34.85
-27.35
-18.89
-10.41
-2.69
3.82
9.05
13.11
16.23
18.55
20.20
21.23
21.79
22.09
22.30
22.55
22.80
22.98
23.00
22.87
22.69
22.64
22.81
23.28
23.95
24.67
25.20
25.29
24.73
23.44
21.52
19.27
17.03
15.04
13.31
11.61
9.65
7.28
4.59
1.89
-0.46
-2.33
-3.80
-5.24
-6.96
-9.14
-11.65
-14.22
-16.59
-18.69
-20.70
-22.95
-25.76
-29.34
-33.64
-38.44
-43.26
-47.48
-50.28
-50.90
-48.77
-43.79
-36.44
-27.64
-18.52
-10.03
-2.71
3.31
8.21
12.26
15.60
18.23
20.05
21.00
21.17
20.78
20.16
19.58
19.24
19.20
19.47
19.98
20.69
21.53
22.39
23.17
23.72
23.96
23.87
23.45
22.75
21.78
20.54
19.08
17.46
15.81
14.20
12.61
10.94
9.07
6.96
4.66
2.35
0.17
-1.83
-3.72
-5.66
-7.76
-10.03
-12.37
-14.62
-16.64
-18.38
-19.92
-21.45
-23.24
-25.58
-28.68
-32.59
-37.12
-41.78
-45.88
-48.57
-49.09
-46.97
-42.15
-35.09
-26.64
-17.82
-9.59
-2.59
2.95
7.17
10.33
12.70
14.38
15.36
15.62
15.25
14.46
13.59
12.95
12.75
13.04
13.73
14.68
15.75
16.85
17.94
18.93
19.73
20.17
20.12
19.51
18.41
16.98
15.44
13.93
12.46
10.95
9.26
7.33
5.19
2.96
0.78
-1.27
-3.17
-4.98
-6.73
-8.41
-10.03
-11.60
-13.26
-15.17
-17.51
-20.36
-23.68
-27.34
-31.20
-35.06
-38.61
-41.40
-42.79
-42.17
-39.16
-33.83
-26.79
-18.96
-11.31
-4.55
1.04
5.55
9.27
12.45
15.17
17.34
18.80
19.48
19.47
19.06
18.57
18.31
18.38
18.74
19.22
19.71
20.21
20.81
21.59
22.48
23.26
23.61
23.26
22.16
20.48
18.53
16.58
14.75
12.96
11.04
8.86
6.41
3.84
1.36
-0.85
-2.74
-4.37
-5.86
-7.35
-8.93
-10.68
-12.59
-14.66
-16.82
-19.01
-21.25
-23.64
-26.38
-29.73
-33.83
-38.54
-43.36
-47.45
-49.91
-49.93
-47.14
-41.69
-34.18
-25.52
-16.65
-8.35
-1.12
4.83
9.51
13.03
15.54
17.20
18.19
18.71
18.97
19.11
19.25
19.44
19.72
20.16
20.79
21.64
22.63
23.66
24.58
25.26
25.57
25.40
24.70
23.48
21.83
19.97
18.14
16.46
14.92
13.35
11.57
9.47
7.14
4.76
2.53
0.58
-1.10
-2.60
-4.05
-5.57
-7.26
-9.17
-11.32
-13.61
-15.93
-18.18
-20.34
-22.53
-24.95
-27.84
-31.37
-35.52
-40.03
-44.36
-47.74
-49.32
-48.41
-44.75
-38.58
-30.69
-22.09
-13.71
-6.18
0.27
5.65
10.06
13.50
15.95
17.38
17.87
17.65
17.02
16.33
15.84
15.71
16.00
16.69
17.67
18.84
20.09
21.31
22.41
23.29
23.84
24.01
23.73
22.97
21.71
19.96
17.76
15.24
12.56
9.94
7.53
5.39
3.44
1.52
-0.49
-2.62
-4.82
-7.03
-9.18
-11.33
-13.54
-15.92
-18.57
-21.59
-25.12
-29.21
-33.81
-38.57
-42.85
-45.82
-46.69
-44.95
-40.62
-34.16
-26.37
-18.13
-10.18
-3.04
3.08
8.16
12.31
15.70
18.46
20.62
22.16
23.03
23.26
22.99
22.48
22.04
21.88
22.07
22.55
23.16
23.77
24.34
24.88
25.41
25.87
26.13
26.00
25.33
24.13
22.54
20.79
19.06
17.36
15.56
13.52
11.10
8.36
5.43
2.49
-0.36
-3.09
-5.74
-8.32
-10.86
-13.32
-15.72
-18.09
-20.53
-23.15
-26.13
-29.63
-33.75
-38.48
-43.50
-48.23
-51.81
-53.33
-52.08
-47.84
-40.96
-32.31
-22.97
-13.95
-5.89
0.97
6.70
11.48
15.42
18.52
20.68
21.85
22.10
21.65
20.85
20.04
19.49
19.35
19.66
20.36
21.40
22.72
24.22
25.78
27.15
28.04
28.20
27.54
26.16
24.33
22.35
20.39
18.46
16.44
14.25
11.86
9.36
6.91
4.61
2.49
0.51
-1.48
-3.62
-6.06
-8.88
-12.02
-15.31
-18.44
-21.17
-23.38
-25.29
-27.32
-30.00
-33.68
-38.39
-43.70
-48.83
-52.81
-54.68
-53.78
-49.85
-43.19
-34.52
-24.91
-15.44
-6.99
-0.04
5.35
9.44
12.59
15.09
17.07
18.53
19.46
19.95
20.17
20.36
20.68
21.21
21.91
22.73
23.65
24.68
25.84
27.10
28.31
29.28
29.83
29.84
29.28
28.17
26.60
24.66
22.47
20.15
17.76
15.30
12.72
9.98
7.09
4.13
1.24
-1.47
-3.98
-6.33
-8.63
-11.00
-13.48
-16.09
-18.84
-21.74
-24.87
-28.35
-32.34
-36.95
-42.13
-47.58
-52.66
-56.52
-58.17
-56.88
-52.37
-44.96
-35.46
-24.97
-14.55
-5.02
3.20
10.02
15.53
19.90
23.19
25.45
26.69
27.08
26.84
26.32
25.83
25.57
25.61
25.98
26.73
27.93
29.62
31.71
33.92
35.78
36.85
36.78
35.51
33.22
30.34
27.36
24.71
22.63
21.12
19.95
18.77
17.23
15.14
12.49
9.46
6.32
3.31
0.54
-1.98
-4.36
-6.77
-9.32
-12.08
-15.00
-17.99
-20.98
-23.94
-26.94
-30.10
-33.58
-37.54
-42.08
-47.16
-52.42
-57.16
-60.37
-61.04
-58.52
-52.76
-44.39
-34.44
-24.05
-14.04
-4.90
3.23
10.33
16.32
21.14
24.67
26.87
27.83
27.74
26.93
25.84
24.90
24.50
24.85
26.00
27.74
29.80
31.89
33.77
35.25
36.19
36.54
36.24
35.30
33.77
31.80
29.59
27.40
25.42
23.73
22.18
20.49
18.36
15.65
12.50
9.26
6.35
3.99
2.15
0.53
-1.25
-3.48
-6.26
-9.51
-12.99
-16.46
-19.71
-22.60
-25.13
-27.43
-29.80
-32.66
-36.38
-41.12
-46.68
-52.42
-57.35
-60.31
-60.33
-56.88
-50.04
-40.48
-29.32
-17.77
-6.93
2.47
10.07
15.81
19.83
22.31
23.49
23.66
23.13
22.29
21.48
20.98
20.93
21.34
22.13
23.14
24.26
25.44
26.64
27.83
28.92
29.75
30.17
30.04
29.32
28.03
26.25
24.09
21.65
19.07
16.45
13.90
11.46
9.06
6.60
3.95
1.08
-1.97
-5.11
-8.25
-11.38
-14.52
-17.68
-20.85
-23.98
-27.11
-30.38
-34.06
-38.41
-43.51
-49.10
-54.44
-58.44
-59.93
-58.03
-52.48
-43.79
-33.06
-21.68
-10.93
-1.62
5.99
12.04
16.85
20.67
23.64
25.72
26.94
27.36
27.18
26.70
26.18
25.81
25.66
25.71
25.93
26.37
27.10
28.16
29.47
30.83
31.91
32.49
32.46
31.87
30.84
29.41
27.53
25.06
21.95
18.32
14.45
10.68
7.25
4.24
1.62
-0.77
-3.03
-5.34
-7.87
-10.77
-14.08
-17.68
-21.30
-24.66
-27.60
-30.27
-33.04
-36.44
-40.84
-46.38
-52.72
-59.05
-64.20
-66.88
-66.05
-61.28
-52.93
-42.04
-30.03
-18.23
-7.57
1.52
9.02
15.08
19.87
23.51
26.12
27.86
28.87
29.32
29.37
29.17
28.92
28.73
28.72
28.93
29.35
30.00
30.89
32.03
33.34
34.59
35.49
35.74
35.14
33.66
31.41
28.65
25.68
22.71
19.87
17.13
14.39
11.52
8.51
5.48
2.62
0.04
-2.27
-4.55
-7.04
-9.87
-12.92
-15.91
-18.56
-20.73
-22.55
-24.37
-26.59
-29.57
-33.57
-38.63
-44.55
-50.76
-56.35
-60.13
-60.99
-58.21
-51.76
-42.39
-31.36
-20.12
-9.87
-1.28
5.48
10.66
14.64
17.69
19.93
21.33
21.82
21.49
20.59
19.45
18.44
17.80
17.63
17.92
18.63
19.72
21.14
22.80
24.48
25.90
26.76
26.81
25.90
24.08
21.57
18.69
15.80
13.16
10.84
8.78
6.78
4.63
2.18
-0.67
-3.90
-7.41
-11.00
-14.41
-17.38
-19.82
-21.84
-23.78
-26.12
-29.27
-33.41
-38.44
-43.86
-48.91
-52.64
-54.11
-52.56
-47.70
-39.80
-29.73
-18.72
-8.07
1.24
8.72
14.37
18.55
21.68
24.07
25.86
27.06
27.68
27.78
27.56
27.29
27.18
27.30
27.59
27.89
28.08
28.15
28.24
28.51
29.05
29.75
30.33
30.43
29.73
28.03
25.39
22.05
18.41
14.84
11.63
8.88
6.47
4.18
1.78
-0.93
-3.97
-7.31
-10.83
-14.38
-17.85
-21.15
-24.26
-27.24
-30.29
-33.71
-37.77
-42.62
-48.01
-53.36
-57.67
-59.87
-59.01
-54.65
-47.04
-37.04
-25.88
-14.82
-4.76
3.84
10.95
16.74
21.38
24.95
27.47
28.95
29.55
29.50
29.09
28.65
28.39
28.46
28.85
29.45
30.07
30.58
30.94
31.25
31.61
32.04
32.40
32.41
31.85
30.55
28.58
26.06
23.12
19.85
16.37
12.79
9.35
6.28
3.68
1.49
-0.49
-2.52
-4.82
-7.51
-10.63
-14.11
-17.80
-21.48
-24.92
-27.98
-30.73
-33.48
-36.65
-40.61
-45.34
-50.39
-54.83
-57.54
-57.47
-54.07
-47.38
-38.14
-27.52
-16.78
-6.97
1.30
7.87
12.85
16.46
18.87
20.22
20.66
20.48
20.03
19.67
19.58
19.80
20.27
20.89
21.63
22.51
23.56
24.72
25.83
26.69
27.13
27.07
26.54
25.61
24.35
22.86
21.12
19.13
16.87
14.35
11.66
8.92
6.24
3.66
1.14
-1.43
-4.13
-6.94
-9.74
-12.36
-14.69
-16.76
-18.80
-21.14
-24.14
-28.04
-32.83
-38.20
-43.47
-47.70
-49.86
-49.13
-45.15
-38.17
-29.00
-18.77
-8.60
0.65
8.52
14.97
20.22
24.51
27.98
30.61
32.30
33.01
32.85
32.10
31.12
30.24
29.61
29.26
29.10
29.11
29.29
29.69
30.29
30.92
31.26
31.00
29.89
27.91
25.21
22.12
18.97
15.98
13.22
10.64
8.12
5.60
3.09
0.66
-1.61
-3.72
-5.75
-7.86
-10.10
-12.49
-14.94
-17.34
-19.63
-21.82
-23.99
-26.21
-28.59
-31.24
-34.37
-38.14
-42.58
-47.41
-51.97
-55.32
-56.46
-54.69
-49.85
-42.45
-33.46
-24.01
-15.02
-6.98
0.01
6.12
11.48
16.09
19.76
22.28
23.60
23.89
23.54
23.01
22.61
22.51
22.66
22.96
23.30
23.68
24.15
24.75
25.46
26.15
26.63
26.68
26.14
24.96
23.23
21.12
18.85
16.61
14.51
12.56
10.71
8.86
6.99
5.07
3.16
1.27
-0.64
-2.63
-4.83
-7.34
-10.19
-13.34
-16.63
-19.86
-22.85
-25.45
-27.66
-29.64
-31.71
-34.28
-37.68
-41.99
-46.86
-51.50
-54.84
-55.81
-53.73
-48.53
-40.83
-31.70
-22.34
-13.69
-6.24
-0.06
5.08
9.41
13.07
16.01
18.09
19.27
19.60
19.34
18.85
18.48
18.45
18.82
19.52
20.44
21.50
22.66
23.88
25.06
26.01
26.52
26.40
25.61
24.23
22.42
20.33
18.07
15.66
13.10
10.44
7.78
5.27
3.01
1.00
-0.90
-2.89
-5.16
-7.76
-10.60
-13.48
-16.20
-18.66
-20.96
-23.37
-26.22
-29.80
-34.16
-39.05
-43.91
-47.95
-50.32
-50.30
-47.52
-42.10
-34.57
-25.81
-16.72
-8.10
-0.46
6.00
11.28
15.47
18.66
20.93
22.36
23.09
23.34
23.35
23.34
23.41
23.57
23.80
24.08
24.40
24.80
25.24
25.69
26.08
26.32
26.29
25.88
25.01
23.68
21.96
20.04
18.09
16.23
14.41
12.49
10.36
8.01
5.56
3.20
1.10
-0.76
-2.55
-4.51
-6.82
-9.48
-12.35
-15.18
-17.73
-19.89
-21.77
-23.61
-25.83
-28.79
-32.72
-37.59
-43.07
-48.45
-52.85
-55.30
-55.06
-51.77
-45.64
-37.38
-28.01
-18.60
-9.95
-2.50
3.66
8.68
12.76
16.09
18.77
20.87
22.45
23.56
24.28
24.69
24.88
24.97
25.06
25.26
25.64
26.23
27.03
27.94
28.82
29.40
29.45
28.76
27.28
25.17
22.67
20.14
17.78
15.68
13.73
11.71
9.40
6.70
3.67
0.52
-2.49
-5.15
-7.37
-9.25
-10.99
-12.84
-14.98
-17.44
-20.07
-22.62
-24.86
-26.65
-28.11
-29.57
-31.47
-34.25
-38.11
-42.83
-47.77
-51.91
-54.19
-53.69
-50.07
-43.53
-34.86
-25.12
-15.37
-6.42
1.23
7.41
12.19
15.71
18.17
19.76
20.65
20.94
20.73
20.13
19.35
18.65
18.34
18.60
19.47
20.81
22.37
23.93
25.29
26.29
26.81
26.66
25.73
24.03
21.76
19.25
16.87
14.88
13.32
12.03
10.75
9.29
7.50
5.41
3.05
0.45
-2.37
-5.38
-8.46
-11.44
-14.12
-16.40
-18.33
-20.15
-22.20
-24.85
-28.34
-32.69
-37.67
-42.69
-46.91
-49.43
-49.49
-46.76
-41.42
-34.15
-25.92
-17.70
-10.14
-3.58
2.01
6.86
11.16
14.97
18.17
20.56
21.98
22.43
22.09
21.28
20.31
19.45
18.85
18.63
18.91
19.77
21.24
23.14
25.14
26.79
27.72
27.69
26.77
25.17
23.19
21.06
18.90
16.68
14.31
11.74
9.00
6.22
3.54
1.07
-1.17
-3.25
-5.30
-7.41
-9.61
-11.85
-14.10
-16.34
-18.61
-21.02
-23.67
-26.63
-29.92
-33.57
-37.65
-42.17
-46.92
-51.36
-54.58
-55.57
-53.52
-48.23
-40.24
-30.60
-20.57
-11.15
-2.95
3.85
9.33
13.61
16.76
18.87
20.08
20.61
20.71
20.60
20.40
20.17
19.94
19.79
19.82
20.15
20.85
21.89
23.15
24.41
25.43
25.97
25.92
25.26
24.07
22.53
20.80
19.03
17.23
15.36
13.33
11.03
8.47
5.70
2.80
-0.08
-2.86
-5.43
-7.77
-9.88
-11.86
-13.78
-15.75
-17.82
-20.05
-22.46
-25.14
-28.23
-31.85
-36.02
-40.52
-44.89
-48.43
-50.36
-50.01
-46.98
-41.31
-33.53
-24.50
-15.23
-6.62
0.83
6.99
12.00
16.06
19.21
21.35
22.35
22.24
21.26
19.88
18.59
17.72
17.44
17.74
18.54
19.69
21.07
22.50
23.78
24.68
25.04
24.76
23.87
22.44
20.64
18.61
16.48
14.31
12.13
9.96
7.79
5.59
3.29
0.79
-2.00
-5.10
-8.37
-11.58
-14.48
-16.89
-18.84
-20.57
-22.44
-24.85
-28.12
-32.36
-37.30
-42.37
-46.62
-49.03
-48.74
-45.37
-39.13
-30.79
-21.41
-12.08
-3.63
3.51
9.26
13.75
17.26
20.01
22.11
23.62
24.51
24.82
24.63
24.14
23.56
23.06
22.80
22.82
23.16
23.77
24.58
25.44
26.15
26.52
26.45
25.91
24.97
23.69
22.12
20.27
18.17
15.88
13.49
11.10
8.71
6.24
3.59
0.68
-2.49
-5.79
-9.05
-12.08
-14.81
-17.20
-19.35
-21.44
-23.64
-26.20
-29.36
-33.28
-37.95
-43.08
-48.00
-51.74
-53.22
-51.56
-46.46
-38.36
-28.31
-17.69
-7.75
0.74
7.55
12.87
17.07
20.43
23.06
24.98
26.14
26.62
26.57
26.27
25.98
25.88
26.05
26.45
26.99
27.58
28.23
28.95
29.75
30.50
30.99
30.95
30.20
28.70
26.57
24.01
21.23
18.37
15.51
12.74
10.15
7.80
5.74
3.93
2.26
0.50
-1.56
-4.13
-7.23
-10.71
-14.22
-17.33
-19.77
-21.52
-22.91
-24.47
-26.73
-29.99
-34.25
-39.14
-44.03
-48.11
-50.52
-50.54
-47.77
-42.26
-34.57
-25.64
-16.49
-8.01
-0.71
5.29
10.10
13.91
16.84
18.92
20.11
20.39
19.90
18.87
17.69
16.74
16.33
16.58
17.34
18.36
19.35
20.18
20.86
21.55
22.36
23.26
23.98
24.13
23.37
21.54
18.85
15.68
12.55
9.79
7.51
5.57
3.69
1.60
-0.76
-3.33
-5.93
-8.43
-10.80
-13.15
-15.64
-18.46
-21.71
-25.49
-29.78
-34.50
-39.36
-43.82
-47.12
-48.39
-46.95
-42.55
-35.52
-26.70
-17.20
-8.07
-0.00
6.72
12.14
16.45
19.77
22.15
23.58
24.14
24.05
23.64
23.30
23.26
23.59
24.19
24.92
25.70
26.49
27.25
27.90
28.28
28.26
27.76
26.88
25.77
24.57
23.31
21.84
20.01
17.72
14.98
12.00
9.02
6.24
3.72
1.38
-0.98
-3.54
-6.39
-9.47
-12.61
-15.56
-18.17
-20.42
-22.48
-24.60
-27.10
-30.24
-34.18
-38.90
-44.05
-49.00
-52.78
-54.37
-52.99
-48.40
-41.03
-31.81
-21.90
-12.30
-3.67
3.73
9.91
15.00
19.09
22.21
24.36
25.60
26.02
25.85
25.37
24.87
24.57
24.61
24.98
25.67
26.64
27.85
29.24
30.60
31.61
31.92
31.31
29.78
27.64
25.30
23.11
21.22
19.55
17.84
15.85
13.46
10.76
7.99
5.40
3.20
1.35
-0.30
-2.01
-3.98
-6.28
-8.83
-11.49
-14.15
-16.74
-19.28
-21.83
-24.48
-27.41
-30.75
-34.61
-38.83
-42.89
-45.90
-46.86
-45.06
-40.38
-33.39
-25.16
-16.82
-9.18
-2.52
3.25
8.35
12.88
16.71
19.60
21.34
21.94
21.63
20.78
19.75
18.84
18.19
17.86
17.79
17.88
18.01
18.05
17.97
17.77
17.52
17.29
17.05
16.68
15.99
14.82
13.08
10.84
8.25
5.53
2.88
0.39
-1.93
-4.14
-6.29
-8.45
-10.62
-12.79
-14.93
-17.04
-19.12
-21.20
-23.36
-25.71
-28.40
-31.61
-35.45
-39.84
-44.42
-48.45
-50.95
-51.01
-48.05
-42.13
-33.92
-24.49
-14.94
-6.10
1.62
8.09
13.40
17.58
20.66
22.66
23.69
23.96
23.75
23.33
22.89
22.57
22.41
22.47
22.77
23.35
24.15
25.08
25.93
26.51
26.62
26.15
25.12
23.69
22.01
20.25
18.49
16.69
14.81
12.78
10.60
8.33
6.04
3.84
1.75
-0.30
-2.41
-4.69
-7.18
-9.85
-12.55
-15.11
-17.41
-19.46
-21.42
-23.57
-26.27
-29.81
-34.27
-39.37
-44.47
-48.57
-50.56
-49.61
-45.43
-38.48
-29.76
-20.50
-11.77
-4.20
2.08
7.25
11.59
15.35
18.63
21.44
23.75
25.50
26.66
27.20
27.15
26.59
25.67
24.63
23.74
23.28
23.44
24.28
25.65
27.27
28.70
29.56
29.61
28.80
27.27
25.30
23.16
21.04
19.05
17.16
15.26
13.17
10.76
8.00
5.07
2.26
-0.10
-1.86
-3.13
-4.27
-5.72
-7.81
-10.56
-13.70
-16.85
-19.71
-22.23
-24.61
-27.25
-30.52
-34.59
-39.33
-44.26
-48.61
-51.49
-52.12
-50.01
-45.14
-37.96
-29.27
-20.05
-11.17
-3.30
3.23
8.33
12.08
14.67
16.28
17.11
17.33
17.17
16.87
16.66
16.74
17.19
17.94
18.86
19.77
20.56
21.19
21.71
22.15
22.50
22.73
22.71
22.38
21.63
20.44
18.86
16.95
14.81
12.56
10.30
8.12
6.04
4.01
1.93
-0.30
-2.71
-5.28
-7.83
-10.22
-12.32
-14.15
-15.85
-17.63
-19.75
-22.41
-25.71
-29.70
-34.28
-39.14
-43.69
-47.05
-48.32
-46.84
-42.50
-35.78
-27.64
-19.10
-11.01
-3.80
2.44
7.80
12.39
16.18
19.06
20.97
21.90
22.06
21.75
21.29
20.92
20.77
20.83
21.09
21.58
22.35
23.48
24.92
26.48
27.83
28.60
28.48
27.40
25.50
23.11
20.66
18.46
16.68
15.23
13.88
12.32
10.33
7.85
5.03
2.14
-0.58
-2.92
-4.90
-6.67
-8.51
-10.66
-13.29
-16.32
-19.52
-22.56
-25.19
-27.37
-29.36
-31.59
-34.52
-38.42
-43.12
-48.06
-52.35
-55.01
-55.22
-52.56
-47.09
-39.34
-30.21
-20.70
-11.69
-3.76
2.89
8.34
12.81
16.43
19.22
21.16
22.24
22.59
22.45
22.10
21.75
21.49
21.36
21.41
21.72
22.41
23.51
24.93
26.43
27.67
28.34
28.28
27.52
26.23
24.65
22.97
21.33
19.76
18.22
16.64
14.91
12.92
10.60
7.99
5.23
2.62
0.40
-1.34
-2.74
-4.16
-6.03
-8.58
-11.79
-15.36
-18.86
-21.98
-24.59
-26.78
-28.86
-31.17
-34.01
-37.56
-41.74
-46.15
-50.04
-52.45
-52.45
-49.50
-43.65
-35.57
-26.36
-17.17
-8.87
-1.90
3.73
8.21
11.76
14.53
16.58
17.93
18.65
18.82
18.56
18.05
17.46
17.04
16.97
17.38
18.25
19.48
20.86
22.21
23.37
24.19
24.57
24.43
23.68
22.32
20.43
18.17
15.72
13.25
10.87
8.62
6.47
4.34
2.19
-0.05
-2.37
-4.74
-7.08
-9.35
-11.52
-13.65
-15.84
-18.22
-20.93
-24.12
-27.90
-32.29
-37.15
-42.03
-46.20
-48.71
-48.68
-45.59
-39.49
-31.08
-21.47
-11.84
-3.11
4.24
10.17
14.87
18.58
21.49
23.65
25.08
25.81
25.92
25.58
25.01
24.44
24.07
24.01
24.27
24.78
25.47
26.28
27.12
27.87
28.36
28.40
27.90
26.84
25.39
23.76
22.11
20.45
18.69
16.64
14.18
11.36
8.33
5.36
2.64
0.22
-2.00
-4.26
-6.78
-9.68
-12.87
-16.12
-19.18
-21.87
-24.18
-26.32
-28.64
-31.53
-35.30
-40.02
-45.36
-50.59
-54.63
-56.39
-55.02
-50.31
-42.70
-33.19
-22.98
-13.15
-4.37
3.06
9.14
13.99
17.72
20.40
22.14
23.07
23.37
23.28
23.01
22.74
22.58
22.58
22.81
23.31
24.09
25.18
26.49
27.86
29.04
29.78
29.87
29.24
27.98
26.26
24.28
22.18
20.05
17.86
15.61
13.24
10.76
8.20
5.64
3.17
0.82
-1.48
-3.84
-6.43
-9.30
-12.40
-15.50
-18.38
-20.90
-23.14
-25.37
-27.98
-31.32
-35.53
-40.44
-45.54
-50.00
-52.84
-53.17
-50.45
-44.72
-36.63
-27.24
-17.75
-9.08
-1.70
4.34
9.21
13.04
15.81
17.42
17.83
17.26
16.18
15.12
14.50
14.48
14.95
15.64
16.33
16.86
17.24
17.53
17.89
18.40
19.09
19.84
20.40
20.47
19.83
18.41
16.38
13.97
11.38
8.71
5.93
2.99
-0.12
-3.33
-6.53
-9.59
-12.45
-15.03
-17.31
-19.32
-21.25
-23.40
-26.19
-29.97
-34.86
-40.65
-46.76
-52.35
-56.41
-58.03
-56.54
-51.81
-44.28
-34.87
-24.78
-15.16
-6.69
0.37
6.22
11.21
15.54
19.23
22.10
23.98
24.87
24.97
24.67
24.34
24.23
24.41
24.82
25.39
26.10
26.97
27.98
29.04
29.90
30.31
30.03
29.04
27.42
25.39
23.15
20.83
18.48
16.04
13.47
10.73
7.85
4.86
1.78
-1.40
-4.68
-8.00
-11.24
-14.27
-16.97
-19.35
-21.50
-23.65
-26.03
-28.90
-32.45
-36.73
-41.62
-46.67
-51.13
-54.02
-54.41
-51.72
-45.98
-37.80
-28.19
-18.25
-8.80
-0.33
7.01
13.24
18.39
22.45
25.44
27.39
28.43
28.75
28.56
28.10
27.59
27.20
27.11
27.40
28.09
29.18
30.55
32.09
33.59
34.83
35.52
35.47
34.60
33.00
30.94
28.72
26.55
24.49
22.44
20.27
17.84
15.13
12.15
8.93
5.47
1.79
-2.00
-5.68
-8.97
-11.66
-13.70
-15.25
-16.64
-18.29
-20.60
-23.85
-28.13
-33.37
-39.24
-45.15
-50.32
-53.80
-54.75
-52.62
-47.37
-39.51
-30.02
-20.04
-10.63
-2.43
4.29
9.63
13.80
16.99
19.26
20.59
21.00
20.59
19.64
18.52
17.63
17.24
17.49
18.30
19.52
20.91
22.31
23.61
24.80
25.82
26.52
26.72
26.17
24.77
22.58
19.89
17.08
14.52
12.35
10.49
8.64
6.46
3.73
0.48
-3.09
-6.62
-9.79
-12.45
-14.63
-16.56
-18.58
-21.06
-24.27
-28.37
-33.35
-38.90
-44.40
-48.98
-51.63
-51.52
-48.24
-41.99
-33.52
-23.94
-14.34
-5.59
1.91
8.13
13.21
17.34
20.66
23.21
24.96
25.98
26.39
26.43
26.36
26.40
26.63
27.02
27.42
27.71
27.83
27.86
27.92
28.11
28.39
28.58
28.45
27.79
26.48
24.54
22.07
19.24
16.28
13.37
10.63
8.09
5.65
3.16
0.45
-2.54
-5.78
-9.13
-12.38
-15.36
-17.99
-20.30
-22.49
-24.85
-27.72
-31.39
-35.94
-41.14
-46.38
-50.70
-53.00
-52.39
-48.43
-41.33
-31.90
-21.34
-10.87
-1.44
6.45
12.68
17.44
21.03
23.72
25.73
27.18
28.12
28.61
28.71
28.56
28.34
28.21
28.24
28.38
28.53
28.66
28.83
29.15
29.68
30.29
30.67
30.48
29.45
27.57
25.01
22.03
18.87
15.63
12.39
9.26
6.37
3.88
1.80
-0.01
-1.84
-3.94
-6.48
-9.47
-12.72
-16.02
-19.19
-22.13
-24.84
-27.45
-30.15
-33.22
-36.87
-41.12
-45.63
-49.67
-52.29
-52.56
-49.95
-44.51
-36.83
-27.91
-18.75
-10.17
-2.65
3.66
8.77
12.74
15.65
17.53
18.44
18.53
18.05
17.32
16.69
16.43
16.64
17.27
18.11
18.94
19.61
20.12
20.56
21.05
21.60
22.08
22.29
21.99
21.09
19.60
17.65
15.37
12.84
10.12
7.22
4.24
1.29
-1.54
-4.21
-6.73
-9.11
-11.33
-13.39
-15.33
-17.25
-19.33
-21.77
-24.70
-28.17
-32.12
-36.38
-40.55
-44.02
-46.02
-45.79
-42.90
-37.37
-29.69
-20.73
-11.40
-2.43
5.72
12.86
18.94
23.96
27.88
30.62
32.11
32.35
31.54
30.03
28.36
27.04
26.41
26.53
27.20
28.09
28.90
29.47
29.75
29.74
29.46
28.84
27.83
26.41
24.60
22.44
19.98
17.27
14.35
11.25
7.98
4.58
1.08
-2.44
-5.85
-9.05
-12.03
-14.86
-17.68
-20.58
-23.51
-26.37
-29.08
-31.65
-34.28
-37.26
-40.86
-45.21
-50.09
-55.02
-59.20
-61.70
-61.64
-58.53
-52.41
-43.95
-34.24
-24.40
-15.29
-7.29
-0.40
5.58
10.71
14.90
17.97
19.78
20.44
20.26
19.66
18.99
18.49
18.27
18.39
18.86
19.69
20.84
22.17
23.51
24.67
25.49
25.87
25.78
25.21
24.20
22.78
21.02
18.97
16.66
14.10
11.31
8.36
5.38
2.53
-0.01
-2.16
-3.94
-5.52
-7.14
-9.00
-11.19
-13.65
-16.23
-18.81
-21.36
-24.00
-26.94
-30.39
-34.48
-39.13
-44.04
-48.69
-52.39
-54.35
-53.90
-50.63
-44.58
-36.30
-26.73
-16.95
-7.86
-0.02
6.48
11.78
16.12
19.59
22.12
23.52
23.75
23.02
21.78
20.62
20.01
20.13
20.89
21.97
23.09
24.09
24.95
25.72
26.39
26.85
26.92
26.52
25.65
24.42
22.93
21.23
19.23
16.84
14.02
10.85
7.56
4.35
1.39
-1.31
-3.84
-6.31
-8.80
-11.29
-13.70
-15.94
-18.06
-20.21
-22.72
-25.92
-30.07
-35.16
-40.85
-46.45
-51.05
-53.68
-53.57
-50.34
-44.14
-35.61
-25.74
-15.57
-6.00
2.41
9.42
15.06
19.49
22.87
25.36
27.04
27.94
28.09
27.56
26.56
25.39
24.44
24.04
24.35
25.31
26.69
28.17
29.49
30.48
31.05
31.14
30.71
29.72
28.20
26.23
23.98
21.61
19.23
16.88
14.50
12.03
9.42
6.69
3.94
1.29
-1.17
-3.48
-5.76
-8.20
-10.97
-14.06
-17.30
-20.43
-23.23
-25.68
-28.04
-30.75
-34.23
-38.64
-43.78
-49.02
-53.46
-56.12
-56.19
-53.24
-47.31
-38.97
-29.12
-18.81
-8.97
-0.24
7.11
13.11
17.96
21.85
24.90
27.14
28.55
29.15
29.07
28.47
27.60
26.73
26.13
25.99
26.45
27.49
28.95
30.53
31.88
32.67
32.75
32.09
30.81
29.07
27.06
24.92
22.73
20.49
18.15
15.62
12.84
9.82
6.71
3.70
1.02
-1.27
-3.24
-5.12
-7.15
-9.50
-12.21
-15.15
-18.15
-21.04
-23.75
-26.25
-28.63
-31.06
-33.83
-37.19
-41.29
-45.97
-50.64
-54.34
-55.96
-54.61
-49.99
-42.54
-33.27
-23.41
-14.01
-5.73
1.26
7.04
11.72
15.35
17.87
19.26
19.63
19.26
18.52
17.80
17.33
17.18
17.33
17.69
18.21
18.90
19.75
20.76
21.81
22.74
23.36
23.53
23.18
22.30
20.92
19.08
16.83
14.25
11.43
8.45
5.41
2.38
-0.54
-3.33
-5.99
-8.53
-11.01
-13.50
-16.00
-18.52
-21.05
-23.62
-26.34
-29.44
-33.17
-37.67
-42.81
-48.06
-52.48
-54.99
-54.63
-50.91
-44.01
-34.72
-24.20
-13.67
-4.01
4.27
11.08
16.46
20.55
23.40
25.05
25.60
25.24
24.31
23.21
22.32
21.87
21.94
22.44
23.21
24.14
25.10
26.03
26.87
27.50
27.84
27.78
27.30
26.42
25.20
23.66
21.79
19.58
17.01
14.18
11.23
8.27
5.35
2.39
-0.73
-4.10
-7.70
-11.42
-15.02
-18.33
-21.24
-23.77
-26.09
-28.50
-31.33
-34.91
-39.43
-44.78
-50.55
-55.92
-59.90
-61.51
-60.02
-55.19
-47.35
-37.35
-26.31
-15.37
-5.40
3.19
10.42
16.52
21.69
25.96
29.14
31.03
31.59
31.04
29.85
28.57
27.63
27.26
27.48
28.19
29.25
30.54
31.93
33.30
34.46
35.18
35.21
34.42
32.79
30.58
28.15
25.87
23.90
22.10
20.14
17.69
14.59
11.00
7.28
3.83
0.88
-1.57
-3.71
-5.82
-8.09
-10.57
-13.18
-15.81
-18.40
-21.00
-23.75
-26.89
-30.67
-35.21
-40.51
-46.25
-51.85
-56.44
-59.04
-58.80
-55.26
-48.54
-39.33
-28.72
-17.90
-7.82
0.96
8.26
14.19
18.89
22.44
24.87
26.21
26.53
26.07
25.19
24.30
23.76
23.73
24.20
24.97
25.82
26.60
27.26
27.84
28.42
28.96
29.31
29.22
28.48
27.02
24.91
22.37
19.66
16.95
14.30
11.63
8.75
5.52
1.86
-2.13
-6.19
-9.95
-13.15
-15.67
-17.67
-19.50
-21.59
-24.32
-27.97
-32.65
-38.28
-44.52
-50.73
-55.93
-59.02
-59.03
-55.45
-48.46
-38.89
-27.98
-17.00
-6.87
1.91
9.28
15.43
20.59
24.84
28.15
30.40
31.52
31.56
30.76
29.46
28.08
26.95
26.29
26.22
26.72
27.70
28.98
30.37
31.62
32.52
32.82
32.32
30.88
28.50
25.33
21.74
18.16
14.97
12.32
10.15
8.15
5.97
3.31
0.08
-3.60
-7.47
-11.24
-14.63
-17.56
-20.10
-22.49
-25.00
-27.94
-31.50
-35.84
-40.94
-46.62
-52.36
-57.28
-60.23
-60.12
-56.26
-48.77
-38.55
-27.05
-15.75
-5.76
2.50
9.16
14.64
19.33
23.43
26.89
29.55
31.28
32.02
31.91
31.15
30.05
28.94
28.12
27.78
27.96
28.62
29.60
30.70
31.69
32.31
32.35
31.70
30.40
28.63
26.66
24.68
22.74
20.76
18.52
15.91
12.94
9.75
6.53
3.46
0.58
-2.10
-4.68
-7.17
-9.59
-11.95
-14.25
-16.58
-19.08
-21.93
-25.34
-29.51
-34.49
-40.12
-45.96
-51.30
-55.19
-56.67
-55.06
-50.15
-42.36
-32.60
-22.03
-11.78
-2.63
5.01
11.09
15.74
19.11
21.31
22.40
22.49
21.77
20.56
19.21
18.12
17.52
17.51
18.00
18.85
19.85
20.93
22.04
23.15
24.21
25.02
25.32
24.84
23.43
21.11
18.11
14.83
11.69
9.00
6.86
5.15
3.57
1.75
-0.60
-3.58
-7.07
-10.84
-14.52
-17.86
-20.71
-23.12
-25.36
-27.78
-30.79
-34.64
-39.30
-44.34
-48.98
-52.18
-52.94
-50.61
-45.12
-36.96
-27.08
-16.61
-6.57
2.30
9.62
15.33
19.63
22.76
24.95
26.34
27.00
27.03
26.60
25.95
25.33
24.91
24.75
24.80
25.00
25.32
25.76
26.31
26.87
27.28
27.35
26.99
26.19
25.03
23.58
21.84
19.75
17.26
14.38
11.23
8.01
4.93
2.07
-0.60
-3.24
-6.02
-8.99
-12.07
-15.04
-17.71
-19.99
-22.03
-24.11
-26.57
-29.70
-33.63
-38.37
-43.71
-49.17
-53.94
-56.99
-57.32
-54.31
-47.98
-39.04
-28.62
-17.96
-7.97
0.82
8.26
14.36
19.21
22.87
25.44
27.08
27.98
28.31
28.26
27.99
27.66
27.39
27.26
27.29
27.44
27.69
28.00
28.34
28.64
28.78
28.66
28.21
27.40
26.26
24.84
23.13
21.10
18.71
15.98
12.97
9.83
6.71
3.82
1.35
-0.56
-1.96
-3.11
-4.39
-6.20
-8.68
-11.76
-15.07
-18.21
-20.86
-22.93
-24.58
-26.16
-28.09
-30.81
-34.59
-39.40
-44.77
-49.80
-53.31
-54.18
-51.73
-45.92
-37.44
-27.49
-17.39
-8.23
-0.62
5.35
9.93
13.48
16.24
18.27
19.47
19.77
19.26
18.19
16.94
15.86
15.17
14.91
15.04
15.42
15.98
16.65
17.40
18.21
19.01
19.67
20.01
19.84
19.01
17.51
15.45
13.01
10.43
7.86
5.40
3.13
1.07
-0.75
-2.42
-4.13
-6.10
-8.50
-11.29
-14.25
-17.07
-19.49
-21.50
-23.33
-25.36
-28.02
-31.56
-35.98
-40.88
-45.52
-48.92
-50.07
-48.26
-43.29
-35.57
-26.02
-15.83
-6.08
2.43
9.33
14.68
18.71
21.69
23.77
24.95
25.21
24.65
23.54
22.36
21.56
21.40
21.84
22.61
23.40
23.98
24.38
24.69
24.99
25.21
25.15
24.59
23.45
21.81
19.86
17.84
15.82
13.80
11.70
9.43
6.96
4.33
1.61
-1.13
-3.78
-6.31
-8.74
-11.10
-13.46
-15.87
-18.33
-20.80
-23.22
-25.53
-27.77
-30.09
-32.81
-36.19
-40.37
-45.08
-49.61
-52.89
-53.81
-51.61
-46.19
-38.10
-28.41
-18.29
-8.73
-0.33
6.65
12.22
16.52
19.73
21.98
23.39
24.06
24.09
23.64
22.93
22.24
21.73
21.54
21.63
21.93
22.39
23.01
23.80
24.71
25.58
26.14
26.13
25.38
23.87
21.79
19.38
16.89
14.49
12.20
9.93
7.57
5.07
2.50
0.06
-2.05
-3.71
-5.01
-6.20
-7.61
-9.48
-11.89
-14.69
-17.62
-20.42
-22.90
-25.00
-26.87
-28.80
-31.16
-34.34
-38.41
-43.02
-47.34
-50.21
-50.53
-47.63
-41.56
-33.06
-23.32
-13.59
-4.82
2.51
8.31
12.76
16.06
18.40
19.87
20.50
20.40
19.75
18.77
17.74
16.89
16.37
16.26
16.55
17.20
18.10
19.15
20.22
21.22
22.04
22.55
22.62
22.18
21.15
19.58
17.58
15.30
12.89
10.47
8.10
5.79
3.55
1.33
-0.91
-3.25
-5.70
-8.26
-10.83
-13.31
-15.59
-17.59
-19.37
-21.00
-22.67
-24.63
-27.17
-30.56
-34.91
-40.00
-45.24
-49.70
-52.34
-52.31
-49.21
-43.23
-35.06
-25.65
-15.98
-6.87
1.17
7.88
13.20
17.21
20.03
21.79
22.66
22.85
22.59
22.18
21.84
21.70
21.81
22.12
22.61
23.30
24.23
25.34
26.49
27.42
27.94
27.96
27.53
26.80
25.86
24.75
23.34
21.54
19.31
16.76
14.04
11.38
8.89
6.60
4.42
2.15
-0.32
-3.07
-6.01
-8.97
-11.76
-14.26
-16.47
-18.47
-20.36
-22.24
-24.27
-26.67
-29.74
-33.74
-38.65
-44.02
-48.91
-52.18
-52.76
-50.08
-44.26
-36.05
-26.56
-16.95
-8.08
-0.39
6.10
11.58
16.26
20.24
23.41
25.55
26.51
26.30
25.21
23.73
22.41
21.65
21.61
22.17
23.08
24.13
25.21
26.35
27.54
28.69
29.54
29.83
29.33
28.06
26.25
24.21
22.19
20.28
18.38
16.35
14.07
11.56
8.99
6.57
4.48
2.79
1.41
0.08
-1.49
-3.61
-6.35
-9.61
-13.09
-16.42
-19.33
-21.73
-23.77
-25.78
-28.09
-31.02
-34.71
-39.06
-43.71
-47.98
-51.02
-51.93
-50.13
-45.48
-38.41
-29.77
-20.56
-11.65
-3.61
3.40
9.47
14.78
19.43
23.37
26.36
28.20
28.82
28.40
27.38
26.26
25.45
25.11
25.17
25.44
25.80
26.22
26.76
27.40
28.03
28.42
28.33
27.62
26.33
24.57
22.50
20.24
17.83
15.27
12.60
9.87
7.18
4.67
2.44
0.54
-1.10
-2.66
-4.36
-6.36
-8.76
-11.43
-14.18
-16.78
-19.13
-21.24
-23.22
-25.26
-27.56
-30.32
-33.62
-37.41
-41.34
-44.74
-46.73
-46.46
-43.41
-37.65
-29.83
-20.97
-12.15
-4.15
2.63
8.16
12.52
15.81
18.07
19.34
19.71
19.45
18.90
18.38
18.07
18.00
18.03
18.07
18.08
18.16
18.46
19.08
20.01
21.09
22.09
22.78
23.01
22.72
21.90
20.55
18.63
16.18
13.30
10.21
7.23
4.59
2.42
0.66
-0.90
-2.51
-4.37
-6.53
-8.97
-11.51
-13.97
-16.16
-18.01
-19.53
-20.91
-22.49
-24.64
-27.70
-31.71
-36.37
-40.99
-44.61
-46.26
-45.27
-41.43
-35.08
-26.99
-18.12
-9.39
-1.46
5.31
10.79
15.02
18.08
20.11
21.28
21.85
22.09
22.21
22.29
22.33
22.26
22.06
21.83
21.72
21.91
22.47
23.35
24.39
25.35
26.02
26.19
25.73
24.58
22.89
20.87
18.85
17.05
15.54
14.22
12.84
11.20
9.24
7.02
4.65
2.28
-0.06
-2.36
-4.67
-6.98
-9.30
-11.64
-13.94
-16.18
-18.35
-20.47
-22.63
-25.07
-28.03
-31.71
-36.08
-40.87
-45.53
-49.30
-51.36
-51.06
-48.09
-42.62
-35.24
-26.87
-18.41
-10.52
-3.50
2.59
7.79
12.07
15.32
17.47
18.60
18.98
18.94
18.74
18.42
17.97
17.37
16.80
16.56
16.98
18.17
20.00
22.07
23.93
25.18
25.64
25.30
24.33
22.91
21.30
19.66
18.13
16.73
15.34
13.82
12.01
9.89
7.55
5.20
3.05
1.20
-0.40
-1.94
-3.63
-5.61
-7.82
-10.11
-12.28
-14.23
-16.04
-17.95
-20.27
-23.28
-27.04
-31.43
-36.06
-40.34
-43.59
-45.15
-44.54
-41.56
-36.40
-29.54
-21.70
-13.65
-6.13
0.35
5.48
9.24
11.73
13.21
13.89
13.96
13.61
12.99
12.33
11.84
11.70
11.93
12.47
13.13
13.77
14.28
14.67
14.90
14.92
14.64
14.01
13.09
12.02
10.98
10.07
9.24
8.31
7.08
5.44
3.39
1.07
-1.30
-3.52
-5.45
-7.08
-8.49
-9.88
-11.47
-13.40
-15.66
-18.06
-20.34
-22.33
-24.08
-25.90
-28.26
-31.53
-35.85
-40.93
-46.05
-50.23
-52.48
-52.05
-48.67
-42.61
-34.62
-25.67
-16.65
-8.21
-0.70
5.81
11.27
15.67
18.96
21.12
22.25
22.57
22.42
22.14
22.01
22.17
22.66
23.41
24.36
25.39
26.44
27.46
28.40
29.19
29.73
29.90
29.62
28.84
27.60
26.01
24.21
22.36
20.55
18.76
16.96
15.06
12.98
10.73
8.31
5.79
3.25
0.74
-1.74
-4.18
-6.62
-9.09
-11.55
-13.96
-16.21
-18.24
-20.12
-22.06
-24.43
-27.61
-31.82
-36.92
-42.41
-47.39
-50.93
-52.16
-50.63
-46.29
-39.58
-31.21
-22.03
-12.88
-4.43
2.94
9.04
13.94
17.77
20.69
22.77
24.00
24.34
23.87
22.84
21.60
20.59
20.13
20.37
21.27
22.68
24.37
26.15
27.76
28.94
29.45
29.07
27.78
25.74
23.29
20.81
18.63
16.84
15.33
13.85
12.12
9.96
7.42
4.68
1.97
-0.49
-2.67
-4.72
-6.82
-9.13
-11.68
-14.39
-17.10
-19.74
-22.27
-24.75
-27.32
-30.10
-33.23
-36.74
-40.52
-44.14
-46.96
-48.19
-47.24
-43.87
-38.28
-31.04
-22.86
-14.42
-6.25
1.23
7.78
13.23
17.57
20.81
23.01
24.20
24.46
23.95
23.00
22.02
21.39
21.34
21.86
22.76
23.81
24.86
25.80
26.59
27.18
27.46
27.34
26.81
25.91
24.71
23.23
21.45
19.32
16.84
14.03
10.97
7.77
4.53
1.36
-1.62
-4.29
-6.63
-8.71
-10.66
-12.66
-14.78
-17.01
-19.31
-21.66
-24.15
-27.05
-30.64
-35.10
-40.37
-45.99
-51.18
-54.96
-56.43
-55.04
-50.77
-44.07
-35.71
-26.53
-17.26
-8.41
-0.34
6.71
12.57
17.18
20.59
22.88
24.20
24.70
24.56
24.02
23.41
23.07
23.27
24.07
25.40
27.01
28.65
30.06
31.06
31.55
31.49
30.90
29.89
28.55
27.01
25.35
23.67
22.03
20.43
18.74
16.80
14.47
11.78
8.94
6.28
4.02
2.20
0.62
-1.04
-3.04
-5.43
-8.16
-11.06
-14.00
-16.84
-19.53
-21.99
-24.29
-26.67
-29.51
-33.18
-37.71
-42.74
-47.46
-50.84
-51.93
-50.14
-45.42
-38.11
-28.95
-18.83
-8.68
0.72
8.86
15.52
20.70
24.57
27.30
29.01
29.82
29.90
29.54
29.10
28.93
29.20
29.89
30.81
31.69
32.36
32.78
33.00
33.09
33.03
32.68
31.87
30.41
28.32
25.71
22.79
19.72
16.57
13.30
9.89
6.42
3.08
0.05
-2.58
-4.97
-7.42
-10.23
-13.54
-17.23
-21.02
-24.57
-27.66
-30.24
-32.40
-34.35
-36.35
-38.69
-41.64
-45.28
-49.36
-53.22
-55.91
-56.41
-54.06
-48.72
-40.90
-31.53
-21.73
-12.47
-4.38
2.25
7.50
11.55
14.64
16.84
18.19
18.71
18.54
17.99
17.44
17.28
17.69
18.64
19.92
21.29
22.55
23.64
24.55
25.33
25.98
26.45
26.64
26.39
25.58
24.13
22.08
19.56
16.81
14.04
11.42
8.96
6.60
4.22
1.73
-0.88
-3.54
-6.14
-8.61
-10.95
-13.25
-15.62
-18.15
-20.94
-24.09
-27.69
-31.77
-36.18
-40.43
-43.74
-45.23
-44.20
-40.40
-34.17
-26.25
-17.53
-8.79
-0.58
6.81
13.21
18.51
22.66
25.63
27.44
28.16
27.91
26.90
25.48
24.10
23.24
23.23
24.15
25.76
27.66
29.40
30.68
31.38
31.52
31.17
30.41
29.31
27.92
26.35
24.70
23.02
21.25
19.23
16.76
13.75
10.30
6.73
3.39
0.53
-1.87
-4.09
-6.46
-9.18
-12.17
-15.17
-17.92
-20.33
-22.57
-24.93
-27.69
-30.98
-34.78
-38.97
-43.33
-47.49
-50.81
-52.51
-51.87
-48.51
-42.55
-34.65
-25.75
-16.78
-8.38
-0.85
5.81
11.65
16.70
20.89
24.03
25.97
26.68
26.31
25.20
23.81
22.57
21.77
21.50
21.73
22.35
23.29
24.38
25.42
26.16
26.40
26.05
25.22
24.12
22.94
21.77
20.51
18.99
17.09
14.78
12.17
9.50
6.92
4.55
2.38
0.33
-1.70
-3.78
-5.91
-8.04
-10.08
-12.02
-13.91
-15.93
-18.26
-21.01
-24.18
-27.68
-31.37
-35.06
-38.55
-41.50
-43.45
-43.88
-42.28
-38.42
-32.42
-24.83
-16.49
-8.27
-0.89
5.30
10.28
14.23
17.31
19.54
20.80
21.02
20.30
18.98
17.60
16.65
16.39
16.78
17.58
18.50
19.31
19.88
20.16
20.15
19.89
19.45
18.91
18.31
17.62
16.74
15.59
14.12
12.40
10.45
8.27
5.75
2.81
-0.54
-4.13
-7.67
-10.87
-13.57
-15.84
-17.87
-19.93
-22.29
-25.14
-28.63
-32.78
-37.61
-42.99
-48.68
-54.20
-58.91
-62.04
-62.91
-61.20
-57.13
-51.44
-45.18
-39.29
-34.33
-30.33
-27.05
-24.18
-21.65
-19.57
-18.21
-17.67
-17.76
-18.07
-17.95
-16.78
-14.05
-9.47
-2.98
5.24
14.75
25.03
35.39
45.23
53.92
60.98
66.08
69.13
70.23
69.70
67.94
65.28
61.99
58.22
54.07
49.66
45.11
40.56
36.09
31.70
27.38
23.08
18.83
14.68
10.70
6.92
3.35
-0.07
-3.47
-6.98
-10.79
-15.05
-19.84
-25.14
-30.70
-36.08
-40.68
-43.79
-44.78
-43.26
-39.26
-33.23
-26.00
-18.44
-11.30
-4.97
0.48
5.16
9.23
12.75
15.69
17.99
19.60
20.53
20.84
20.68
20.29
19.93
19.83
20.15
20.86
21.81
22.78
23.64
24.27
24.58
24.45
23.77
22.49
20.75
18.83
17.07
15.68
14.65
13.70
12.53
10.90
8.83
6.51
4.22
2.13
0.28
-1.45
-3.21
-5.09
-7.11
-9.21
-11.34
-13.44
-15.49
-17.47
-19.37
-21.26
-23.33
-25.87
-29.17
-33.36
-38.16
-42.85
-46.46
-47.99
-46.84
-42.95
-36.81
-29.30
-21.33
-13.61
-6.57
-0.40
4.87
9.25
12.70
15.17
16.62
17.13
16.88
16.16
15.36
14.82
14.75
15.19
16.00
16.95
17.87
18.67
19.37
19.98
20.50
20.81
20.77
20.24
19.17
17.63
15.74
13.64
11.48
9.34
7.28
5.30
3.36
1.35
-0.84
-3.24
-5.80
-8.34
-10.66
-12.66
-14.37
-15.93
-17.58
-19.55
-22.02
-25.13
-28.86
-33.09
-37.47
-41.42
-44.20
-45.05
-43.46
-39.35
-33.12
-25.59
-17.69
-10.26
-3.79
1.56
5.90
9.44
12.30
14.53
16.09
16.99
17.35
17.37
17.26
17.20
17.28
17.53
17.95
18.55
19.35
20.33
21.39
22.34
22.98
23.09
22.59
21.54
20.11
18.53
17.02
15.67
14.44
13.17
11.65
9.72
7.35
4.65
1.81
-0.93
-3.41
-5.58
-7.56
-9.52
-11.65
-14.00
-16.52
-19.02
-21.36
-23.53
-25.68
-28.13
-31.22
-35.13
-39.73
-44.55
-48.86
-51.80
-52.62
-50.91
-46.64
-40.22
-32.35
-23.81
-15.31
-7.37
-0.26
5.88
11.03
15.11
18.10
19.99
20.87
20.96
20.55
20.02
19.63
19.60
19.92
20.49
21.20
21.99
22.86
23.84
24.88
25.83
26.49
26.64
26.23
25.33
24.14
22.81
21.45
20.02
18.39
16.45
14.13
11.46
8.63
5.83
3.32
1.26
-0.34
-1.65
-2.96
-4.63
-6.87
-9.74
-13.12
-16.79
-20.50
-24.04
-27.33
-30.37
-33.30
-36.40
-39.98
-44.25
-49.13
-54.10
-58.26
-60.52
-60.01
-56.39
-49.94
-41.52
-32.23
-23.08
-14.79
-7.69
-1.82
2.91
6.64
9.46
11.46
12.72
13.38
13.63
13.65
13.60
13.58
13.63
13.78
14.02
14.43
15.12
16.16
17.53
19.04
20.41
21.27
21.36
20.62
19.16
17.22
15.08
12.92
10.84
8.83
6.81
4.76
2.71
0.72
-1.14
-2.82
-4.30
-5.66
-6.97
-8.33
-9.74
-11.14
-12.45
-13.56
-14.49
-15.32
-16.28
-17.64
-19.70
-22.64
-26.49
-30.98
-35.56
-39.42
-41.63
-41.41
-38.30
-32.36
-24.18
-14.72
-5.02
3.98
11.67
17.81
22.46
25.88
28.31
29.99
31.01
31.40
31.13
30.34
29.21
28.10
27.32
27.12
27.52
28.40
29.45
30.44
31.22
31.76
32.07
32.16
31.99
31.45
30.49
29.07
27.29
25.27
23.16
21.06
19.01
16.92
14.68
12.22
9.56
6.87
4.36
2.19
0.36
-1.28
-3.01
-5.02
-7.38
-9.95
-12.47
-14.74
-16.71
-18.50
-20.45
-22.92
-26.27
-30.67
-36.05
-42.01
-47.78
-52.34
-54.64
-53.90
-49.89
-43.01
-34.15
-24.46
-14.97
-6.39
0.95
7.00
11.88
15.74
18.74
20.97
22.52
23.42
23.68
23.38
22.70
21.93
21.45
21.51
22.17
23.31
24.69
26.05
27.26
28.25
28.96
29.30
29.10
28.25
26.77
24.79
22.53
20.22
17.93
15.66
13.34
10.93
8.48
6.08
3.83
1.76
-0.21
-2.17
-4.26
-6.57
-9.11
-11.86
-14.77
-17.73
-20.70
-23.63
-26.64
-29.91
-33.69
-38.08
-42.89
-47.55
-51.13
-52.64
-51.36
-47.08
-40.21
-31.62
-22.30
-13.12
-4.64
2.87
9.40
14.98
19.64
23.39
26.20
28.04
28.92
28.90
28.13
26.90
25.57
24.54
24.13
24.50
25.58
27.12
28.76
30.24
31.33
31.91
32.01
31.60
30.71
29.40
27.75
25.93
24.07
22.27
20.49
18.57
16.27
13.45
10.11
6.50
3.03
0.07
-2.15
-3.73
-5.00
-6.45
-8.47
-11.22
-14.58
-18.22
-21.77
-24.98
-27.81
-30.41
-33.14
-36.38
-40.48
-45.51
-51.21
-56.87
-61.42
-63.70
-62.82
-58.40
-50.74
-40.73
-29.55
-18.34
-7.98
1.05
8.59
14.74
19.63
23.39
26.12
27.92
28.96
29.43
29.62
29.74
29.95
30.29
30.70
31.12
31.53
31.99
32.60
33.42
34.32
35.10
35.44
35.07
33.94
32.17
30.04
27.83
25.69
23.60
21.41
18.95
16.14
13.04
9.85
6.78
4.03
1.66
-0.43
-2.43
-4.62
-7.26
-10.45
-14.10
-17.92
-21.48
-24.43
-26.67
-28.42
-30.21
-32.67
-36.27
-41.13
-46.85
-52.57
-57.18
-59.60
-58.96
-54.97
-47.85
-38.40
-27.72
-17.02
-7.28
0.86
7.15
11.74
14.96
17.20
18.79
19.88
20.49
20.58
20.15
19.35
18.46
17.84
17.74
18.27
19.28
20.50
21.65
22.57
23.20
23.55
23.64
23.38
22.70
21.49
19.74
17.55
15.08
12.55
10.14
7.93
5.88
3.89
1.77
-0.63
-3.34
-6.33
-9.46
-12.59
-15.58
-18.34
-20.81
-23.00
-25.09
-27.35
-30.19
-33.94
-38.69
-44.11
-49.41
-53.51
-55.33
-54.16
-49.79
-42.66
-33.62
-23.75
-14.00
-5.09
2.68
9.24
14.70
19.15
22.61
25.03
26.46
27.02
26.97
26.62
26.23
25.94
25.82
25.84
25.97
26.22
26.57
26.99
27.39
27.66
27.71
27.48
26.90
25.92
24.48
22.54
20.09
17.22
14.13
11.02
8.12
5.53
3.22
1.03
-1.22
-3.64
-6.28
-9.08
-11.96
-14.87
-17.78
-20.70
-23.67
-26.79
-30.22
-34.13
-38.62
-43.55
-48.40
-52.33
-54.33
-53.57
-49.69
-42.88
-33.88
-23.72
-13.42
-3.76
4.84
12.20
18.35
23.30
27.07
29.66
31.15
31.69
31.58
31.13
30.61
30.16
29.81
29.51
29.24
29.04
29.03
29.30
29.86
30.54
31.11
31.26
30.77
29.52
27.57
25.08
22.27
19.34
16.38
13.45
10.58
7.87
5.43
3.37
1.71
0.27
-1.25
-3.11
-5.50
-8.34
-11.39
-14.32
-16.90
-19.11
-21.12
-23.27
-25.93
-29.39
-33.72
-38.65
-43.59
-47.64
-49.83
-49.40
-46.03
-39.96
-31.87
-22.70
-13.40
-4.70
2.92
9.26
14.26
17.98
20.49
21.86
22.25
21.85
20.96
19.94
19.11
18.70
18.76
19.19
19.77
20.32
20.72
20.99
21.22
21.55
22.06
22.71
23.32
23.67
23.54
22.89
21.84
20.60
19.39
18.28
17.15
15.74
13.83
11.30
8.21
4.80
1.33
-1.97
-4.96
-7.68
-10.33
-13.23
-16.80
-21.25
-26.55
-32.28
-37.68
-41.93
-44.27
-44.29
-41.96
-37.61
-31.76
-25.04
-18.01
-11.13
-4.66
1.25
6.57
11.28
15.30
18.51
20.82
22.23
22.91
23.21
23.52
24.19
25.39
27.14
29.26
31.53
33.68
35.50
36.81
37.51
37.53
36.81
35.28
32.85
29.43
25.03
19.80
14.00
8.03
2.23
-3.13
-8.03
-12.54
-16.87
-21.17
-25.45
-29.63
-33.52
-36.97
-39.95
-42.52
-44.83
-47.08
-49.46
-52.15
-55.33
-59.01
-63.02
-66.84
-69.60
-70.40
-68.51
-63.71
-56.34
-47.20
-37.26
-27.43
-18.34
-10.33
-3.49
2.29
7.16
11.24
14.57
17.09
18.72
19.48
19.51
19.11
18.62
18.29
18.23
18.46
18.97
19.73
20.69
21.71
22.52
22.85
22.48
21.36
19.64
17.54
15.22
12.75
10.12
7.27
4.24
1.20
-1.70
-4.27
-6.50
-8.46
-10.31
-12.21
-14.26
-16.40
-18.53
-20.47
-22.12
-23.41
-24.42
-25.25
-26.13
-27.32
-29.06
-31.47
-34.44
-37.59
-40.23
-41.54
-40.79
-37.54
-31.82
-24.11
-15.24
-6.13
2.44
9.94
16.13
21.03
24.75
27.43
29.17
30.01
30.01
29.34
28.25
27.05
26.06
25.47
25.34
25.57
26.03
26.58
27.13
27.68
28.22
28.70
28.94
28.72
27.81
26.13
23.73
20.87
17.85
14.94
12.25
9.73
7.21
4.50
1.53
-1.66
-4.90
-7.98
-10.77
-13.21
-15.40
-17.51
-19.83
-22.64
-26.19
-30.53
-35.49
-40.51
-44.80
-47.46
-47.77
-45.31
-40.21
-33.02
-24.61
-15.94
-7.78
-0.61
5.40
10.32
14.35
17.62
20.21
22.09
23.26
23.76
23.79
23.59
23.47
23.62
24.12
24.90
25.87
26.89
27.90
28.79
29.46
29.75
29.49
28.59
27.10
25.26
23.32
21.44
19.60
17.66
15.43
12.91
10.26
7.69
5.33
3.09
0.71
-2.09
-5.35
-8.87
-12.26
-15.18
-17.55
-19.56
-21.63
-24.15
-27.34
-31.23
-35.65
-40.35
-45.02
-49.18
-52.18
-53.25
-51.72
-47.32
-40.30
-31.46
-21.88
-12.55
-4.13
3.15
9.35
14.65
19.12
22.73
25.35
26.93
27.54
27.38
26.72
25.87
25.04
24.37
23.93
23.73
23.84
24.30
25.12
26.20
27.33
28.16
28.37
27.75
26.30
24.25
21.92
19.60
17.44
15.38
13.25
10.89
8.22
5.32
2.42
-0.27
-2.56
-4.47
-6.13
-7.72
-9.41
-11.31
-13.41
-15.65
-17.98
-20.38
-22.87
-25.53
-28.48
-31.88
-35.86
-40.42
-45.28
-49.81
-53.08
-54.12
-52.20
-47.19
-39.60
-30.48
-21.03
-12.22
-4.61
1.72
6.95
11.28
14.78
17.37
18.98
19.67
19.66
19.30
18.95
18.80
18.90
19.15
19.44
19.77
20.20
20.84
21.71
22.70
23.62
24.22
24.35
23.93
22.98
21.56
19.74
17.59
15.24
12.86
10.57
8.41
6.32
4.11
1.61
-1.26
-4.46
-7.81
-11.10
-14.15
-16.89
-19.30
-21.48
-23.61
-26.01
-29.01
-32.85
-37.52
-42.63
-47.47
-51.06
-52.46
-51.07
-46.77
-39.95
-31.43
-22.16
-13.06
-4.78
2.32
8.15
12.80
16.41
19.12
21.04
22.23
22.75
22.70
22.20
21.46
20.74
20.28
20.25
20.69
21.51
22.57
23.69
24.72
25.56
26.08
26.22
25.88
25.01
23.61
21.74
19.54
17.15
14.68
12.16
9.56
6.86
4.07
1.27
-1.41
-3.92
-6.27
-8.55
-10.94
-13.53
-16.30
-19.13
-21.85
-24.40
-26.91
-29.69
-33.06
-37.24
-42.12
-47.22
-51.73
-54.69
-55.26
-52.92
-47.65
-39.95
-30.69
-20.90
-11.46
-3.01
4.18
10.13
14.98
18.87
21.85
23.93
25.13
25.59
25.51
25.16
24.80
24.62
24.68
24.98
25.47
26.10
26.83
27.61
28.40
29.13
29.69
29.96
29.83
29.19
28.02
26.34
24.23
21.82
19.23
16.58
14.00
11.61
9.43
7.39
5.36
3.14
0.61
-2.19
-5.12
-7.99
-10.64
-13.06
-15.31
-17.51
-19.79
-22.32
-25.29
-28.92
-33.32
-38.32
-43.38
-47.60
-49.95
-49.56
-46.03
-39.57
-30.95
-21.28
-11.70
-3.10
4.07
9.71
13.98
17.06
19.13
20.25
20.50
20.02
19.02
17.77
16.54
15.53
14.93
14.83
15.27
16.15
17.32
18.55
19.63
20.47
21.04
21.34
21.33
20.91
19.98
18.56
16.73
14.67
12.48
10.18
7.71
5.02
2.13
-0.85
-3.78
-6.54
-9.07
-11.36
-13.44
-15.34
-17.20
-19.21
-21.67
-24.86
-28.93
-33.81
-39.10
-44.15
-48.11
-50.08
-49.37
-45.68
-39.21
-30.65
-20.99
-11.23
-2.21
5.60
11.99
17.00
20.70
23.20
24.61
25.09
24.85
24.15
23.25
22.36
21.67
21.31
21.38
21.94
22.95
24.28
25.67
26.85
27.57
27.73
27.30
26.38
25.04
23.36
21.41
19.24
16.96
14.67
12.48
10.43
8.44
6.39
4.11
1.48
-1.54
-4.87
-8.34
-11.73
-14.86
-17.62
-20.05
-22.33
-24.79
-27.79
-31.65
-36.43
-41.83
-47.16
-51.43
-53.60
-52.94
-49.22
-42.81
-34.51
-25.27
-15.96
-7.16
0.79
7.71
13.53
18.20
21.78
24.37
26.15
27.29
27.88
28.00
27.69
27.09
26.38
25.82
25.54
25.59
25.89
26.32
26.82
27.34
27.85
28.25
28.37
27.99
26.96
25.27
23.02
20.45
17.77
15.13
12.56
10.05
7.54
5.01
2.49
-0.01
-2.46
-4.92
-7.46
-10.10
-12.76
-15.27
-17.46
-19.30
-21.01
-23.04
-25.90
-29.99
-35.26
-41.17
-46.70
-50.63
-51.90
-49.92
-44.76
-37.15
-28.15
-18.89
-10.21
-2.58
3.91
9.33
13.79
17.34
19.89
21.41
21.89
21.47
20.47
19.26
18.26
17.76
17.87
18.53
19.54
20.67
21.77
22.77
23.64
24.32
24.72
24.67
24.04
22.78
20.94
18.69
16.24
13.80
11.50
9.40
7.44
5.49
3.40
1.04
-1.63
-4.54
-7.60
-10.66
-13.58
-16.27
-18.76
-21.17
-23.76
-26.83
-30.59
-35.01
-39.71
-44.00
-47.05
-48.04
-46.41
-42.09
-35.40
-27.04
-17.92
-8.90
-0.63
6.50
12.39
17.04
20.51
22.81
23.99
24.20
23.75
23.05
22.49
22.29
22.51
22.98
23.54
24.02
24.38
24.66
24.92
25.19
25.49
25.75
25.86
25.68
25.08
23.96
22.35
20.34
18.04
15.55
12.91
10.14
7.31
4.53
1.92
-0.40
-2.45
-4.36
-6.30
-8.40
-10.73
-13.22
-15.78
-18.32
-20.81
-23.26
-25.78
-28.54
-31.75
-35.59
-40.10
-45.05
-49.81
-53.47
-54.99
-53.58
-48.93
-41.43
-32.00
-21.84
-12.06
-3.41
3.88
9.93
15.04
19.41
23.01
25.68
27.23
27.65
27.17
26.15
25.01
24.05
23.39
23.05
23.00
23.24
23.79
24.60
25.57
26.46
27.04
27.12
26.65
25.70
24.41
22.85
21.01
18.86
16.38
13.59
10.68
7.86
5.35
3.26
1.55
0.07
-1.42
-3.15
-5.26
-7.79
-10.64
-13.61
-16.42
-18.87
-20.84
-22.42
-23.87
-25.57
-27.93
-31.29
-35.77
-41.04
-46.33
-50.46
-52.22
-50.73
-45.80
-38.02
-28.54
-18.68
-9.48
-1.59
4.83
9.84
13.64
16.38
18.25
19.38
19.93
20.03
19.71
19.00
17.97
16.75
15.57
14.66
14.19
14.25
14.84
15.90
17.24
18.65
19.83
20.49
20.44
19.58
17.98
15.87
13.49
11.09
8.84
6.79
4.89
3.11
1.35
-0.43
-2.27
-4.23
-6.37
-8.69
-11.15
-13.65
-16.05
-18.28
-20.35
-22.39
-24.62
-27.28
-30.53
-34.37
-38.56
-42.53
-45.44
-46.35
-44.58
-39.86
-32.62
-23.76
-14.40
-5.52
2.27
8.79
14.05
18.12
21.00
22.68
23.27
23.02
22.32
21.54
20.91
20.47
20.17
19.96
19.88
20.04
20.56
21.45
22.57
23.67
24.46
24.70
24.28
23.21
21.61
19.64
17.46
15.16
12.79
10.34
7.87
5.46
3.19
1.10
-0.89
-2.96
-5.30
-7.96
-10.82
-13.64
-16.14
-18.23
-20.02
-21.81
-23.97
-26.76
-30.28
-34.47
-39.05
-43.56
-47.34
-49.65
-49.72
-47.11
-41.75
-34.14
-25.12
-15.68
-6.70
1.26
7.94
13.34
17.56
20.70
22.92
24.33
25.07
25.30
25.15
24.77
24.28
23.80
23.41
23.12
22.88
22.67
22.50
22.47
22.63
23.00
23.41
23.61
23.38
22.62
21.42
19.90
18.18
16.23
13.99
11.41
8.61
5.80
3.20
0.91
-1.19
-3.30
-5.62
-8.26
-11.16
-14.15
-17.01
-19.57
-21.73
-23.54
-25.19
-26.98
-29.28
-32.38
-36.34
-40.90
-45.40
-48.91
-50.38
-49.03
-44.60
-37.47
-28.55
-19.00
-9.87
-1.83
4.89
10.29
14.54
17.71
19.85
21.00
21.27
20.84
19.97
18.93
17.97
17.32
17.09
17.23
17.58
17.96
18.30
18.63
19.11
19.81
20.65
21.31
21.42
20.74
19.21
16.98
14.35
11.55
8.79
6.20
3.88
1.90
0.24
-1.23
-2.68
-4.33
-6.30
-8.68
-11.39
-14.36
-17.42
-20.47
-23.35
-26.04
-28.62
-31.33
-34.42
-38.05
-42.09
-46.04
-49.13
-50.43
-49.23
-45.22
-38.64
-30.21
-20.93
-11.74
-3.35
3.88
9.83
14.49
17.89
20.05
21.11
21.32
21.03
20.59
20.27
20.19
20.41
20.90
21.65
22.56
23.48
24.27
24.81
25.09
25.16
25.09
24.90
24.57
24.03
23.25
22.26
21.08
19.68
17.97
15.88
13.40
10.68
7.92
5.33
3.00
0.92
-1.04
-3.03
-5.25
-7.84
-10.82
-14.07
-17.33
-20.26
-22.63
-24.40
-25.80
-27.25
-29.22
-32.07
-35.87
-40.34
-44.77
-48.16
-49.44
-47.75
-42.81
-35.02
-25.42
-15.33
-5.94
1.99
8.19
12.71
15.76
17.57
18.35
18.34
17.85
17.23
16.79
16.70
16.96
17.49
18.16
18.82
19.40
19.89
20.36
20.85
21.39
21.92
22.27
22.23
21.63
20.41
18.58
16.26
13.57
10.69
7.75
4.96
2.49
0.47
-1.10
-2.38
-3.66
-5.24
-7.29
-9.80
-12.55
-15.21
-17.49
-19.26
-20.59
-21.77
-23.19
-25.19
-28.00
-31.63
-35.84
-40.12
-43.68
-45.68
-45.29
-42.01
-35.93
-27.66
-18.28
-8.95
-0.60
6.32
11.84
16.26
19.87
22.75
24.85
26.03
26.32
25.92
25.21
24.55
24.15
24.04
24.10
24.23
24.39
24.63
25.04
25.64
26.34
26.95
27.23
27.01
26.16
24.67
22.58
19.97
17.01
13.91
10.88
8.06
5.48
3.03
0.56
-2.07
-4.85
-7.68
-10.42
-12.97
-15.33
-17.59
-19.91
-22.44
-25.32
-28.66
-32.44
-36.48
-40.35
-43.38
-44.84
-44.15
-41.06
-35.80
-28.91
-21.15
-13.23
-5.70
1.09
7.00
11.97
15.96
18.94
20.89
21.82
21.89
21.36
20.57
19.87
19.57
19.80
20.60
21.86
23.48
25.26
26.99
28.44
29.35
29.51
28.87
27.52
25.71
23.72
21.77
19.93
18.15
16.28
14.18
11.82
9.26
6.64
4.12
1.74
-0.56
-2.92
-5.47
-8.28
-11.26
-14.22
-16.98
-19.46
-21.76
-24.11
-26.85
-30.22
-34.31
-38.97
-43.79
-48.11
-51.14
-52.12
-50.51
-46.21
-39.61
-31.50
-22.84
-14.46
-6.87
-0.25
5.52
10.59
15.02
18.68
21.43
23.13
23.85
23.84
23.45
23.01
22.76
22.73
22.90
23.19
23.58
24.10
24.73
25.40
25.92
26.05
25.64
24.66
23.27
21.66
19.95
18.17
16.20
13.93
11.36
8.59
5.82
3.15
0.61
-1.91
-4.55
-7.39
-10.37
-13.31
-16.02
-18.37
-20.40
-22.28
-24.33
-26.86
-30.13
-34.21
-38.93
-43.81
-48.15
-51.10
-51.89
-50.04
-45.48
-38.64
-30.27
-21.26
-12.38
-4.20
3.01
9.10
14.03
17.78
20.32
21.70
22.09
21.72
20.92
20.03
19.37
19.16
19.52
20.43
21.73
23.17
24.53
25.65
26.48
27.05
27.32
27.20
26.49
25.04
22.81
20.00
16.97
14.11
11.65
9.58
7.66
5.50
2.84
-0.37
-3.95
-7.52
-10.75
-13.46
-15.73
-17.87
-20.31
-23.41
-27.39
-32.16
-37.39
-42.58
-47.04
-50.08
-51.04
-49.46
-45.19
-38.52
-30.16
-21.06
-12.19
-4.23
2.52
8.10
12.76
16.70
19.98
22.47
24.06
24.71
24.63
24.18
23.74
23.62
23.91
24.53
25.34
26.19
27.00
27.74
28.36
28.78
28.90
28.59
27.80
26.50
24.71
22.52
20.06
17.49
14.99
12.66
10.47
8.25
5.74
2.74
-0.80
-4.67
-8.57
-12.19
-15.34
-18.03
-20.34
-22.47
-24.64
-27.10
-30.13
-33.94
-38.55
-43.65
-48.51
-52.14
-53.51
-51.93
-47.17
-39.67
-30.30
-20.16
-10.30
-1.45
6.02
12.08
16.93
20.76
23.70
25.78
26.98
27.33
27.00
26.25
25.42
24.74
24.35
24.25
24.43
24.88
25.64
26.72
28.02
29.30
30.19
30.36
29.59
27.89
25.44
22.51
19.36
16.19
13.11
10.15
7.27
4.41
1.46
-1.66
-4.97
-8.42
-11.86
-15.10
-18.00
-20.51
-22.72
-24.88
-27.30
-30.28
-34.00
-38.47
-43.43
-48.42
-52.82
-55.91
-56.99
-55.53
-51.33
-44.55
-35.80
-25.95
-15.95
-6.62
1.53
8.30
13.71
17.85
20.81
22.62
23.33
23.15
22.47
21.77
21.50
21.89
22.87
24.10
25.20
25.91
26.28
26.53
26.93
27.57
28.28
28.67
28.34
27.12
25.03
22.37
19.44
16.53
13.76
11.13
8.58
5.97
3.22
0.22
-3.08
-6.63
-10.31
-13.95
-17.36
-20.48
-23.41
-26.37
-29.74
-33.81
-38.67
-44.00
-49.09
-52.86
-54.23
-52.43
-47.31
-39.39
-29.73
-19.53
-9.80
-1.09
6.43
12.88
18.34
22.78
26.06
28.03
28.76
28.50
27.72
26.86
26.24
25.97
25.97
26.08
26.21
26.37
26.65
27.15
27.84
28.54
29.00
28.96
28.28
26.96
25.10
22.84
20.29
17.55
14.70
11.81
8.86
5.84
2.64
-0.79
-4.40
-8.04
-11.50
-14.58
-17.24
-19.57
-21.78
-24.14
-26.92
-30.40
-34.77
-40.07
-46.00
-51.88
-56.68
-59.28
-58.78
-54.76
-47.47
-37.68
-26.49
-15.03
-4.19
5.42
13.50
19.95
24.83
28.22
30.25
31.10
30.98
30.17
28.97
27.71
26.66
26.03
25.88
26.22
26.95
27.95
29.11
30.25
31.20
31.69
31.50
30.47
28.57
25.95
22.85
19.52
16.17
12.90
9.75
6.69
3.66
0.56
-2.66
-6.04
-9.49
-12.86
-15.90
-18.42
-20.35
-21.85
-23.27
-25.05
-27.60
-31.18
-35.77
-41.10
-46.62
-51.57
-55.03
-56.11
-54.16
-49.01
-41.06
-31.23
-20.63
-10.34
-1.09
6.82
13.33
18.52
22.40
24.95
26.17
26.27
25.60
24.62
23.77
23.33
23.38
23.84
24.55
25.38
26.24
27.09
27.92
28.65
29.16
29.25
28.69
27.33
25.13
22.26
19.05
15.86
12.99
10.50
8.23
5.84
3.01
-0.43
-4.39
-8.55
-12.53
-16.02
-18.87
-21.21
-23.37
-25.79
-28.92
-33.04
-38.13
-43.79
-49.18
-53.23
-54.91
-53.51
-48.86
-41.40
-31.98
-21.63
-11.27
-1.58
7.06
14.43
20.41
24.87
27.75
29.13
29.27
28.57
27.51
26.49
25.71
25.22
24.93
24.74
24.68
24.81
25.23
25.93
26.81
27.63
28.18
28.28
27.85
26.87
25.35
23.31
20.80
17.91
14.81
11.64
8.52
5.42
2.24
-1.13
-4.77
-8.61
-12.50
-16.24
-19.68
-22.77
-25.54
-28.17
-30.91
-34.08
-37.96
-42.65
-47.87
-52.92
-56.75
-58.25
-56.58
-51.46
-43.30
-33.05
-21.87
-10.87
-0.76
8.09
15.61
21.87
26.89
30.67
33.13
34.25
34.15
33.07
31.41
29.57
27.90
26.67
25.98
25.84
26.17
26.85
27.70
28.54
29.17
29.45
29.27
28.56
27.32
25.54
23.27
20.58
17.59
14.48
11.42
8.47
5.61
2.71
-0.35
-3.62
-6.95
-10.15
-13.01
-15.45
-17.57
-19.57
-21.67
-24.05
-26.88
-30.28
-34.41
-39.27
-44.65
-49.97
-54.35
-56.77
-56.35
-52.65
-45.84
-36.61
-26.05
-15.30
-5.30
3.31
10.32
15.77
19.84
22.67
24.38
25.04
24.79
23.83
22.43
20.92
19.61
18.75
18.45
18.74
19.53
20.64
21.88
23.06
24.02
24.63
24.71
24.17
22.95
21.15
18.98
16.74
14.64
12.79
11.07
9.30
7.24
4.72
1.68
-1.84
-5.71
-9.74
-13.70
-17.36
-20.58
-23.39
-25.98
-28.70
-31.93
-35.91
-40.63
-45.72
-50.48
-53.95
-55.20
-53.52
-48.70
-41.10
-31.54
-21.09
-10.76
-1.31
6.83
13.51
18.73
22.57
25.10
26.45
26.80
26.36
25.45
24.32
23.24
22.38
21.84
21.64
21.75
22.12
22.74
23.56
24.51
25.44
26.08
26.13
25.34
23.60
21.03
17.89
14.57
11.35
8.42
5.75
3.15
0.40
-2.70
-6.19
-9.96
-13.74
-17.32
-20.53
-23.41
-26.08
-28.71
-31.41
-34.26
-37.37
-40.83
-44.72
-48.90
-52.90
-55.82
-56.59
-54.30
-48.61
-39.88
-29.17
-17.76
-6.89
2.67
10.62
17.02
22.08
26.01
28.87
30.65
31.37
31.13
30.18
28.84
27.45
26.28
25.46
25.04
25.00
25.32
25.99
26.97
28.16
29.31
30.12
30.26
29.53
27.95
25.69
23.05
20.32
17.69
15.21
12.82
10.39
7.83
5.15
2.39
-0.35
-2.99
-5.52
-7.96
-10.37
-12.80
-15.29
-17.87
-20.60
-23.58
-26.97
-30.92
-35.53
-40.72
-46.16
-51.25
-55.15
-57.04
-56.22
-52.47
-45.98
-37.44
-27.79
-17.97
-8.78
-0.67
6.19
11.83
16.30
19.64
21.84
22.91
23.00
22.41
21.55
20.78
20.37
20.39
20.82
21.57
22.51
23.53
24.44
25.03
25.15
24.72
23.81
22.59
21.23
19.78
18.22
16.45
14.37
11.97
9.31
6.51
3.69
0.98
-1.57
-3.95
-6.20
-8.46
-10.84
-13.43
-16.19
-19.00
-21.73
-24.26
-26.58
-28.76
-31.01
-33.60
-36.84
-40.89
-45.54
-50.15
-53.62
-54.72
-52.50
-46.68
-37.74
-26.84
-15.32
-4.37
5.25
13.23
19.57
24.35
27.71
29.74
30.57
30.38
29.45
28.17
26.99
26.30
26.30
26.91
27.86
28.78
29.45
29.85
30.13
30.45
30.78
30.88
30.43
29.13
26.94
24.01
20.64
17.10
13.61
10.29
7.15
4.19
1.36
-1.38
-4.06
-6.66
-9.19
-11.59
-13.89
-16.13
-18.41
-20.83
-23.54
-26.69
-30.40
-34.75
-39.67
-44.93
-50.04
-54.28
-56.79
-56.78
-53.74
-47.68
-39.14
-29.09
-18.64
-8.76
-0.09
7.12
12.91
17.43
20.82
23.18
24.58
25.12
24.97
24.39
23.66
23.05
22.73
22.75
23.09
23.66
24.37
25.16
25.98
26.72
27.22
27.30
26.81
25.69
24.07
22.12
20.05
17.97
15.89
13.69
11.24
8.44
5.33
2.05
-1.19
-4.17
-6.76
-9.00
-11.08
-13.24
-15.64
-18.30
-21.07
-23.77
-26.25
-28.55
-30.88
-33.58
-37.01
-41.39
-46.69
-52.52
-58.06
-62.25
-63.89
-62.13
-56.65
-47.89
-36.89
-25.00
-13.43
-2.99
6.00
13.58
19.88
24.97
28.84
31.41
32.70
32.93
32.44
31.62
30.80
30.14
29.69
29.45
29.42
29.66
30.27
31.26
32.51
33.76
34.63
34.75
33.93
32.18
29.74
26.97
24.19
21.59
19.15
16.73
14.12
11.16
7.83
4.30
0.84
-2.24
-4.77
-6.79
-8.53
-10.40
-12.71
-15.58
-18.83
-22.14
-25.15
-27.69
-29.87
-32.01
-34.51
-37.70
-41.71
-46.41
-51.40
-55.99
-59.32
-60.45
-58.65
-53.62
-45.66
-35.63
-24.73
-14.11
-4.59
3.53
10.29
15.92
20.55
24.16
26.61
27.79
27.78
26.87
25.47
24.00
22.82
22.15
22.02
22.44
23.30
24.49
25.81
27.08
28.09
28.66
28.69
28.12
27.01
25.45
23.55
21.39
19.05
16.55
13.92
11.18
8.36
5.54
2.77
0.13
-2.36
-4.76
-7.15
-9.65
-12.29
-15.03
-17.76
-20.41
-23.01
-25.81
-29.12
-33.27
-38.32
-44.02
-49.66
-54.24
-56.72
-56.30
-52.63
-45.96
-37.02
-26.80
-16.29
-6.26
2.77
10.54
16.88
21.72
25.04
26.91
27.53
27.21
26.33
25.27
24.33
23.74
23.57
23.80
24.39
25.27
26.41
27.74
29.11
30.34
31.18
31.43
30.95
29.76
27.98
25.79
23.42
21.03
18.70
16.44
14.17
11.81
9.35
6.85
4.39
2.03
-0.27
-2.67
-5.33
-8.38
-11.80
-15.45
-19.13
-22.64
-25.86
-28.78
-31.50
-34.24
-37.29
-40.94
-45.40
-50.60
-56.11
-61.16
-64.72
-65.75
-63.56
-58.00
-49.55
-39.20
-28.13
-17.38
-7.64
0.84
8.09
14.23
19.33
23.38
26.34
28.20
29.08
29.17
28.74
28.09
27.46
27.05
26.98
27.27
27.88
28.75
29.74
30.75
31.59
32.10
32.13
31.57
30.46
28.93
27.13
25.20
23.20
21.09
18.79
16.22
13.41
10.45
7.49
4.73
2.25
0.03
-2.05
-4.20
-6.59
-9.28
-12.21
-15.19
-18.06
-20.71
-23.15
-25.50
-27.98
-30.87
-34.46
-38.96
-44.38
-50.45
-56.57
-61.80
-65.13
-65.61
-62.70
-56.42
-47.41
-36.71
-25.54
-14.96
-5.62
2.30
8.88
14.34
18.79
22.18
24.41
25.44
25.46
24.82
23.98
23.33
23.13
23.43
24.19
25.30
26.64
28.11
29.57
30.85
31.70
31.94
31.40
30.06
28.06
25.64
23.08
20.58
18.21
15.91
13.57
11.09
8.45
5.68
2.78
-0.23
-3.35
-6.54
-9.70
-12.66
-15.33
-17.69
-19.88
-22.14
-24.75
-27.97
-32.01
-36.95
-42.72
-48.99
-55.05
-59.89
-62.38
-61.55
-57.00
-49.04
-38.62
-27.09
-15.72
-5.42
3.45
10.94
17.29
22.70
27.17
30.59
32.82
33.88
33.96
33.39
32.56
31.78
31.24
31.03
31.16
31.63
32.46
33.59
34.91
36.20
37.21
37.68
37.41
36.35
34.54
32.11
29.20
25.99
22.60
19.14
15.69
12.31
9.03
5.88
2.82
-0.20
-3.25
-6.42
-9.75
-13.28
-16.96
-20.68
-24.37
-27.99
-31.64
-35.54
-39.98
-45.21
-51.27
-57.88
-64.37
-69.75
-72.89
-72.84
-69.03
-61.57
-51.19
-39.11
-26.65
-14.91
-4.56
4.28
11.75
18.13
23.53
27.97
31.29
33.43
34.50
34.78
34.66
34.53
34.63
35.02
35.66
36.47
37.47
38.70
40.22
41.90
43.46
44.47
44.52
43.43
41.30
38.48
35.43
32.48
29.78
27.25
24.66
21.82
18.66
15.25
11.80
8.49
5.47
2.74
0.20
-2.30
-4.88
-7.59
-10.44
-13.40
-16.47
-19.69
-23.13
-26.92
-31.14
-35.92
-41.36
-47.53
-54.26
-61.12
-67.26
-71.56
-72.86
-70.37
-63.91
-54.05
-41.92
-28.90
-16.25
-4.83
4.93
12.96
19.38
24.29
27.75
29.80
30.53
30.14
28.99
27.52
26.22
25.45
25.38
25.98
27.05
28.35
29.65
30.78
31.64
32.13
32.13
31.54
30.34
28.57
26.35
23.85
21.20
18.45
15.60
12.61
9.52
6.39
3.34
0.44
-2.37
-5.28
-8.51
-12.18
-16.19
-20.23
-23.90
-26.91
-29.26
-31.25
-33.43
-36.33
-40.29
-45.29
-50.84
-56.06
-59.80
-60.96
-58.76
-52.99
-44.12
-33.16
-21.27
-9.52
1.40
11.20
19.82
27.25
33.41
38.10
41.13
42.42
42.13
40.63
38.42
35.98
33.72
31.84
30.46
29.58
29.21
29.36
29.94
30.79
31.63
32.16
32.08
31.15
29.26
26.41
22.71
18.39
13.78
9.17
4.80
0.80
-2.81
-6.05
-8.99
-11.72
-14.33
-16.92
-19.57
-22.28
-24.96
-27.53
-29.95
-32.35
-35.00
-38.26
-42.39
-47.50
-53.39
-59.55
-65.17
-69.22
-70.70
-68.83
-63.30
-54.41
-42.97
-30.14
-17.06
-4.69
6.33
15.67
23.23
29.02
33.18
35.87
37.34
37.84
37.67
37.11
36.42
35.83
35.55
35.70
36.33
37.39
38.77
40.28
41.75
42.91
43.49
43.27
42.11
40.09
37.44
34.54
31.70
29.09
26.68
24.24
21.49
18.22
14.42
10.22
5.91
1.78
-1.98
-5.37
-8.52
-11.66
-14.90
-18.22
-21.45
-24.40
-27.02
-29.60
-32.65
-36.80
-42.50
-49.69
-57.71
-65.30
-70.95
-73.26
-71.36
-65.12
-55.22
-42.87
-29.53
-16.54
-4.88
4.93
12.79
18.90
23.59
27.15
29.76
31.48
32.26
32.15
31.31
30.07
28.86
28.05
27.91
28.43
29.49
30.85
32.23
33.37
34.04
34.02
33.13
31.32
28.65
25.33
21.67
17.93
14.31
10.94
7.82
4.96
2.37
0.02
-2.20
-4.44
-6.94
-9.82
-13.05
-16.38
-19.48
-22.09
-24.18
-25.98
-27.89
-30.37
-33.75
-38.19
-43.54
-49.33
-54.71
-58.61
-59.88
-57.69
-51.80
-42.71
-31.47
-19.39
-7.67
2.81
11.61
18.62
23.97
27.90
30.70
32.61
33.77
34.26
34.15
33.59
32.83
32.18
31.86
31.91
32.21
32.60
32.95
33.27
33.58
33.83
33.85
33.37
32.19
30.24
27.65
24.66
21.54
18.48
15.55
12.72
9.90
7.00
3.96
0.81
-2.36
-5.50
-8.59
-11.70
-14.92
-18.22
-21.47
-24.42
-26.94
-29.10
-31.27
-34.03
-37.89
-43.09
-49.37
-56.00
-61.84
-65.62
-66.20
-62.91
-55.76
-45.52
-33.45
-21.00
-9.34
0.86
9.44
16.58
22.49
27.24
30.76
32.99
33.96
33.92
33.24
32.30
31.40
30.73
30.38
30.41
30.83
31.61
32.70
33.94
35.11
35.92
36.13
35.54
34.08
31.79
28.87
25.59
22.27
19.13
16.25
13.52
10.80
7.96
5.05
2.23
-0.31
-2.52
-4.53
-6.63
-9.06
-11.96
-15.18
-18.44
-21.51
-24.26
-26.80
-29.43
-32.52
-36.50
-41.64
-47.98
-55.12
-62.25
-68.17
-71.57
-71.43
-67.24
-59.30
-48.54
-36.35
-24.12
-12.97
-3.48
4.27
10.51
15.59
19.68
22.78
24.79
25.65
25.50
24.68
23.60
22.65
22.05
21.91
22.27
23.11
24.38
26.00
27.78
29.45
30.74
31.38
31.21
30.16
28.31
25.87
23.09
20.23
17.44
14.74
12.06
9.29
6.39
3.44
0.48
-2.44
-5.36
-8.29
-11.26
-14.17
-16.96
-19.63
-22.29
-25.15
-28.48
-32.48
-37.31
-42.94
-49.16
-55.44
-60.90
-64.45
-64.96
-61.70
-54.56
-44.21
-31.91
-19.14
-7.25
2.87
10.92
17.06
21.69
25.21
27.85
29.67
30.66
30.86
30.45
29.75
29.09
28.70
28.69
29.01
29.60
30.40
31.37
32.45
33.48
34.22
34.40
33.83
32.41
30.23
27.54
24.65
21.83
19.25
16.90
14.64
12.32
9.84
7.21
4.50
1.73
-1.18
-4.36
-7.94
-11.92
-16.07
-20.07
-23.60
-26.52
-28.95
-31.21
-33.77
-37.14
-41.70
-47.50
-54.14
-60.70
-65.89
-68.39
-67.25
-62.17
-53.63
-42.62
-30.39
-18.17
-6.88
2.88
10.84
17.03
21.74
25.31
28.08
30.21
31.66
32.35
32.29
31.62
30.66
29.76
29.24
29.24
29.80
30.86
32.29
33.91
35.48
36.70
37.26
36.89
35.46
33.06
30.00
26.72
23.67
21.13
19.15
17.53
15.93
14.00
11.57
8.58
5.18
1.61
-1.83
-4.94
-7.62
-9.95
-12.13
-14.35
-16.71
-19.19
-21.65
-24.02
-26.39
-28.98
-32.09
-35.95
-40.62
-45.93
-51.39
-56.20
-59.34
-59.82
-56.92
-50.57
-41.46
-30.82
-20.01
-10.10
-1.59
5.50
11.43
16.35
20.26
23.00
24.53
24.91
24.42
23.43
22.28
21.23
20.46
20.09
20.17
20.71
21.66
22.92
24.35
25.72
26.77
27.24
26.95
25.90
24.29
22.44
20.67
19.10
17.61
15.86
13.58
10.68
7.39
4.12
1.27
-1.02
-2.89
-4.66
-6.67
-9.02
-11.63
-14.28
-16.79
-19.17
-21.57
-24.26
-27.44
-31.27
-35.78
-40.90
-46.31
-51.38
-55.16
-56.59
-54.78
-49.41
-40.93
-30.45
-19.41
-9.10
-0.31
6.77
12.36
16.82
20.38
23.11
24.88
25.64
25.45
24.56
23.33
22.13
21.26
20.89
21.07
21.74
22.77
24.00
25.22
26.24
26.83
26.81
26.13
24.85
23.18
21.41
19.75
18.28
16.88
15.33
13.37
10.88
7.89
4.58
1.23
-1.94
-4.78
-7.29
-9.58
-11.82
-14.13
-16.59
-19.13
-21.65
-24.04
-26.29
-28.55
-31.06
-34.16
-38.09
-42.88
-48.23
-53.40
-57.36
-58.99
-57.46
-52.51
-44.57
-34.61
-23.86
-13.44
-4.04
4.04
10.85
16.54
21.22
24.91
27.54
29.10
29.69
29.50
28.86
28.07
27.38
26.94
26.78
26.92
27.34
28.00
28.79
29.54
29.96
29.81
28.97
27.50
25.61
23.60
21.65
19.84
18.06
16.17
14.02
11.57
8.87
6.07
3.33
0.79
-1.47
-3.47
-5.36
-7.32
-9.52
-12.03
-14.79
-17.65
-20.42
-22.99
-25.39
-27.78
-30.43
-33.63
-37.56
-42.14
-46.91
-51.06
-53.55
-53.51
-50.43
-44.45
-36.21
-26.71
-16.96
-7.80
0.20
6.78
11.79
15.28
17.37
18.31
18.38
17.91
17.23
16.62
16.31
16.42
16.93
17.72
18.58
19.31
19.85
20.23
20.55
20.91
21.28
21.56
21.52
20.98
19.82
18.06
15.83
13.34
10.76
8.17
5.58
2.93
0.16
-2.72
-5.67
-8.60
-11.43
-14.13
-16.68
-19.07
-21.33
-23.56
-25.94
-28.66
-31.88
-35.58
-39.52
-43.15
-45.76
-46.57
-44.98
-40.77
-34.19
-25.92
-16.94
-8.16
-0.26
6.46
12.03
16.60
20.31
23.17
25.08
26.00
26.02
25.40
24.50
23.73
23.35
23.51
24.21
25.27
26.45
27.50
28.23
28.55
28.49
28.09
27.41
26.40
25.00
23.15
20.89
18.34
15.72
13.19
10.84
8.64
6.48
4.25
1.85
-0.76
-3.54
-6.34
-9.03
-11.47
-13.66
-15.72
-17.88
-20.40
-23.46
-27.14
-31.40
-36.11
-41.07
-45.92
-50.12
-52.89
-53.43
-51.17
-45.98
-38.36
-29.28
-19.90
-11.21
-3.77
2.34
7.41
11.83
15.85
19.43
22.37
24.36
25.28
25.24
24.66
24.04
23.85
24.34
25.47
27.04
28.75
30.35
31.70
32.67
33.13
32.92
31.92
30.15
27.83
25.30
22.92
20.90
19.14
17.37
15.24
12.60
9.50
6.24
3.10
0.28
-2.26
-4.69
-7.24
-9.98
-12.84
-15.67
-18.32
-20.79
-23.22
-25.89
-29.03
-32.84
-37.32
-42.22
-47.06
-51.07
-53.42
-53.38
-50.59
-45.18
-37.78
-29.29
-20.64
-12.53
-5.36
0.79
6.05
10.55
14.37
17.47
19.75
21.14
21.66
21.48
20.90
20.23
19.70
19.44
19.45
19.66
20.06
20.60
21.27
21.97
22.58
22.93
22.87
22.31
21.23
19.63
17.61
15.28
12.78
10.26
7.79
5.45
3.18
0.94
-1.33
-3.65
-6.00
-8.35
-10.63
-12.80
-14.82
-16.68
-18.41
-20.08
-21.86
-23.97
-26.68
-30.19
-34.59
-39.68
-44.90
-49.42
-52.22
-52.43
-49.61
-43.88
-35.90
-26.70
-17.35
-8.66
-1.09
5.21
10.33
14.40
17.52
19.70
20.96
21.36
21.01
20.16
19.12
18.22
17.73
17.74
18.24
19.11
20.19
21.32
22.41
23.36
24.02
24.25
23.84
22.70
20.84
18.44
15.80
13.27
11.05
9.19
7.56
5.91
3.99
1.65
-1.17
-4.40
-7.91
-11.55
-15.12
-18.44
-21.38
-23.91
-26.11
-28.19
-30.45
-33.27
-36.95
-41.62
-47.07
-52.63
-57.24
-59.69
-59.06
-55.00
-47.91
-38.75
-28.72
-18.87
-9.91
-2.10
4.54
10.11
14.70
18.37
21.13
23.01
24.10
24.52
24.47
24.15
23.76
23.47
23.43
23.69
24.34
25.37
26.69
28.14
29.45
30.35
30.68
30.36
29.47
28.11
26.41
24.42
22.21
19.78
17.18
14.42
11.52
8.47
5.32
2.06
-1.29
-4.71
-8.20
-11.71
-15.18
-18.43
-21.36
-23.89
-26.15
-28.37
-30.94
-34.25
-38.61
-44.11
-50.52
-57.20
-63.12
-66.99
-67.63
-64.34
-57.17
-46.97
-35.08
-22.96
-11.70
-1.88
6.43
13.46
19.46
24.55
28.70
31.77
33.61
34.20
33.70
32.47
30.95
29.64
28.91
28.91
29.62
30.89
32.51
34.27
35.94
37.24
37.88
37.63
36.35
34.16
31.38
28.39
25.59
23.13
20.93
18.69
16.09
12.98
9.47
5.85
2.46
-0.53
-3.17
-5.70
-8.33
-11.13
-14.00
-16.79
-19.40
-21.93
-24.62
-27.76
-31.59
-36.23
-41.61
-47.45
-53.20
-57.99
-60.83
-60.75
-57.21
-50.26
-40.62
-29.43
-17.99
-7.38
1.76
9.23
15.15
19.77
23.26
25.69
27.08
27.44
26.93
25.83
24.57
23.54
23.04
23.20
23.94
25.13
26.58
28.13
29.63
30.92
31.80
32.06
31.57
30.29
28.35
25.97
23.38
20.74
18.09
15.37
12.51
9.45
6.19
2.73
-0.95
-4.86
-8.93
-13.02
-16.86
-20.22
-22.99
-25.28
-27.46
-30.06
-33.61
-38.42
-44.43
-51.09
-57.32
-61.84
-63.36
-61.04
-54.72
-44.98
-33.01
-20.20
-7.84
3.16
12.38
19.76
25.47
29.71
32.67
34.48
35.21
35.00
34.07
32.72
31.33
30.23
29.65
29.64
30.10
30.86
31.76
32.71
33.63
34.43
34.94
34.94
34.22
32.66
30.27
27.20
23.69
20.00
16.38
12.98
9.85
6.89
3.91
0.69
-2.93
-6.91
-11.07
-15.10
-18.78
-22.03
-24.98
-27.90
-31.15
-35.07
-39.92
-45.78
-52.42
-59.18
-65.00
-68.58
-68.70
-64.67
-56.54
-45.15
-31.90
-18.29
-5.60
5.41
14.48
21.70
27.30
31.48
34.33
35.88
36.21
35.52
34.16
32.62
31.37
30.79
31.02
32.00
33.45
35.04
36.47
37.59
38.38
38.89
39.13
39.03
38.40
37.01
34.74
31.60
27.82
23.72
19.58
15.58
11.76
8.11
4.56
1.10
-2.31
-5.68
-9.05
-12.43
-15.83
-19.21
-22.57
-25.88
-29.18
-32.56
-36.18
-40.29
-45.08
-50.56
-56.33
-61.49
-64.83
-65.12
-61.58
-54.25
-43.94
-31.98
-19.76
-8.32
1.85
10.59
17.94
23.81
28.03
30.44
31.08
30.31
28.75
27.07
25.78
25.06
24.84
24.90
25.09
25.36
25.77
26.38
27.18
28.08
28.92
29.52
29.71
29.33
28.20
26.22
23.41
19.91
16.02
12.01
8.10
4.40
0.91
-2.37
-5.50
-8.52
-11.54
-14.65
-17.91
-21.30
-24.78
-28.34
-32.13
-36.40
-41.37
-46.97
-52.67
-57.50
-60.32
-60.13
-56.38
-49.22
-39.33
-27.78
-15.76
-4.30
5.82
14.24
20.88
25.91
29.52
31.85
33.00
33.04
32.14
30.65
29.01
27.68
27.00
27.08
27.83
29.02
30.35
31.61
32.63
33.33
33.64
33.47
32.72
31.32
29.23
26.55
23.44
20.11
16.74
13.43
10.16
6.89
3.53
0.06
-3.52
-7.17
-10.81
-14.35
-17.71
-20.90
-23.98
-27.11
-30.51
-34.46
-39.18
-44.84
-51.35
-58.30
-64.87
-69.85
-71.95
-70.18
-64.22
-54.63
-42.64
-29.77
-17.39
-6.33
3.14
11.15
17.93
23.63
28.23
31.62
33.76
34.75
34.84
34.38
33.69
33.04
32.60
32.50
32.82
33.54
34.58
35.73
36.71
37.23
37.11
36.34
35.01
33.28
31.25
28.95
26.41
23.63
20.69
17.65
14.53
11.32
7.96
4.40
0.67
-3.14
-6.90
-10.49
-13.85
-16.97
-19.84
-22.51
-25.04
-27.53
-30.16
-33.17
-36.87
-41.54
-47.22
-53.57
-59.73
-64.40
-66.19
-64.10
-57.88
-48.20
-36.40
-24.00
-12.29
-1.99
6.70
13.85
19.60
24.02
27.11
28.87
29.42
29.01
27.98
26.75
25.65
24.91
24.66
24.86
25.47
26.41
27.63
29.05
30.52
31.81
32.63
32.75
32.00
30.37
28.00
25.13
22.03
18.94
16.00
13.26
10.66
8.06
5.30
2.29
-1.00
-4.44
-7.88
-11.12
-14.03
-16.57
-18.84
-21.04
-23.43
-26.25
-29.75
-34.10
-39.35
-45.34
-51.57
-57.09
-60.68
-61.14
-57.75
-50.58
-40.46
-28.74
-16.83
-5.79
3.82
11.85
18.41
23.61
27.52
30.17
31.64
32.09
31.81
31.11
30.32
29.68
29.39
29.51
30.02
30.81
31.78
32.80
33.77
34.54
34.93
34.79
33.99
32.54
30.54
28.19
25.68
23.12
20.51
17.82
14.97
11.97
8.91
5.88
2.93
0.02
-2.93
-6.00
-9.21
-12.50
-15.77
-18.94
-22.01
-25.04
-28.13
-31.42
-35.06
-39.22
-43.98
-49.28
-54.71
-59.48
-62.52
-62.77
-59.57
-52.88
-43.39
-32.20
-20.54
-9.38
0.67
9.37
16.67
22.59
27.20
30.54
32.73
33.92
34.27
33.98
33.24
32.27
31.33
30.67
30.49
30.88
31.78
32.99
34.23
35.19
35.56
35.15
33.88
31.83
29.22
26.34
23.44
20.69
18.14
15.74
13.38
10.95
8.38
5.71
3.01
0.40
-2.05
-4.35
-6.60
-8.90
-11.33
-13.90
-16.54
-19.18
-21.75
-24.24
-26.73
-29.36
-32.36
-35.98
-40.38
-45.43
-50.55
-54.74
-56.84
-55.89
-51.54
-44.17
-34.78
-24.59
-14.72
-5.92
1.44
7.28
11.64
14.66
16.51
17.39
17.53
17.13
16.42
15.57
14.81
14.35
14.35
14.83
15.72
16.86
18.06
19.18
20.16
20.92
21.39
21.46
21.05
20.08
18.58
16.65
14.44
12.14
9.86
7.67
5.52
3.29
0.86
-1.89
-4.94
-8.21
-11.48
-14.48
-17.02
-19.08
-20.83
-22.62
-24.90
-28.04
-32.18
-37.10
-42.23
-46.76
-49.85
-50.74
-48.97
-44.52
-37.71
-29.26
-20.03
-10.95
-2.70
4.27
9.85
14.14
17.32
19.57
20.95
21.47
21.19
20.23
18.92
17.60
16.64
16.26
16.52
17.30
18.43
19.72
21.04
22.30
23.39
24.13
24.30
23.71
22.30
20.21
17.69
15.04
12.44
9.95
7.49
4.99
2.39
-0.28
-2.97
-5.67
-8.41
-11.24
-14.10
-16.87
-19.34
-21.44
-23.26
-25.12
-27.41
-30.52
-34.58
-39.43
-44.60
-49.30
-52.67
-53.84
-52.22
-47.56
-40.19
-30.86
-20.71
-10.87
-2.23
4.75
10.07
14.05
17.10
19.50
21.33
22.50
22.92
22.61
21.80
20.83
20.06
19.71
19.81
20.24
20.84
21.49
22.12
22.72
23.22
23.55
23.53
23.01
21.92
20.33
18.40
16.29
14.13
11.91
9.59
7.12
4.57
2.03
-0.43
-2.79
-5.14
-7.62
-10.28
-13.12
-15.99
-18.75
-21.29
-23.65
-25.89
-28.19
-30.76
-33.82
-37.55
-41.93
-46.64
-50.95
-53.92
-54.55
-52.26
-46.98
-39.28
-30.09
-20.48
-11.35
-3.26
3.49
8.87
12.94
15.73
17.30
17.69
17.07
15.75
14.18
12.87
12.21
12.36
13.23
14.51
15.87
17.07
18.04
18.88
19.67
20.46
21.15
21.56
21.45
20.63
19.00
16.62
13.72
10.60
7.61
4.95
2.69
0.64
-1.49
-3.99
-6.97
-10.35
-13.87
-17.24
-20.30
-23.10
-25.87
-28.89
-32.46
-36.68
-41.46
-46.44
-51.00
-54.37
-55.71
-54.39
-50.17
-43.27
-34.38
-24.41
-14.29
-4.83
3.42
10.16
15.28
18.88
21.16
22.43
22.96
22.99
22.72
22.31
21.93
21.81
22.11
22.91
24.12
25.52
26.83
27.83
28.44
28.71
28.76
28.69
28.49
28.06
27.18
25.71
23.61
20.98
18.03
15.01
12.06
9.20
6.33
3.31
0.06
-3.37
-6.83
-10.14
-13.17
-15.94
-18.50
-21.01
-23.64
-26.57
-30.01
-34.14
-39.02
-44.40
-49.66
-53.80
-55.71
-54.53
-49.96
-42.34
-32.62
-21.94
-11.41
-1.80
6.50
13.42
19.04
23.52
26.96
29.41
30.88
31.39
31.04
30.04
28.71
27.42
26.50
26.17
26.48
27.32
28.54
29.90
31.24
32.33
32.99
33.01
32.27
30.73
28.53
25.91
23.18
20.60
18.28
16.16
14.06
11.83
9.43
6.93
4.44
2.04
-0.31
-2.73
-5.32
-8.12
-11.06
-13.99
-16.78
-19.41
-21.95
-24.59
-27.58
-31.13
-35.38
-40.21
-45.17
-49.42
-51.92
-51.69
-48.17
-41.49
-32.47
-22.34
-12.34
-3.37
4.15
10.19
14.90
18.43
20.84
22.15
22.51
22.20
21.59
21.03
20.74
20.79
21.12
21.61
22.16
22.72
23.28
23.83
24.36
24.85
25.26
25.50
25.46
25.00
24.00
22.41
20.25
17.70
14.97
12.23
9.54
6.85
4.05
1.07
-2.07
-5.22
-8.18
-10.85
-13.23
-15.43
-17.60
-19.86
-22.29
-25.02
-28.24
-32.19
-36.85
-41.90
-46.55
-49.77
-50.53
-48.22
-42.77
-34.73
-25.03
-14.72
-4.77
4.15
11.65
17.60
22.08
25.22
27.16
28.07
28.08
27.40
26.29
25.08
24.08
23.51
23.42
23.80
24.54
25.52
26.62
27.73
28.68
29.29
29.39
28.87
27.72
25.99
23.79
21.19
18.24
14.96
11.41
7.78
4.32
1.28
-1.24
-3.35
-5.36
-7.55
-10.09
-12.90
-15.73
-18.35
-20.65
-22.79
-25.07
-27.88
-31.47
-35.89
-40.87
-45.84
-49.95
-52.26
-52.00
-48.81
-42.91
-35.04
-26.13
-17.09
-8.53
-0.76
6.12
12.03
16.91
20.67
23.30
24.85
25.50
25.47
24.97
24.22
23.43
22.80
22.47
22.49
22.86
23.49
24.24
24.92
25.32
25.27
24.75
23.82
22.66
21.41
20.08
18.57
16.76
14.58
12.13
9.55
6.99
4.48
1.99
-0.57
-3.20
-5.84
-8.41
-10.83
-13.08
-15.16
-17.08
-18.84
-20.49
-22.19
-24.16
-26.72
-30.08
-34.32
-39.14
-43.97
-47.90
-49.99
-49.47
-46.00
-39.87
-31.83
-22.93
-14.15
-6.16
0.72
6.48
11.18
14.86
17.43
18.84
19.09
18.34
16.95
15.34
13.96
13.14
13.06
13.66
14.76
16.13
17.57
18.97
20.24
21.29
22.00
22.21
21.83
20.83
19.35
17.61
15.84
14.18
12.66
11.15
9.51
7.58
5.25
2.55
-0.40
-3.40
-6.19
-8.61
-10.63
-12.35
-14.02
-15.96
-18.51
-21.91
-26.27
-31.40
-36.84
-41.81
-45.33
-46.52
-44.79
-40.11
-33.00
-24.41
-15.44
-7.05
0.15
5.99
10.57
14.14
16.87
18.78
19.80
19.89
19.19
18.05
16.87
15.96
15.45
15.27
15.31
15.50
15.90
16.61
17.64
18.83
19.85
20.34
20.02
18.83
16.88
14.48
11.95
9.55
7.39
5.45
3.57
1.60
-0.57
-2.89
-5.32
-7.79
-10.30
-12.86
-15.48
-18.12
-20.71
-23.21
-25.70
-28.40
-31.60
-35.54
-40.20
-45.18
-49.65
-52.50
-52.69
-49.56
-43.15
-34.26
-24.10
-13.98
-4.85
2.88
9.20
14.30
18.34
21.35
23.31
24.27
24.41
24.05
23.45
22.81
22.23
21.71
21.25
20.90
20.74
20.83
21.20
21.78
22.44
22.95
23.12
22.84
22.05
20.79
19.11
17.07
14.74
12.29
9.87
7.65
5.64
3.73
1.72
-0.60
-3.29
-6.21
-9.19
-12.06
-14.77
-17.36
-19.96
-22.65
-25.55
-28.75
-32.43
-36.64
-41.26
-45.83
-49.62
-51.76
-51.51
-48.45
-42.67
-34.68
-25.35
-15.65
-6.43
1.71
8.47
13.78
17.67
20.17
21.33
21.29
20.30
18.83
17.37
16.37
16.08
16.45
17.28
18.32
19.32
20.16
20.80
21.32
21.79
22.25
22.63
22.72
22.27
21.06
19.05
16.43
13.49
10.49
7.61
4.82
2.02
-0.85
-3.75
-6.55
-9.11
-11.40
-13.50
-15.59
-17.89
-20.61
-23.95
-28.01
-32.86
-38.30
-43.87
-48.76
-51.97
-52.53
-49.87
-43.96
-35.49
-25.55
-15.36
-5.89
2.37
9.36
15.26
20.27
24.39
27.45
29.27
29.82
29.29
28.05
26.56
25.23
24.31
23.92
24.03
24.58
25.47
26.58
27.81
29.00
29.88
30.20
29.69
28.27
26.01
23.18
20.16
17.25
14.61
12.23
9.99
7.72
5.20
2.28
-1.17
-5.12
-9.43
-13.77
-17.77
-21.13
-23.83
-26.14
-28.56
-31.71
-36.01
-41.53
-47.77
-53.69
-57.89
-59.08
-56.42
-49.90
-40.33
-29.07
-17.56
-6.91
2.24
9.78
15.85
20.70
24.57
27.61
29.86
31.36
32.09
32.10
31.52
30.61
29.65
28.83
28.28
28.01
28.07
28.50
29.36
30.58
31.93
33.02
33.44
32.88
31.26
28.68
25.38
21.73
18.05
14.64
11.64
9.01
6.56
3.94
0.91
-2.63
-6.57
-10.63
-14.50
-17.92
-20.84
-23.40
-25.88
-28.68
-32.15
-36.52
-41.72
-47.34
-52.62
-56.55
-58.15
-56.64
-51.74
-43.77
-33.56
-22.27
-11.05
-0.79
8.02
15.26
20.98
25.25
28.11
29.62
29.91
29.28
28.14
26.90
25.88
25.28
25.15
25.47
26.15
27.06
28.05
28.98
29.70
30.14
30.22
29.84
28.88
27.26
24.95
22.07
18.82
15.48
12.26
9.30
6.57
3.97
1.35
-1.42
-4.35
-7.36
-10.27
-12.92
-15.25
-17.34
-19.37
-21.61
-24.33
-27.73
-31.87
-36.60
-41.55
-46.04
-49.17
-50.04
-48.02
-42.94
-35.20
-25.64
-15.31
-5.19
3.99
11.79
18.08
22.83
26.14
28.12
28.90
28.69
27.76
26.43
25.09
24.08
23.62
23.76
24.38
25.25
26.11
26.82
27.30
27.52
27.51
27.21
26.53
25.38
23.70
21.53
19.04
16.42
13.88
11.54
9.35
7.15
4.69
1.82
-1.50
-5.13
-8.82
-12.29
-15.39
-18.07
-20.49
-22.93
-25.77
-29.32
-33.74
-38.89
-44.27
-49.07
-52.31
-53.09
-50.86
-45.59
-37.79
-28.37
-18.41
-8.88
-0.38
6.83
12.82
17.77
21.83
25.06
27.41
28.83
29.36
29.17
28.53
27.74
27.02
26.50
26.23
26.23
26.48
26.96
27.55
28.14
28.52
28.51
27.96
26.81
25.11
22.96
20.57
18.07
15.62
13.26
10.97
8.62
6.11
3.34
0.30
-2.90
-6.11
-9.13
-11.89
-14.32
-16.52
-18.62
-20.75
-23.04
-25.54
-28.35
-31.65
-35.63
-40.37
-45.66
-50.82
-54.76
-56.29
-54.49
-49.16
-40.88
-30.78
-20.20
-10.21
-1.42
6.02
12.15
17.07
20.80
23.33
24.73
25.24
25.16
24.80
24.41
24.03
23.69
23.37
23.10
23.00
23.18
23.68
24.41
25.17
25.74
25.89
25.51
24.58
23.14
21.32
19.23
16.99
14.69
12.39
10.08
7.77
5.42
3.13
0.97
-0.97
-2.71
-4.40
-6.27
-8.48
-11.08
-13.95
-16.86
-19.63
-22.16
-24.52
-26.86
-29.39
-32.32
-35.80
-39.82
-44.15
-48.17
-51.04
-51.82
-49.81
-44.84
-37.29
-28.06
-18.24
-8.84
-0.58
6.17
11.38
15.18
17.81
19.45
20.28
20.46
20.18
19.66
19.13
18.82
18.83
19.16
19.67
20.19
20.63
20.97
21.25
21.52
21.76
21.87
21.70
21.12
20.06
18.58
16.77
14.76
12.66
10.56
8.47
6.36
4.15
1.78
-0.80
-3.58
-6.46
-9.32
-12.00
-14.36
-16.35
-18.05
-19.67
-21.52
-23.98
-27.30
-31.57
-36.57
-41.77
-46.32
-49.31
-49.84
-47.38
-41.89
-33.91
-24.40
-14.57
-5.43
2.35
8.56
13.38
17.12
20.03
22.20
23.55
24.00
23.59
22.52
21.21
20.11
19.56
19.65
20.27
21.17
22.11
22.97
23.70
24.29
24.67
24.71
24.27
23.29
21.83
20.04
18.05
15.95
13.70
11.25
8.60
5.85
3.16
0.69
-1.47
-3.40
-5.27
-7.26
-9.52
-12.09
-14.88
-17.70
-20.36
-22.75
-24.90
-26.99
-29.35
-32.31
-36.10
-40.70
-45.66
-50.18
-53.18
-53.70
-51.11
-45.40
-37.19
-27.51
-17.53
-8.22
-0.20
6.34
11.48
15.46
18.50
20.81
22.50
23.62
24.22
24.35
24.10
23.57
22.92
22.32
21.90
21.79
22.05
22.69
23.64
24.73
25.70
26.26
26.16
25.33
23.85
21.94
19.87
17.79
15.75
13.66
11.41
8.95
6.32
3.62
0.97
-1.55
-3.88
-6.05
-8.12
-10.16
-12.28
-14.49
-16.76
-18.97
-21.02
-22.89
-24.75
-26.86
-29.55
-33.04
-37.31
-42.04
-46.59
-50.08
-51.61
-50.46
-46.38
-39.70
-31.21
-22.01
-13.17
-5.40
0.96
5.96
9.82
12.74
14.82
16.07
16.52
16.27
15.58
14.75
14.07
13.71
13.71
13.99
14.45
15.01
15.68
16.49
17.42
18.37
19.14
19.49
19.25
18.32
16.78
14.78
12.57
10.31
8.17
6.21
4.43
2.79
1.13
-0.71
-2.91
-5.56
-8.62
-11.88
-15.06
-17.91
-20.30
-22.31
-24.16
-26.21
-28.83
-32.25
-36.47
-41.08
-45.37
-48.34
-49.05
-46.86
-41.71
-34.14
-25.13
-15.81
-7.12
0.39
6.55
11.44
15.24
18.08
20.05
21.25
21.80
21.90
21.73
21.48
21.22
20.95
20.66
20.34
20.05
19.87
19.91
20.22
20.76
21.34
21.69
21.54
20.68
19.09
16.89
14.28
11.52
8.74
6.02
3.38
0.82
-1.74
-4.36
-7.16
-10.22
-13.57
-17.06
-20.49
-23.56
-26.13
-28.26
-30.23
-32.53
-35.66
-39.95
-45.36
-51.33
-56.87
-60.78
-61.97
-59.83
-54.34
-46.15
-36.26
-25.76
-15.58
-6.32
1.72
8.48
13.98
18.27
21.41
23.47
24.60
25.02
24.97
24.73
24.46
24.28
24.27
24.51
25.14
26.26
27.87
29.79
31.66
33.03
33.59
33.22
32.04
30.31
28.27
26.04
23.60
20.89
17.88
14.64
11.32
8.04
4.89
1.84
-1.17
-4.23
-7.36
-10.54
-13.70
-16.80
-19.87
-22.96
-26.19
-29.71
-33.68
-38.27
-43.57
-49.48
-55.57
-61.06
-64.95
-66.19
-64.09
-58.48
-49.83
-39.05
-27.32
-15.71
-5.01
4.31
12.09
18.37
23.34
27.12
29.83
31.50
32.22
32.16
31.62
31.00
30.67
30.87
31.63
32.83
34.24
35.68
37.01
38.11
38.86
39.16
38.88
38.02
36.61
34.78
32.67
30.37
27.91
25.27
22.42
19.37
16.15
12.87
9.62
6.53
3.62
0.84
-1.92
-4.78
-7.84
-11.06
-14.34
-17.53
-20.57
-23.47
-26.41
-29.63
-33.43
-38.00
-43.38
-49.29
-55.20
-60.25
-63.43
-63.81
-60.77
-54.20
-44.57
-32.88
-20.39
-8.31
2.42
11.32
18.27
23.42
26.94
28.98
29.69
29.30
28.21
26.93
25.98
25.72
26.25
27.41
28.91
30.48
31.91
33.10
34.04
34.67
34.98
34.89
34.36
33.32
31.68
29.40
26.47
22.98
19.07
14.99
10.93
7.07
3.44
0.02
-3.33
-6.77
-10.42
-14.34
-18.47
-22.70
-26.89
-31.03
-35.31
-40.04
-45.63
-52.32
-60.01
-68.14
-75.74
-81.60
-84.63
-84.12
-79.97
-72.73
-63.39
-53.15
-43.06
-33.80
-25.63
-18.42
-11.85
-5.56
0.71
7.09
13.53
19.92
26.17
32.34
38.60
45.19
52.19
59.42
66.47
72.79
77.90
81.49
83.50
84.01
83.18
81.15
78.11
74.27
69.91
65.28
60.55
55.75
50.80
45.57
40.01
34.14
28.15
22.25
16.66
11.49
6.72
2.21
-2.19
-6.60
-11.05
-15.46
-19.79
-24.05
-28.42
-33.15
-38.46
-44.42
-50.84
-57.19
-62.70
-66.37
-67.28
-64.75
-58.63
-49.30
-37.68
-24.96
-12.28
-0.53
9.79
18.53
25.73
31.41
35.60
38.24
39.35
39.12
37.89
36.17
34.49
33.29
32.75
32.91
33.62
34.75
36.15
37.69
39.16
40.23
40.58
39.95
38.37
36.05
33.33
30.48
27.58
24.55
21.23
17.57
13.68
9.78
6.13
2.92
0.17
-2.27
-4.68
-7.34
-10.51
-14.22
-18.30
-22.41
-26.20
-29.48
-32.34
-35.13
-38.28
-42.15
-46.87
-52.20
-57.59
-62.16
-64.88
-64.81
-61.35
-54.45
-44.62
-32.90
-20.53
-8.68
1.77
10.37
16.97
21.66
24.65
26.18
26.57
26.16
25.31
24.39
23.71
23.46
23.69
24.30
25.13
26.03
26.88
27.62
28.24
28.71
28.96
28.89
28.40
27.40
25.90
23.92
21.57
18.94
16.14
13.26
10.36
7.44
4.44
1.28
-2.13
-5.79
-9.61
-13.38
-16.85
-19.86
-22.38
-24.58
-26.83
-29.53
-33.06
-37.57
-42.93
-48.68
-54.06
-58.10
-59.82
-58.45
-53.69
-45.81
-35.65
-24.36
-13.14
-2.89
5.94
13.29
19.33
24.21
27.98
30.56
31.89
32.05
31.29
30.01
28.60
27.42
26.68
26.47
26.82
27.65
28.80
30.07
31.23
32.07
32.48
32.36
31.70
30.47
28.67
26.36
23.59
20.47
17.08
13.53
9.91
6.34
2.96
-0.15
-2.95
-5.53
-8.03
-10.62
-13.39
-16.34
-19.40
-22.45
-25.42
-28.35
-31.39
-34.77
-38.75
-43.50
-48.97
-54.80
-60.26
-64.33
-65.90
-64.08
-58.54
-49.65
-38.46
-26.33
-14.62
-4.21
4.50
11.61
17.45
22.28
26.17
29.06
30.83
31.53
31.35
30.64
29.77
29.03
28.60
28.52
28.76
29.22
29.80
30.36
30.80
30.99
30.85
30.29
29.25
27.69
25.69
23.40
21.05
18.87
16.90
15.01
12.95
10.44
7.41
3.98
0.46
-2.83
-5.74
-8.33
-10.78
-13.29
-15.94
-18.61
-21.13
-23.37
-25.35
-27.26
-29.37
-32.01
-35.38
-39.54
-44.35
-49.44
-54.09
-57.40
-58.34
-56.15
-50.57
-42.04
-31.59
-20.54
-10.09
-0.99
6.52
12.53
17.25
20.76
23.04
24.04
23.85
22.78
21.28
19.83
18.79
18.34
18.49
19.16
20.18
21.40
22.68
23.89
24.92
25.70
26.13
26.10
25.52
24.33
22.52
20.19
17.47
14.54
11.59
8.71
5.99
3.41
0.93
-1.52
-3.97
-6.45
-8.96
-11.48
-13.97
-16.39
-18.76
-21.12
-23.66
-26.63
-30.34
-34.92
-40.21
-45.64
-50.30
-53.14
-53.27
-50.26
-44.20
-35.74
-25.85
-15.62
-6.02
2.32
9.16
14.58
18.86
22.21
24.73
26.36
27.01
26.73
25.77
24.53
23.45
22.79
22.60
22.80
23.18
23.65
24.16
24.74
25.34
25.82
25.95
25.52
24.35
22.44
19.92
17.04
14.09
11.26
8.63
6.16
3.73
1.23
-1.40
-4.15
-6.98
-9.89
-12.88
-15.96
-19.07
-22.08
-24.83
-27.22
-29.33
-31.44
-34.03
-37.52
-42.07
-47.40
-52.77
-57.11
-59.30
-58.53
-54.53
-47.60
-38.57
-28.47
-18.31
-8.84
-0.48
6.64
12.55
17.31
20.96
23.50
25.03
25.65
25.60
25.12
24.44
23.67
22.90
22.20
21.70
21.57
21.93
22.74
23.80
24.73
25.18
24.94
24.02
22.60
20.91
19.09
17.12
14.91
12.35
9.44
6.32
3.20
0.23
-2.55
-5.16
-7.73
-10.32
-12.95
-15.57
-18.16
-20.71
-23.27
-25.89
-28.64
-31.60
-34.88
-38.64
-43.05
-48.10
-53.50
-58.57
-62.34
-63.79
-62.17
-57.28
-49.55
-39.88
-29.40
-19.15
-9.84
-1.82
4.85
10.25
14.48
17.62
19.70
20.80
21.05
20.67
19.99
19.40
19.26
19.76
20.88
22.35
23.80
24.95
25.69
26.12
26.39
26.59
26.60
26.17
25.07
23.24
20.86
18.24
15.68
13.29
11.00
8.62
5.92
2.79
-0.78
-4.70
-8.81
-12.92
-16.84
-20.46
-23.79
-26.94
-30.16
-33.72
-37.88
-42.76
