1625752396.00
64.000000
-0.00
-0.00
-0.00
-0.00
-0.00
-0.00
-0.00
-0.00
-0.00
-0.00
0.00
0.01
0.01
-0.00
-0.03
-0.05
-0.05
0.00
0.13
0.36
0.66
1.01
1.37
1.72
2.06
2.40
2.79
3.24
3.80
4.42
5.06
5.66
6.20
6.68
7.15
7.68
8.31
9.14
10.09
11.04
11.88
12.56
13.14
13.76
14.65
15.96
17.91
20.32
22.90
25.38
27.58
29.57
31.68
34.32
37.81
42.54
48.15
54.10
59.83
64.97
69.58
74.14
79.34
85.71
93.76
103.00
112.62
121.73
129.77
136.75
143.30
150.75
157.77
166.64
177.95
191.79
206.97
220.57
228.25
225.36
208.53
176.87
132.76
80.05
23.07
-34.94
-92.44
-149.16
-205.23
-260.37
-313.74
-363.87
-409.83
-450.91
-486.50
-515.74
-537.23
-549.23
-549.97
-538.36
-514.19
-478.64
-433.84
-382.43
-327.06
-269.96
-212.86
-156.99
-103.36
-52.81
-6.35
35.15
70.99
100.89
124.97
143.76
157.98
168.36
175.55
179.93
181.76
181.23
178.59
174.15
168.35
161.66
154.48
147.09
139.62
132.05
124.31
116.34
108.20
100.02
92.03
84.45
77.41
70.86
64.65
58.53
52.32
45.98
39.64
33.60
28.15
23.50
19.58
16.14
12.77
9.13
5.09
0.80
-3.36
-6.99
-9.79
-11.70
-12.91
-13.77
-14.75
-16.39
-19.21
-23.40
-28.43
-32.83
-34.44
-31.09
-21.73
-7.20
9.97
26.28
38.72
45.82
47.92
46.42
42.93
38.63
34.31
30.64
28.36
27.99
29.33
31.28
32.20
30.77
26.70
20.87
14.85
10.02
6.97
5.45
4.74
4.26
3.77
3.33
2.96
2.57
1.92
0.90
-0.39
-1.76
-2.87
-3.58
-3.92
-4.09
-4.23
-4.38
-4.42
-4.10
-3.21
-1.70
0.29
2.43
4.36
5.80
6.58
6.71
6.30
5.57
4.77
4.12
3.71
3.54
3.54
3.67
3.95
4.53
5.56
7.11
9.08
11.16
13.00
14.33
14.97
14.91
14.20
12.88
11.01
8.62
5.91
2.88
-0.30
-3.49
-6.58
-9.50
-12.19
-14.60
-16.62
-18.07
-18.75
-18.47
-17.17
-15.02
-12.33
-9.56
-7.07
-5.16
-3.96
-3.51
-3.74
-4.53
-5.65
-6.81
-7.75
-8.28
-8.39
-8.19
-7.87
-7.52
-7.18
-6.83
-6.41
-5.97
-5.60
-5.42
-5.51
-5.83
-6.30
-6.76
-7.14
-7.42
-7.63
-7.85
-8.16
-8.64
-9.36
-10.31
-11.45
-12.75
-14.11
-15.37
-16.27
-16.55
-15.98
-14.48
-12.14
-9.26
-6.32
-3.77
-1.94
-0.90
-0.53
-0.58
-1.16
-2.23
-3.77
-5.70
-7.82
-9.88
-11.53
-12.53
-12.73
-12.16
-10.87
-8.96
-6.49
-3.49
-0.06
3.61
7.21
10.32
12.61
13.90
14.20
13.61
12.34
10.55
8.40
5.95
3.24
0.27
-2.98
-6.54
-10.37
-14.25
-17.76
-20.37
-21.53
-20.92
-18.56
-14.74
-10.00
-4.89
0.03
4.32
7.59
9.52
9.95
8.96
6.87
4.23
1.63
-0.48
-1.82
-2.37
-2.22
-1.45
-0.10
1.83
4.32
7.25
10.42
13.58
16.45
18.77
20.32
20.93
20.55
19.24
17.19
14.66
11.82
8.73
5.28
1.41
-2.85
-7.21
-11.12
-13.96
-15.19
-14.53
-12.02
-7.96
-2.75
3.14
9.27
15.23
20.57
24.88
27.86
29.38
29.52
28.59
26.95
24.95
22.82
20.68
18.59
16.60
14.80
13.27
12.03
11.03
10.11
9.07
7.75
6.05
3.98
1.62
-0.96
-3.67
-6.44
-9.21
-11.90
-14.49
-17.02
-19.61
-22.43
-25.52
-28.78
-31.84
-34.12
-34.98
-33.93
-30.70
-25.42
-18.54
-10.67
-2.50
5.36
12.41
18.28
22.74
25.66
27.04
27.01
25.79
23.72
21.20
18.60
16.19
14.09
12.29
10.61
8.83
6.80
4.47
1.95
-0.54
-2.77
-4.66
-6.30
-8.02
-10.20
-13.24
-17.32
-22.35
-27.96
-33.59
-38.63
-42.52
-44.80
-45.08
-43.17
-39.05
-32.97
-25.39
-16.83
-7.72
1.82
11.91
22.69
34.05
45.43
55.85
64.22
69.74
72.21
72.03
70.04
67.11
63.91
60.73
57.56
54.23
50.64
46.80
42.78
38.70
34.57
30.31
25.78
20.97
15.96
10.97
6.23
1.83
-2.33
-6.53
-11.11
-16.33
-22.23
-28.67
-35.45
-42.39
-49.36
-56.26
-62.90
-68.93
-73.82
-77.01
-78.06
-76.77
-73.27
-67.94
-61.38
-54.24
-47.18
-40.70
-35.13
-30.62
-27.10
-24.39
-22.27
-20.52
-18.97
-17.52
-16.16
-14.95
-14.01
-13.46
-13.42
-13.95
-15.10
-16.84
-19.09
-21.66
-24.26
-26.58
-28.35
-29.49
-30.09
-30.32
-30.33
-30.20
-29.95
-29.62
-29.38
-29.37
-29.57
-29.66
-28.91
-26.48
-21.67
-14.25
-4.54
6.63
18.26
29.38
39.26
47.47
53.77
58.10
60.51
61.17
60.37
58.46
55.85
52.87
49.78
46.80
44.05
41.65
39.61
37.91
36.45
35.07
33.60
31.90
29.85
27.41
24.64
21.62
18.53
15.48
12.53
9.61
6.52
2.99
-1.13
-5.83
-10.78
-15.41
-19.04
-21.01
-20.91
-18.62
-14.30
-8.31
-1.12
6.73
14.64
22.00
28.21
32.84
35.66
36.74
36.35
34.90
32.94
31.11
30.09
30.49
32.60
36.29
40.97
45.79
49.90
52.84
54.54
55.25
55.31
54.88
53.91
52.29
49.95
46.98
43.59
39.86
35.71
30.89
25.10
18.22
10.48
2.43
-5.16
-11.52
-16.00
-18.24
-18.16
-16.02
-12.34
-7.89
-3.57
-0.16
1.76
2.00
0.72
-1.73
-4.96
-8.67
-12.70
-16.94
-21.20
-25.20
-28.59
-31.07
-32.53
-33.13
-33.19
-32.98
-32.57
-31.75
-30.13
-27.46
-23.80
-19.64
-15.78
-12.98
-11.69
-11.90
-13.22
-15.13
-17.28
-19.54
-22.01
-24.81
-27.85
-30.73
-32.77
-33.24
-31.57
-27.56
-21.39
-13.57
-4.80
4.24
12.94
20.76
27.25
31.98
34.68
35.30
34.11
31.69
28.73
25.91
23.63
22.00
20.87
19.95
18.97
17.76
16.34
14.79
13.23
11.66
9.92
7.81
5.18
2.06
-1.33
-4.62
-7.48
-9.77
-11.59
-13.23
-15.03
-17.27
-20.06
-23.31
-26.71
-29.80
-32.02
-32.81
-31.81
-28.96
-24.52
-19.02
-13.02
-7.03
-1.38
3.74
8.13
11.63
14.06
15.32
15.37
14.28
12.15
9.13
5.44
1.34
-2.82
-6.71
-10.08
-12.82
-14.98
-16.62
-17.78
-18.48
-18.75
-18.80
-18.99
-19.77
-21.46
-24.13
-27.51
-31.13
-34.53
-37.45
-39.96
-42.37
-45.04
-48.10
-51.35
-54.30
-56.39
-57.31
-57.06
-55.93
-54.28
-52.25
-49.74
-46.48
-42.25
-37.04
-31.01
-24.45
-17.56
-10.46
-3.34
3.50
9.57
14.38
17.66
19.61
20.85
22.34
25.01
29.55
36.07
44.09
52.59
60.27
65.92
68.72
68.43
65.42
60.39
54.12
47.20
39.92
32.34
24.39
16.07
7.47
-1.09
-9.12
-15.93
-20.82
-23.21
-22.90
-20.16
-15.75
-10.66
-5.78
-1.74
1.29
3.52
5.39
7.41
10.05
13.59
18.09
23.33
28.88
34.17
38.63
41.83
43.57
43.85
42.85
40.88
38.20
35.05
31.52
27.61
23.29
18.56
13.49
8.24
3.00
-2.05
-6.79
-11.14
-15.12
-18.83
-22.44
-26.16
-30.12
-34.19
-37.93
-40.59
-41.36
-39.67
-35.36
-28.85
-20.95
-12.64
-4.76
2.13
7.77
12.09
15.06
16.68
17.01
16.29
14.96
13.57
12.62
12.34
12.59
12.99
13.12
12.72
11.87
10.86
10.05
9.58
9.32
8.86
7.71
5.56
2.41
-1.40
-5.34
-8.93
-11.95
-14.51
-16.98
-19.79
-23.25
-27.42
-32.10
-36.80
-40.84
-43.47
-44.05
-42.27
-38.24
-32.48
-25.75
-18.74
-11.94
-5.56
0.28
5.40
9.51
12.30
13.67
13.87
13.43
12.93
12.72
12.74
12.63
11.88
10.22
7.71
4.75
1.91
-0.33
-1.68
-2.21
-2.23
-2.24
-2.78
-4.34
-7.22
-11.49
-16.96
-23.31
-30.10
-36.93
-43.49
-49.61
-55.30
-60.63
-65.68
-70.27
-73.81
-75.27
-73.44
-67.45
-57.22
-43.56
-27.78
-11.12
5.84
23.14
40.98
59.03
76.05
90.12
99.42
103.05
101.57
96.72
90.75
85.44
81.59
78.89
76.47
73.39
69.12
63.71
57.61
51.61
46.53
43.20
42.28
44.05
48.12
53.14
56.88
56.59
49.85
35.33
13.42
-13.93
-43.71
-72.57
-97.37
-115.43
-124.62
-123.53
-111.84
-90.70
-63.00
-32.95
-5.12
16.79
30.92
37.51
38.29
35.52
31.15
26.56
22.64
20.05
19.30
20.60
23.53
26.97
29.32
29.01
25.07
17.49
7.20
-4.32
-15.49
-25.14
-32.69
-38.20
-42.19
-45.30
-48.07
-50.71
-53.09
-54.92
-55.93
-56.05
-55.40
-54.23
-52.83
-51.44
-50.31
-49.71
-50.01
-51.52
-54.34
-58.15
-62.16
-65.18
-65.98
-63.65
-57.94
-49.31
-38.74
-27.39
-16.28
-6.13
2.63
9.76
15.15
18.82
20.98
22.02
22.38
22.37
22.09
21.51
20.59
19.47
18.48
18.03
18.34
19.36
20.77
22.14
23.10
23.48
23.32
22.79
22.08
21.34
20.57
19.65
18.28
16.10
12.79
8.17
2.29
-4.59
-12.11
-19.91
-27.68
-35.23
-42.35
-48.77
-54.13
-58.03
-60.16
-60.37
-58.65
-55.10
-49.76
-42.63
-33.68
-23.03
-11.15
1.11
12.67
22.43
29.74
34.55
37.55
39.92
42.96
47.58
53.97
61.45
68.75
74.42
77.36
77.15
74.03
68.76
62.19
55.05
47.84
40.80
34.10
27.85
22.09
16.78
11.78
6.81
1.58
-4.07
-10.07
-16.10
-21.83
-27.06
-31.96
-36.94
-42.38
-48.20
-53.68
-57.63
-58.80
-56.51
-50.91
-42.94
-33.85
-24.67
-15.92
-7.69
0.15
7.59
14.48
20.57
25.71
29.89
33.19
35.75
37.65
38.97
39.84
40.36
40.57
40.35
39.40
37.44
34.35
30.40
26.19
22.45
19.65
17.80
16.34
14.39
11.08
5.97
-0.75
-8.29
-15.60
-21.66
-25.87
-28.12
-28.75
-28.49
-28.20
-28.73
-30.62
-33.89
-37.91
-41.46
-43.17
-41.93
-37.32
-29.62
-19.68
-8.44
3.26
14.81
25.68
35.34
43.15
48.58
51.23
51.03
48.28
43.64
38.07
32.66
28.38
25.84
25.11
25.68
26.74
27.46
27.30
26.05
23.86
21.01
17.75
14.29
10.79
7.39
4.26
1.49
-0.88
-2.92
-4.80
-6.70
-8.88
-11.59
-15.11
-19.70
-25.50
-32.37
-39.85
-47.05
-52.76
-55.70
-54.94
-50.22
-42.08
-31.69
-20.42
-9.42
0.61
9.44
17.04
23.34
28.13
31.24
32.71
32.98
32.77
32.79
33.52
35.09
37.37
40.20
43.48
47.18
51.15
55.05
58.30
60.29
60.59
59.18
56.41
52.91
49.27
45.88
42.77
39.70
36.38
32.55
28.16
23.22
17.70
11.43
4.08
-4.66
-14.89
-26.28
-38.12
-49.28
-58.47
-64.40
-66.12
-63.27
-56.29
-46.45
-35.48
-25.08
-16.37
-9.60
-4.26
0.40
4.82
8.77
11.45
11.95
9.81
5.37
-0.27
-5.69
-9.67
-11.69
-11.98
-11.28
-10.36
-9.68
-9.25
-8.85
-8.45
-8.32
-9.08
-11.25
-14.94
-19.65
-24.47
-28.45
-30.97
-32.01
-32.07
-32.02
-32.84
-35.38
-39.99
-46.32
-53.19
-58.78
-61.01
-58.27
-49.84
-36.30
-19.23
-0.80
16.80
31.79
43.10
50.38
53.97
54.81
53.99
52.39
50.33
47.60
43.81
38.79
32.93
27.18
22.70
20.50
21.11
24.40
29.65
35.80
41.74
46.62
49.97
51.62
51.61
49.92
46.51
41.28
34.37
26.37
18.34
11.50
6.65
3.61
0.92
-3.79
-12.91
-27.63
-47.03
-68.16
-87.08
-100.54
-107.31
-108.43
-106.24
-102.84
-98.90
-93.57
-85.52
-74.22
-60.57
-46.58
-34.35
-24.99
-18.27
-13.05
-8.16
-3.09
1.92
6.06
8.56
9.05
7.68
5.03
1.79
-1.44
-4.30
-6.70
-8.77
-10.76
-12.87
-15.19
-17.65
-20.06
-22.27
-24.32
-26.49
-29.17
-32.69
-37.16
-42.34
-47.63
-52.24
-55.31
-56.14
-54.38
-50.10
-43.86
-36.59
-29.24
-22.51
-16.59
-11.26
-6.16
-1.13
3.72
8.02
11.47
14.04
16.03
17.82
19.67
21.45
22.66
22.67
21.08
17.87
13.55
8.96
4.97
2.19
0.76
0.28
-0.00
-0.86
-2.81
-5.91
-9.76
-13.85
-17.69
-20.95
-23.51
-25.10
-25.28
-23.61
-20.21
-16.06
-12.78
-11.81
-13.36
-16.03
-17.37
-15.17
-8.71
0.76
10.74
18.79
23.76
26.05
26.97
27.73
28.68
29.42
29.35
28.32
26.81
25.63
25.30
25.75
26.41
26.32
24.71
21.40
16.82
11.80
7.27
3.80
1.38
-0.48
-2.49
-5.23
-8.88
-13.26
-18.06
-23.12
-28.45
-34.17
-40.19
-46.09
-51.00
-53.80
-53.51
-49.41
-41.25
-29.18
-13.78
3.93
22.48
40.17
55.41
66.97
74.36
77.77
77.86
75.49
71.55
66.86
62.21
58.23
55.35
53.68
52.94
52.62
52.16
51.18
49.48
47.00
43.70
39.54
34.51
28.73
22.46
16.10
10.03
4.46
-0.61
-5.42
-10.32
-15.63
-21.55
-28.02
-34.69
-40.95
-46.01
-49.05
-49.44
-46.85
-41.40
-33.60
-24.21
-14.09
-4.00
5.45
13.85
20.92
26.43
30.32
32.61
33.53
33.42
32.72
31.79
30.84
29.94
29.02
27.97
26.75
25.41
24.03
22.67
21.24
19.58
17.46
14.69
11.19
7.07
2.55
-2.07
-6.55
-10.78
-14.80
-18.83
-23.14
-27.96
-33.39
-39.25
-45.03
-49.92
-52.95
-53.29
-50.47
-44.58
-36.25
-26.40
-15.93
-5.56
4.32
13.43
21.51
28.21
33.14
36.10
37.17
36.80
35.59
34.15
32.89
31.91
31.12
30.35
29.48
28.53
27.59
26.73
25.89
24.87
23.33
20.98
17.67
13.50
8.78
3.93
-0.73
-5.04
-9.04
-12.95
-17.01
-21.52
-26.67
-32.54
-38.97
-45.44
-51.13
-54.96
-55.91
-53.35
-47.25
-38.18
-27.18
-15.40
-3.81
6.98
16.61
24.91
31.68
36.73
39.90
41.27
41.13
40.04
38.60
37.29
36.33
35.71
35.22
34.63
33.80
32.68
31.30
29.73
27.98
26.00
23.69
20.88
17.45
13.34
8.68
3.72
-1.20
-5.82
-10.05
-13.97
-17.84
-21.93
-26.48
-31.60
-37.30
-43.35
-49.29
-54.38
-57.61
-58.06
-55.02
-48.37
-38.60
-26.73
-14.00
-1.61
9.55
19.02
26.66
32.58
36.99
40.07
41.97
42.84
42.84
42.20
41.12
39.78
38.31
36.78
35.23
33.73
32.33
31.04
29.80
28.46
26.90
25.00
22.74
20.08
16.98
13.39
9.29
4.75
-0.03
-4.80
-9.31
-13.41
-17.13
-20.61
-24.11
-27.97
-32.48
-37.79
-43.77
-49.94
-55.47
-59.33
-60.60
-58.67
-53.48
-45.47
-35.44
-24.37
-13.15
-2.50
7.13
15.48
22.46
28.04
32.21
34.96
36.32
36.41
35.52
34.07
32.52
31.24
30.34
29.74
29.19
28.47
27.48
26.27
24.95
23.60
22.19
20.58
18.57
16.01
12.84
9.09
4.90
0.41
-4.17
-8.65
-12.88
-16.77
-20.36
-23.80
-27.33
-31.20
-35.56
-40.33
-45.12
-49.26
-51.86
-52.10
-49.41
-43.72
-35.46
-25.50
-14.85
-4.44
5.04
13.23
19.99
25.29
29.12
31.51
32.53
32.37
31.34
29.80
28.10
26.46
25.03
23.85
22.93
22.25
21.76
21.33
20.76
19.85
18.46
16.55
14.18
11.47
8.49
5.30
1.91
-1.61
-5.17
-8.65
-11.98
-15.15
-18.23
-21.31
-24.49
-27.87
-31.56
-35.69
-40.25
-45.10
-49.73
-53.36
-55.03
-53.90
-49.57
-42.24
-32.71
-22.14
-11.71
-2.31
5.68
12.26
17.69
22.20
25.82
28.35
29.57
29.40
28.04
26.04
24.11
22.92
22.83
23.75
25.20
26.49
27.07
26.74
25.79
24.79
24.28
24.44
24.94
25.16
24.67
23.49
21.97
20.69
19.79
19.08
18.46
18.38
19.88
23.75
29.59
35.19
37.11
32.21
19.42
0.52
-20.55
-39.39
-52.95
-60.36
-62.50
-60.89
-56.76
-50.87
-43.88
-36.84
-31.08
-27.73
-27.09
-28.36
-30.03
-30.62
-29.26
-25.92
-21.42
-16.70
-12.61
-9.72
-8.39
-8.77
-10.68
-13.31
-15.37
-15.54
-13.23
-9.12
-4.99
-2.91
-4.04
-8.04
-13.28
-17.79
-20.34
-20.91
-20.35
-19.52
-18.58
-16.88
-13.43
-7.66
0.12
8.69
16.35
21.44
23.02
21.11
16.79
11.70
7.48
5.13
4.67
5.28
5.87
5.65
4.47
2.78
1.12
-0.23
-1.46
-2.94
-4.90
-7.08
-8.71
-8.87
-6.91
-2.85
2.52
8.00
12.35
14.84
15.34
14.29
12.30
9.87
7.18
4.12
0.52
-3.65
-8.13
-12.38
-15.73
-17.64
-17.88
-16.64
-14.46
-12.08
-10.19
-9.20
-9.12
-9.53
-9.76
-9.16
-7.26
-3.95
0.58
6.01
12.01
18.35
24.89
31.45
37.68
43.05
46.93
48.80
48.44
46.10
42.40
38.09
33.85
30.03
26.59
23.25
19.56
15.07
9.26
1.63
-8.17
-19.94
-32.54
-43.71
-50.55
-50.52
-42.65
-28.23
-10.68
5.65
16.98
21.42
19.33
12.76
4.39
-3.47
-9.27
-12.20
-11.87
-8.23
-1.64
6.99
16.24
24.50
30.45
33.40
33.54
31.85
29.85
29.15
30.90
35.21
40.79
45.09
44.94
37.71
22.51
0.86
-23.62
-46.38
-63.56
-73.32
-76.28
-75.00
-72.66
-71.75
-73.33
-77.06
-81.88
-86.88
-91.69
-96.43
-101.16
-105.52
-108.68
-109.70
-108.04
-103.91
-98.14
-91.79
-85.82
-80.76
-76.81
-73.86
-71.52
-69.10
-65.67
-60.16
-51.70
-39.84
-24.65
-6.63
13.50
34.88
56.51
77.12
95.26
109.55
119.01
123.31
122.80
118.15
110.17
99.62
87.31
74.14
61.12
49.28
39.49
32.29
27.65
24.59
21.07
14.23
1.19
-19.66
-47.62
-79.27
-109.29
-132.15
-144.11
-144.54
-136.07
-123.24
-110.64
-101.27
-95.85
-93.21
-91.45
-89.00
-84.87
-78.37
-68.53
-54.23
-35.05
-12.38
10.13
27.68
36.61
36.76
32.07
29.01
33.20
46.50
66.06
85.96
100.40
106.44
104.89
99.00
92.15
86.03
80.45
74.43
67.54
60.79
56.18
55.49
59.09
65.58
72.40
76.96
77.82
75.00
69.67
63.23
56.48
49.35
41.14
31.20
19.53
7.02
-4.92
-14.88
-22.06
-26.57
-29.26
-31.16
-32.99
-34.72
-35.68
-34.84
-31.42
-25.36
-17.49
-9.17
-1.77
3.89
7.82
10.70
13.48
17.04
21.96
28.56
36.96
47.09
58.50
70.13
80.58
88.44
92.98
94.51
94.22
93.52
93.18
92.78
90.84
85.62
76.08
62.55
46.63
30.59
16.50
5.53
-2.21
-7.59
-11.98
-16.96
-23.90
-33.65
-46.28
-60.95
-75.98
-89.33
-99.21
-104.72
-106.05
-104.25
-100.70
-96.66
-92.99
-90.30
-88.95
-88.92
-89.51
-89.24
-86.26
-79.03
-67.34
-52.70
-37.93
-26.03
-18.82
-16.05
-15.35
-13.06
-5.32
10.68
36.05
69.83
108.93
148.45
182.16
203.40
206.16
186.76
145.47
87.71
23.44
-35.26
-78.16
-100.48
-104.18
-96.36
-85.19
-75.89
-68.89
-61.04
-48.63
-30.20
-7.47
15.64
34.96
47.64
52.31
48.70
37.45
20.60
1.98
-13.38
-20.89
-18.44
-7.16
8.98
25.14
37.54
44.48
46.14
43.52
37.54
28.43
16.61
3.05
-10.53
-22.10
-30.13
-34.21
-35.27
-35.14
-36.38
-40.55
-47.66
-56.18
-64.00
-69.39
-71.66
-71.41
-69.98
-69.57
-70.99
-73.69
-76.32
-77.83
-78.05
-77.58
-77.36
-77.95
-80.28
-83.44
-85.38
-83.76
-77.08
-65.36
-50.03
-33.65
-13.02
10.44
33.03
50.82
62.31
68.12
69.19
65.92
58.38
47.48
33.03
17.63
4.31
-4.66
-9.08
-10.63
-11.78
-14.80
-18.04
-21.86
-25.52
-27.74
-27.14
-23.57
-19.37
-15.81
-14.03
-14.12
-15.86
-17.66
-17.89
-14.32
-6.20
5.34
17.86
28.57
35.62
37.78
35.27
29.35
23.89
23.04
29.38
42.40
58.83
74.33
84.82
88.15
84.54
78.67
76.63
83.55
101.74
130.89
168.88
211.47
252.30
271.08
251.73
193.35
114.43
40.73
-9.01
-28.80
-24.49
-8.93
4.02
9.38
6.44
-3.35
-18.96
-39.64
-64.16
-90.51
-115.85
-136.41
-146.19
-138.43
-109.55
-65.12
-17.24
21.64
44.14
49.57
42.72
32.05
25.11
25.75
33.86
47.36
63.79
80.20
93.83
99.99
95.44
79.17
52.70
20.30
-11.96
-36.95
-49.06
-48.42
-39.61
-27.50
-15.07
-3.91
5.72
13.83
20.21
24.25
24.39
20.59
14.30
7.58
1.03
-5.19
-11.45
-17.87
-24.49
-31.56
-39.48
-47.34
-53.58
-58.46
-62.42
-66.68
-72.49
-81.89
-92.28
-103.49
-114.41
-113.51
-95.14
-60.22
-16.34
28.26
67.97
98.08
116.41
124.98
128.54
128.70
128.64
128.98
129.47
129.12
122.71
105.96
79.21
46.07
8.20
-29.38
-65.84
-101.54
-137.19
-178.47
-229.51
-289.46
-354.06
-419.55
-482.37
-539.07
-583.96
-578.79
-504.58
-373.70
-221.68
-83.19
23.05
94.68
138.33
163.86
179.88
186.72
183.65
174.15
166.00
166.42
179.56
204.63
236.51
267.09
283.53
271.88
232.28
176.10
119.28
75.26
50.23
42.80
46.43
51.20
50.72
45.23
38.86
35.48
36.26
39.69
43.32
45.43
44.64
41.22
37.56
36.00
37.37
40.79
44.37
46.35
45.82
42.47
36.94
30.32
23.91
17.97
11.95
4.98
-3.55
-13.58
-24.48
-34.01
-41.65
-46.90
-49.79
-50.73
-50.39
-49.38
-48.19
-47.07
-46.10
-45.25
-44.19
-42.60
-40.36
-37.56
-34.56
-31.92
-30.22
-29.77
-30.65
-32.20
-33.49
-33.80
-32.78
-30.81
-28.84
-27.99
-29.00
-31.96
-36.02
-39.73
-42.08
-42.51
-41.47
-39.99
-39.25
-40.22
-43.58
-50.04
-59.04
-69.20
-77.50
-79.78
-72.15
-52.99
-24.42
8.02
37.38
58.19
68.39
69.74
66.10
61.18
56.85
53.03
48.82
43.82
38.76
34.89
33.10
33.22
34.08
34.20
32.40
28.57
23.55
18.71
15.22
13.57
13.42
13.81
13.63
12.12
9.22
5.49
1.78
-1.16
-3.02
-3.99
-4.62
-5.58
-7.27
-9.77
-12.79
-15.87
-18.66
-20.99
-22.96
-24.81
-26.85
-29.29
-32.16
-35.33
-38.63
-41.88
-44.95
-47.76
-50.23
-52.24
-53.62
-54.15
-53.54
-51.55
-48.02
-42.90
-36.36
-28.53
-19.73
-10.34
-0.82
8.44
17.01
24.59
30.93
35.87
39.35
41.40
42.16
41.83
40.68
39.02
37.09
35.04
32.94
30.76
28.47
26.05
23.57
21.18
19.08
17.40
16.16
15.21
14.28
13.15
11.70
10.02
8.41
7.28
6.95
7.48
8.63
9.92
10.97
11.55
11.79
12.15
13.29
15.68
19.41
24.03
28.83
33.21
36.75
39.49
41.85
44.59
48.63
54.90
64.04
75.99
89.70
102.68
111.55
113.13
105.76
90.07
68.95
46.55
25.51
8.39
-3.81
-11.46
-15.67
-17.50
-17.64
-16.56
-14.84
-13.38
-13.02
-14.47
-17.86
-22.68
-27.81
-32.15
-35.03
-36.47
-37.09
-37.59
-38.70
-40.80
-43.85
-47.39
-50.77
-53.30
-54.43
-53.86
-51.45
-47.38
-41.96
-35.55
-28.42
-20.81
-13.00
-5.33
1.80
8.12
13.49
17.95
21.71
24.99
27.87
30.24
31.86
32.51
32.10
30.74
28.67
26.14
23.33
20.31
17.10
13.74
10.38
7.18
4.30
1.79
-0.40
-2.36
-4.17
-5.87
-7.49
-9.08
-10.83
-12.96
-15.66
-18.91
-22.38
-25.50
-27.55
-27.94
-26.38
-23.05
-18.52
-13.60
-9.10
-5.53
-3.06
-1.52
-0.59
0.03
0.49
0.81
0.93
0.77
0.36
-0.23
-0.90
-1.54
-2.11
-2.56
-2.96
-3.34
-3.83
-4.48
-5.37
-6.49
-7.77
-9.15
-10.56
-11.97
-13.39
-14.85
-16.39
-18.09
-20.05
-22.37
-25.17
-28.40
-31.80
-34.86
-36.87
-37.16
-35.30
-31.29
-25.64
-19.16
-12.79
-7.27
-3.04
-0.18
1.46
2.19
2.38
2.38
2.53
3.10
4.20
5.73
7.35
8.52
8.68
7.43
4.66
0.64
-4.05
-8.65
-12.44
-14.87
-15.77
-15.33
-14.03
-12.48
-11.26
-10.79
-11.27
-12.77
-15.23
-18.55
-22.51
-26.66
-30.33
-32.73
-33.13
-31.22
-27.20
-21.71
-15.62
-9.67
-4.29
0.39
4.43
7.85
10.57
12.38
13.16
12.90
11.80
10.19
8.38
6.59
4.91
3.38
2.00
0.84
-0.05
-0.67
-1.11
-1.62
-2.48
-3.89
-5.90
-8.36
-11.02
-13.64
-16.15
-18.65
-21.37
-24.55
-28.31
-32.53
-36.83
-40.59
-43.00
-43.28
-40.80
-35.30
-26.96
-16.39
-4.55
7.53
18.88
28.77
36.74
42.64
46.51
48.54
49.03
48.37
46.97
45.29
43.73
42.55
41.81
41.39
41.04
40.46
39.43
37.82
35.61
32.83
29.61
26.14
22.66
19.35
16.31
13.50
10.74
7.81
4.49
0.63
-3.88
-9.06
-14.86
-20.98
-26.86
-31.62
-34.24
-33.80
-29.81
-22.45
-12.60
-1.68
8.73
17.29
23.24
26.54
27.72
27.59
26.82
25.80
24.55
22.90
20.70
17.98
14.89
11.59
8.15
4.50
0.72
-2.82
-5.52
-6.94
-7.49
-8.52
-12.00
-19.44
-30.96
-44.94
-58.66
-69.55
-76.32
-79.21
-79.35
-77.68
-74.19
-68.03
-58.30
-44.91
-28.91
-12.06
4.01
18.38
31.00
42.25
52.47
61.57
69.05
74.23
76.68
76.40
73.84
69.75
64.95
60.09
55.60
51.62
48.10
44.95
42.06
39.41
36.98
34.74
32.53
30.09
27.17
23.58
19.35
14.65
9.75
4.95
0.40
-3.95
-8.34
-13.10
-18.50
-24.55
-30.79
-36.37
-40.13
-41.00
-38.32
-32.10
-23.04
-12.34
-1.31
8.94
17.65
24.51
29.46
32.58
34.00
33.86
32.33
29.73
26.45
22.93
19.57
16.65
14.31
12.62
11.61
11.34
11.84
13.00
14.48
15.74
16.22
15.49
13.42
10.21
6.22
1.81
-2.81
-7.68
-12.96
-18.79
-25.19
-31.93
-38.52
-44.26
-48.28
-49.77
-48.15
-43.30
-35.64
-26.07
-15.79
-5.96
2.54
9.22
13.97
16.92
18.36
18.58
17.94
16.74
15.34
14.03
13.01
12.36
12.06
12.02
12.17
12.45
12.81
13.18
13.38
13.20
12.39
10.77
8.35
5.28
1.86
-1.63
-4.98
-8.19
-11.38
-14.78
-18.62
-22.97
-27.68
-32.29
-36.07
-38.16
-37.75
-34.42
-28.22
-19.74
-9.95
0.11
9.50
17.56
23.94
28.50
31.23
32.24
31.75
30.13
27.88
25.46
23.25
21.37
19.77
18.24
16.65
14.92
13.14
11.44
9.86
8.34
6.67
4.63
2.07
-0.98
-4.33
-7.71
-10.89
-13.71
-16.14
-18.26
-20.25
-22.35
-24.80
-27.73
-31.02
-34.22
-36.56
-37.21
-35.49
-31.16
-24.52
-16.28
-7.36
1.39
9.34
16.10
21.46
25.29
27.54
28.24
27.58
25.88
23.57
21.14
18.99
17.40
16.42
15.87
15.45
14.85
13.94
12.76
11.54
10.47
9.56
8.59
7.18
5.06
2.21
-1.09
-4.38
-7.22
-9.42
-11.07
-12.45
-13.89
-15.66
-17.93
-20.76
-24.10
-27.72
-31.22
-33.97
-35.25
-34.45
-31.29
-25.95
-19.04
-11.36
-3.70
3.33
9.43
14.42
18.23
20.77
21.98
21.99
21.12
19.84
18.64
17.87
17.61
17.70
17.92
18.05
17.97
17.66
17.12
16.32
15.23
13.84
12.25
10.62
9.12
7.76
6.43
4.90
2.99
0.70
-1.81
-4.27
-6.48
-8.35
-10.00
-11.61
-13.36
-15.40
-17.78
-20.52
-23.49
-26.42
-28.81
-30.02
-29.45
-26.78
-22.13
-16.05
-9.36
-2.87
2.80
7.33
10.66
12.87
14.12
14.57
14.41
13.87
13.20
12.64
12.33
12.33
12.55
12.87
13.17
13.39
13.56
13.69
13.76
13.70
13.41
12.81
11.96
10.96
9.95
9.00
8.05
7.00
5.72
4.16
2.34
0.38
-1.58
-3.40
-4.94
-6.18
-7.15
-7.99
-8.89
-10.04
-11.54
-13.34
-15.22
-16.77
-17.53
-17.12
-15.33
-12.25
-8.22
-3.76
0.54
4.23
7.00
8.76
9.55
9.48
8.69
7.31
5.49
3.47
1.49
-0.25
-1.62
-2.63
-3.40
-4.06
-4.74
-5.46
-6.16
-6.80
-7.35
-7.82
-8.23
-8.58
-8.80
-8.85
-8.72
-8.50
-8.29
-8.22
-8.28
-8.38
-8.37
-8.14
-7.67
-7.10
-6.60
-6.33
-6.35
-6.62
-7.00
-7.32
-7.38
-6.94
-5.79
-3.81
-1.01
2.36
5.87
9.05
11.54
13.19
14.06
14.31
14.11
13.55
12.68
11.55
10.30
9.06
8.01
7.28
6.97
7.08
7.54
8.18
8.74
8.97
8.71
8.00
6.98
5.84
4.72
3.66
2.56
1.34
-0.04
-1.52
-3.01
-4.35
-5.49
-6.42
-7.27
-8.17
-9.29
-10.71
-12.46
-14.50
-16.78
-19.18
-21.54
-23.62
-25.14
-25.84
-25.57
-24.37
-22.48
-20.23
-17.98
-15.96
-14.32
-13.14
-12.48
-12.38
-12.78
-13.51
-14.26
-14.66
-14.39
-13.20
-10.95
-7.59
-3.18
2.11
7.98
14.02
19.71
24.64
28.58
31.56
33.86
35.79
37.64
39.49
41.22
42.50
42.89
41.88
38.96
33.71
25.84
15.34
2.42
-12.54
-29.02
-46.40
-63.90
-80.51
-95.07
-106.27
-113.00
-114.55
-110.84
-102.50
-90.68
-76.92
-62.73
-49.39
-37.73
-28.09
-20.39
-14.33
-9.53
-5.69
-2.56
0.05
2.43
4.86
7.56
10.61
13.85
17.00
19.80
22.10
23.96
25.52
26.85
27.90
28.49
28.43
27.64
26.24
24.41
22.29
19.86
16.98
13.57
9.71
5.60
1.50
-2.49
-6.36
-10.15
-13.67
-16.47
-17.91
-17.45
-14.99
-10.92
-6.06
-1.32
2.61
5.39
7.09
7.90
8.07
7.75
7.00
5.81
4.18
2.13
-0.21
-2.69
-5.09
-7.18
-8.69
-9.37
-9.01
-7.50
-4.97
-1.79
1.46
4.13
5.75
6.18
5.64
4.63
3.53
2.50
1.35
-0.34
-2.93
-6.50
-10.73
-14.94
-18.27
-19.93
-19.37
-16.40
-11.13
-3.94
4.65
14.00
23.39
32.08
39.34
44.53
47.24
47.38
45.14
41.00
35.53
29.26
22.60
15.79
8.95
2.16
-4.44
-10.61
-16.08
-20.63
-24.21
-26.93
-29.06
-30.92
-32.79
-34.86
-37.22
-39.87
-42.77
-45.82
-48.92
-52.00
-55.09
-58.31
-61.72
-65.17
-68.20
-69.97
-69.57
-66.23
-59.62
-50.03
-38.27
-25.46
-12.70
-0.88
9.53
18.39
25.82
32.05
37.24
41.48
44.75
47.02
48.34
48.87
48.94
48.95
49.24
50.01
51.21
52.52
53.49
53.68
52.92
51.37
49.49
47.84
46.89
46.78
47.38
48.32
49.15
49.48
48.97
47.43
44.83
41.48
38.06
35.52
34.66
35.65
37.56
38.43
35.93
28.50
16.20
0.87
-14.62
-27.68
-37.19
-43.81
-49.34
-55.58
-63.28
-71.91
-80.10
-86.49
-90.25
-91.07
-88.86
-83.38
-74.30
-61.66
-46.20
-29.47
-13.45
0.11
10.21
16.83
20.65
22.68
23.76
24.36
24.56
24.17
22.89
20.53
17.15
13.17
9.31
6.45
5.41
6.64
10.15
15.45
21.77
28.22
33.99
38.47
41.27
42.21
41.31
38.81
35.09
30.61
25.85
21.22
16.98
13.26
10.08
7.43
5.24
3.51
2.18
1.18
0.38
-0.37
-1.17
-2.08
-3.05
-4.03
-4.95
-5.84
-6.76
-7.81
-9.12
-10.75
-12.76
-15.10
-17.56
-19.78
-21.27
-21.50
-20.07
-16.86
-12.08
-6.25
0.02
6.12
11.62
16.25
19.89
22.49
24.00
24.42
23.81
22.40
20.56
18.74
17.35
16.66
16.72
17.32
18.19
18.99
19.51
19.59
19.14
18.14
16.58
14.51
12.01
9.24
6.36
3.52
0.84
-1.62
-3.95
-6.32
-8.99
-12.16
-15.77
-19.43
-22.40
-23.87
-23.22
-20.34
-15.60
-9.73
-3.54
2.35
7.59
12.01
15.55
18.13
19.66
20.11
19.61
18.42
16.91
15.43
14.17
13.16
12.27
11.30
10.12
8.74
7.30
5.98
4.90
4.00
3.04
1.76
-0.08
-2.51
-5.41
-8.51
-11.55
-14.32
-16.77
-19.01
-21.24
-23.75
-26.77
-30.46
-34.74
-39.32
-43.64
-47.05
-48.91
-48.80
-46.68
-42.87
-37.98
-32.60
-27.24
-22.18
-17.52
-13.31
-9.67
-6.74
-4.65
-3.42
-2.85
-2.62
-2.40
-2.01
-1.48
-1.04
-0.93
-1.33
-2.16
-3.15
-3.92
-4.17
-3.74
-2.61
-0.88
1.34
3.95
6.84
9.86
12.76
15.30
17.28
18.60
19.39
19.91
20.53
21.56
23.15
25.25
27.64
30.01
32.08
33.65
34.66
35.12
35.13
34.84
34.47
34.29
34.51
35.11
35.84
36.28
36.07
35.20
34.13
33.60
34.29
36.35
39.27
41.91
42.98
41.47
37.05
30.11
21.58
12.45
3.57
-4.60
-11.80
-17.91
-22.81
-26.37
-28.60
-29.73
-30.25
-30.69
-31.46
-32.70
-34.24
-35.78
-37.07
-38.05
-38.89
-39.87
-41.14
-42.57
-43.70
-43.89
-42.51
-39.27
-34.29
-28.11
-21.47
-15.08
-9.42
-4.68
-0.86
2.10
4.23
5.49
5.92
5.62
4.83
3.86
3.00
2.43
2.16
2.11
2.11
2.06
1.91
1.69
1.43
1.11
0.66
0.00
-0.98
-2.35
-4.10
-6.17
-8.43
-10.70
-12.77
-14.49
-15.79
-16.75
-17.56
-18.48
-19.72
-21.43
-23.61
-26.16
-28.81
-31.19
-32.78
-33.06
-31.62
-28.37
-23.54
-17.65
-11.36
-5.25
0.30
5.13
9.21
12.48
14.88
16.31
16.77
16.38
15.44
14.31
13.33
12.66
12.27
11.94
11.42
10.57
9.38
7.99
6.62
5.45
4.57
3.89
3.20
2.23
0.71
-1.48
-4.27
-7.43
-10.61
-13.50
-15.97
-18.08
-20.04
-22.12
-24.54
-27.39
-30.64
-34.09
-37.38
-39.95
-41.08
-40.13
-36.74
-31.01
-23.53
-15.18
-6.87
0.77
7.41
12.99
17.55
21.05
23.40
24.56
24.63
23.89
22.76
21.64
20.80
20.36
20.23
20.24
20.20
19.97
19.49
18.77
17.85
16.82
15.67
14.36
12.78
10.81
8.38
5.49
2.28
-1.02
-4.18
-7.04
-9.55
-11.79
-13.96
-16.27
-18.96
-22.11
-25.65
-29.28
-32.42
-34.37
-34.42
-32.11
-27.37
-20.51
-12.11
-2.83
6.71
15.97
24.50
31.85
37.65
41.68
43.99
44.91
45.05
45.03
45.38
46.34
47.89
49.80
51.77
53.53
54.91
55.80
56.23
56.34
56.40
56.69
57.22
57.19
54.70
47.24
32.62
10.27
-18.13
-49.09
-78.52
-103.14
-121.14
-132.07
-136.27
-134.42
-127.59
-117.47
-106.38
-96.78
-90.32
-87.22
-86.21
-85.43
-83.38
-79.64
-74.75
-69.63
-65.02
-61.19
-57.97
-55.09
-52.28
-49.37
-46.21
-42.53
-38.10
-32.67
-26.22
-19.06
-11.74
-4.85
1.34
7.09
13.20
20.73
30.54
42.89
57.17
72.11
86.03
97.36
104.97
108.51
108.38
105.42
100.61
94.71
88.09
80.74
72.42
62.88
52.03
40.18
28.14
17.24
8.91
4.25
3.31
4.96
7.01
7.06
3.41
-4.26
-14.75
-25.97
-35.76
-42.66
-46.16
-46.45
-43.95
-38.94
-31.48
-21.75
-10.38
1.49
12.36
20.86
26.30
28.88
29.55
29.49
29.60
30.19
30.92
31.10
30.10
27.61
23.79
19.18
14.42
10.02
6.14
2.59
-1.03
-5.17
-10.07
-15.77
-22.07
-28.63
-34.98
-40.52
-44.52
-46.14
-44.71
-39.87
-31.84
-21.43
-9.82
1.70
12.06
20.57
26.94
31.15
33.38
33.91
33.09
31.37
29.20
26.99
25.00
23.29
21.77
20.32
18.91
17.62
16.62
15.95
15.47
14.83
13.62
11.51
8.40
4.45
-0.06
-4.77
-9.41
-13.80
-17.86
-21.61
-25.22
-29.00
-33.27
-38.20
-43.55
-48.65
-52.39
-53.59
-51.31
-45.18
-35.52
-23.28
-9.73
3.78
16.15
26.67
34.97
41.02
44.88
46.77
46.94
45.79
43.84
41.63
39.66
38.21
37.27
36.62
35.95
35.03
33.81
32.35
30.75
28.98
26.87
24.18
20.72
16.48
11.69
6.71
1.93
-2.37
-6.13
-9.54
-12.95
-16.79
-21.44
-27.09
-33.59
-40.35
-46.32
-50.23
-50.91
-47.65
-40.50
-30.26
-18.22
-5.80
5.84
16.02
24.50
31.26
36.33
39.66
41.24
41.19
39.84
37.70
35.38
33.36
31.84
30.78
29.91
28.95
27.72
26.21
24.58
23.00
21.48
19.84
17.76
14.88
11.08
6.52
1.63
-3.08
-7.21
-10.69
-13.76
-16.87
-20.47
-24.88
-30.09
-35.80
-41.37
-45.95
-48.61
-48.54
-45.29
-38.90
-29.91
-19.29
-8.15
2.51
11.97
19.82
25.96
30.37
33.12
34.26
34.01
32.70
30.82
28.90
27.33
26.26
25.58
25.01
24.28
23.22
21.84
20.29
18.72
17.20
15.63
13.78
11.36
8.15
4.16
-0.37
-5.04
-9.43
-13.24
-16.40
-19.11
-21.70
-24.55
-27.91
-31.86
-36.22
-40.50
-44.00
-45.93
-45.56
-42.52
-36.87
-29.14
-20.21
-11.02
-2.39
5.11
11.15
15.54
18.22
19.22
18.75
17.22
15.21
13.28
11.85
11.06
10.80
10.78
10.72
10.40
9.78
8.95
8.05
7.22
6.47
5.69
4.64
3.06
0.74
-2.31
-5.85
-9.49
-12.82
-15.59
-17.78
-19.60
-21.37
-23.45
-26.08
-29.39
-33.29
-37.45
-41.20
-43.70
-44.03
-41.48
-35.85
-27.54
-17.48
-6.86
3.18
11.85
18.77
23.94
27.54
29.76
30.75
30.59
29.47
27.69
25.68
23.90
22.66
22.07
21.96
22.03
21.91
21.38
20.37
18.93
17.19
15.26
13.18
10.91
8.36
5.45
2.14
-1.51
-5.34
-9.12
-12.60
-15.67
-18.35
-20.82
-23.36
-26.26
-29.78
-34.01
-38.83
-43.83
-48.24
-51.11
-51.52
-48.85
-43.02
-34.56
-24.42
-13.73
-3.47
5.70
13.44
19.67
24.44
27.85
30.03
31.12
31.31
30.81
29.91
28.89
28.03
27.50
27.31
27.35
27.35
27.07
26.30
25.00
23.20
21.06
18.75
16.39
14.03
11.66
9.18
6.51
3.58
0.39
-3.00
-6.51
-10.05
-13.54
-16.92
-20.12
-23.15
-26.08
-29.14
-32.61
-36.67
-41.21
-45.69
-49.17
-50.57
-48.98
-44.08
-36.16
-26.10
-15.04
-4.06
6.03
14.73
21.78
27.08
30.60
32.44
32.86
32.26
31.07
29.70
28.43
27.34
26.43
25.62
24.83
24.01
23.18
22.37
21.56
20.70
19.62
18.13
16.04
13.31
9.99
6.27
2.32
-1.67
-5.63
-9.47
-13.12
-16.46
-19.42
-21.97
-24.18
-26.16
-28.08
-30.13
-32.49
-35.34
-38.77
-42.64
-46.44
-49.32
-50.23
-48.27
-43.02
-34.69
-24.10
-12.41
-0.76
9.92
19.07
26.43
31.91
35.51
37.34
37.62
36.76
35.26
33.67
32.39
31.62
31.34
31.38
31.53
31.63
31.61
31.48
31.21
30.70
29.80
28.34
26.22
23.52
20.41
17.14
13.89
10.69
7.47
4.07
0.43
-3.43
-7.31
-11.01
-14.35
-17.28
-19.90
-22.39
-25.00
-27.97
-31.49
-35.59
-40.03
-44.18
-47.10
-47.69
-45.02
-38.73
-29.16
-17.28
-4.42
8.16
19.59
29.41
37.52
43.95
48.76
52.00
53.85
54.66
54.92
55.15
55.69
56.65
57.89
59.12
60.06
60.51
60.34
59.35
57.22
53.51
47.71
39.45
28.81
16.36
3.16
-9.60
-20.97
-30.61
-38.79
-46.18
-53.46
-60.93
-68.42
-75.38
-81.14
-85.12
-86.96
-86.53
-84.01
-79.98
-75.50
-71.89
-70.20
-70.67
-72.39
-73.52
-72.02
-66.49
-56.75
-43.91
-29.81
-16.28
-4.57
4.84
12.00
17.16
20.49
22.07
22.01
20.59
18.32
15.81
13.58
11.88
10.64
9.50
8.04
5.96
3.29
0.33
-2.28
-3.77
-3.43
-0.81
4.05
10.56
17.71
24.40
29.79
33.58
36.00
37.64
39.04
40.48
41.90
43.07
43.79
43.94
43.54
42.55
40.82
38.15
34.43
29.94
25.35
21.59
19.55
19.64
21.63
24.68
27.68
29.67
30.11
29.01
26.71
23.65
20.14
16.28
12.08
7.62
3.13
-1.00
-4.38
-6.77
-8.14
-8.68
-8.71
-8.45
-8.06
-7.55
-6.91
-6.23
-5.64
-5.37
-5.59
-6.33
-7.49
-8.87
-10.23
-11.44
-12.48
-13.45
-14.48
-15.75
-17.33
-19.26
-21.45
-23.71
-25.69
-26.89
-26.80
-24.97
-21.25
-15.84
-9.32
-2.43
4.06
9.59
13.85
16.76
18.36
18.73
18.00
16.38
14.23
11.96
9.99
8.62
7.93
7.82
8.06
8.44
8.80
9.11
9.36
9.54
9.55
9.28
8.63
7.55
6.08
4.32
2.42
0.50
-1.32
-2.97
-4.46
-5.86
-7.25
-8.74
-10.36
-12.06
-13.74
-15.29
-16.67
-17.87
-18.96
-20.10
-21.43
-23.09
-25.06
-27.08
-28.55
-28.70
-26.79
-22.36
-15.52
-6.84
2.81
12.51
21.54
29.47
36.07
41.26
45.06
47.70
49.58
51.22
53.13
55.51
58.23
60.90
63.19
65.08
67.06
69.88
74.07
79.42
84.72
88.03
87.33
81.32
69.85
53.95
35.41
16.30
-1.35
-15.75
-25.47
-29.84
-29.30
-25.66
-21.74
-20.58
-24.38
-33.76
-47.50
-63.15
-78.02
-90.16
-98.88
-104.50
-107.69
-108.78
-107.64
-104.27
-99.62
-96.11
-97.22
-106.02
-123.46
-147.17
-171.94
-191.61
-201.57
-200.39
-189.76
-172.84
-152.16
-128.37
-100.67
-68.25
-31.72
6.31
41.93
71.34
91.98
102.96
104.65
98.35
85.99
70.25
54.41
41.81
34.74
33.63
36.86
41.50
44.65
44.49
40.74
34.37
26.78
19.19
12.38
6.79
2.79
0.79
1.16
4.08
9.21
15.69
22.33
27.91
31.67
33.48
33.87
33.62
33.34
33.17
32.70
31.32
28.62
24.68
20.12
15.80
12.49
10.53
9.75
9.61
9.47
8.83
7.42
5.26
2.53
-0.54
-3.75
-6.95
-10.05
-12.99
-15.73
-18.22
-20.46
-22.51
-24.55
-26.79
-29.42
-32.36
-35.22
-37.23
-37.50
-35.27
-30.22
-22.75
-13.82
-4.67
3.62
10.49
16.03
20.84
25.63
30.85
36.40
41.75
46.17
49.11
50.49
50.76
50.78
51.53
53.75
57.77
63.34
69.70
75.65
79.81
80.81
77.77
70.58
60.12
48.47
38.71
34.03
36.11
43.64
51.57
52.66
40.25
11.30
-31.65
-81.24
-128.33
-165.71
-189.87
-200.64
-198.37
-182.39
-151.70
-107.15
-53.82
-0.83
41.37
66.65
73.68
67.80
58.49
54.35
59.14
70.92
84.81
95.25
100.45
100.13
94.55
83.44
65.58
39.67
4.65
-37.01
-79.71
-115.18
-135.31
-135.10
-115.73
-84.79
-52.98
-30.41
-22.11
-24.23
-28.94
-28.37
-18.51
-0.90
15.69
26.38
29.34
24.52
11.34
-10.94
-44.37
-89.50
-143.07
-196.95
-238.90
-257.33
-245.37
-203.89
-141.89
-73.82
-14.51
25.50
42.76
41.02
27.78
11.12
-2.76
-10.61
-11.75
-6.92
2.55
15.11
29.09
42.02
51.02
53.79
49.61
39.81
27.60
16.92
11.05
11.53
17.46
26.09
34.19
39.27
40.41
38.25
34.35
30.23
26.76
23.89
21.02
17.55
13.26
8.38
3.52
-0.61
-3.29
-3.96
-2.28
1.81
8.01
15.66
23.88
31.76
38.59
43.96
47.81
50.31
51.70
52.20
51.97
51.13
49.89
48.52
47.30
46.52
46.28
46.47
46.82
47.00
46.79
46.10
44.99
43.52
41.69
39.43
36.68
33.41
29.77
26.01
22.46
19.42
17.02
15.16
13.48
11.50
8.82
5.32
1.18
-3.15
-7.15
-10.54
-13.29
-15.67
-18.10
-20.96
-24.51
-28.80
-33.60
-38.33
-42.12
-43.99
-43.11
-39.08
-32.18
-23.22
-13.38
-3.77
4.77
11.83
17.36
21.52
24.50
26.46
27.48
27.65
27.07
25.97
24.65
23.42
22.53
22.05
21.88
21.82
21.69
21.43
21.07
20.71
20.37
19.94
19.20
17.91
15.93
13.35
10.41
7.44
4.79
2.68
1.13
-0.04
-1.14
-2.52
-4.41
-6.85
-9.64
-12.44
-14.91
-16.81
-18.06
-18.72
-18.90
-18.78
-18.70
-19.15
-20.71
-23.79
-28.35
-33.71
-38.73
-42.25
-43.51
-42.48
-39.71
-35.94
-31.71
-27.10
-21.94
-16.08
-9.63
-3.04
3.10
8.34
12.54
15.78
18.32
20.32
21.84
22.82
23.21
23.07
22.56
21.98
21.54
21.35
21.28
21.03
20.26
18.77
16.58
13.97
11.35
9.07
7.32
6.05
5.05
4.09
3.00
1.78
0.51
-0.65
-1.61
-2.41
-3.18
-4.13
-5.40
-7.04
-8.91
-10.76
-12.34
-13.49
-14.25
-14.85
-15.73
-17.32
-19.90
-23.33
-27.04
-29.99
-31.04
-29.32
-24.59
-17.42
-8.99
-0.78
5.93
10.35
12.38
12.42
11.21
9.43
7.57
5.86
4.25
2.67
1.07
-0.41
-1.52
-2.03
-1.85
-1.10
-0.07
0.95
1.81
2.54
3.31
4.22
5.28
6.36
7.24
7.75
7.85
7.61
7.20
6.79
6.47
6.23
5.94
5.39
4.34
2.68
0.44
-2.13
-4.67
-6.80
-8.30
-9.14
-9.47
-9.59
-9.80
-10.39
-11.56
-13.43
-15.92
-18.65
-20.99
-22.09
-21.23
-18.05
-12.71
-5.95
1.19
7.64
12.62
15.83
17.40
17.74
17.35
16.63
15.83
15.03
14.24
13.43
12.62
11.88
11.25
10.78
10.45
10.19
9.94
9.66
9.35
9.03
8.71
8.36
7.93
7.29
6.37
5.16
3.76
2.35
1.08
0.05
-0.80
-1.58
-2.45
-3.47
-4.61
-5.79
-6.92
-7.97
-8.95
-9.87
-10.72
-11.45
-12.07
-12.65
-13.33
-14.32
-15.77
-17.79
-20.35
-23.23
-25.98
-27.94
-28.34
-26.51
-22.21
-15.79
-8.20
-0.67
5.63
10.01
12.39
13.15
12.92
12.27
11.57
10.96
10.45
10.01
9.64
9.34
9.10
8.90
8.66
8.33
7.84
7.18
6.39
5.59
4.89
4.43
4.25
4.29
4.37
4.27
3.78
2.80
1.42
-0.15
-1.66
-2.87
-3.74
-4.35
-4.90
-5.61
-6.62
-7.93
-9.38
-10.78
-11.97
-12.86
-13.49
-13.94
-14.36
-14.92
-15.88
-17.47
-19.84
-22.87
-26.01
-28.41
-29.16
-27.62
-23.73
-18.06
-11.59
-5.32
0.02
4.18
7.20
9.31
10.69
11.41
11.51
10.99
9.99
8.69
7.34
6.20
5.46
5.20
5.38
5.84
6.35
6.78
7.06
7.25
7.40
7.53
7.58
7.42
6.93
6.08
4.93
3.65
2.42
1.39
0.62
-0.03
-0.78
-1.91
-3.56
-5.66
-7.94
-10.05
-11.68
-12.75
-13.35
-13.74
-14.18
-14.95
-16.30
-18.43
-21.40
-24.98
-28.60
-31.35
-32.33
-30.90
-27.01
-21.24
-14.57
-8.06
-2.53
1.65
4.46
6.09
6.79
6.76
6.21
5.36
4.45
3.65
3.06
2.66
2.38
2.21
2.21
2.47
3.09
4.01
5.06
5.95
6.44
6.41
5.90
5.10
4.22
3.41
2.68
1.91
0.92
-0.47
-2.26
-4.35
-6.51
-8.52
-10.20
-11.51
-12.57
-13.63
-14.98
-16.91
-19.57
-22.84
-26.29
-29.14
-30.52
-29.71
-26.41
-20.93
-14.13
-7.10
-0.88
3.91
7.13
9.04
10.03
10.46
10.50
10.24
9.74
9.09
8.47
8.03
7.86
7.95
8.22
8.59
8.99
9.38
9.74
10.00
10.11
10.02
9.69
9.08
8.14
6.85
5.21
3.27
1.13
-1.10
-3.36
-5.65
-8.00
-10.45
-12.99
-15.57
-18.12
-20.63
-23.10
-25.49
-27.62
-29.11
-29.40
-27.94
-24.43
-18.97
-12.14
-4.80
2.17
8.08
12.67
16.03
18.42
20.16
21.43
22.27
22.65
22.60
22.25
21.91
21.97
22.69
24.11
25.98
27.87
29.32
30.06
30.12
29.75
29.29
28.95
28.77
28.54
27.95
26.73
24.72
22.00
18.83
15.55
12.52
9.97
7.97
6.40
5.03
3.60
1.87
-0.26
-2.73
-5.30
-7.52
-8.86
-8.80
-7.06
-3.72
0.77
5.68
10.24
13.86
16.33
17.77
18.49
18.84
18.99
18.94
18.60
17.92
16.98
16.00
15.24
14.84
14.75
14.78
14.71
14.42
13.96
13.51
13.28
13.33
13.51
13.57
13.16
12.07
10.27
7.98
5.51
3.20
1.23
-0.37
-1.71
-2.98
-4.34
-5.90
-7.72
-9.82
-12.15
-14.50
-16.43
-17.38
-16.80
-14.42
-10.39
-5.32
-0.05
4.59
8.12
10.43
11.79
12.52
12.94
13.14
13.09
12.72
12.06
11.22
10.40
9.79
9.50
9.54
9.79
10.07
10.20
10.06
9.65
9.06
8.44
7.89
7.38
6.72
5.70
4.18
2.25
0.19
-1.64
-2.94
-3.63
-3.87
-3.91
-4.06
-4.56
-5.56
-7.16
-9.31
-11.74
-13.95
-15.27
-15.07
-13.04
-9.36
-4.68
0.12
4.24
7.26
9.17
10.28
10.98
11.51
11.90
12.01
11.74
11.09
10.22
9.33
8.61
8.12
7.85
7.73
7.68
7.64
7.54
7.34
7.01
6.62
6.20
5.81
5.38
4.79
3.91
2.74
1.39
0.10
-0.90
-1.51
-1.85
-2.12
-2.54
-3.24
-4.24
-5.51
-7.01
-8.75
-10.64
-12.42
-13.64
-13.76
-12.38
-9.52
-5.61
-1.42
2.29
4.99
6.55
7.13
6.98
6.35
5.35
4.09
2.73
1.52
0.71
0.45
0.68
1.19
1.74
2.13
2.30
2.28
2.14
1.89
1.56
1.17
0.76
0.37
0.02
-0.37
-0.88
-1.60
-2.48
-3.39
-4.14
-4.57
-4.66
-4.50
-4.29
-4.22
-4.46
-5.11
-6.16
-7.50
-8.89
-9.93
-10.16
-9.19
-6.88
-3.45
0.58
4.52
7.73
9.83
10.76
10.74
10.11
9.19
8.20
7.29
6.57
6.13
6.05
6.29
6.75
7.25
7.62
7.76
7.62
7.27
6.77
6.19
5.61
5.09
4.67
4.38
4.14
3.85
3.34
2.51
1.39
0.11
-1.10
-2.06
-2.67
-3.01
-3.24
-3.57
-4.15
-5.10
-6.48
-8.33
-10.56
-12.90
-14.83
-15.74
-15.14
-12.89
-9.39
-5.43
-1.89
0.61
1.90
2.25
2.14
1.99
1.97
2.07
2.19
2.25
2.21
2.11
1.95
1.75
1.52
1.30
1.17
1.23
1.48
1.88
2.30
2.58
2.59
2.31
1.79
1.19
0.67
0.34
0.17
0.02
-0.28
-0.84
-1.67
-2.65
-3.67
-4.67
-5.70
-6.82
-8.08
-9.43
-10.82
-12.20
-13.56
-14.84
-15.86
-16.23
-15.55
-13.58
-10.41
-6.52
-2.62
0.65
2.98
4.41
5.25
5.84
6.38
6.87
7.19
7.24
6.96
6.42
5.78
5.21
4.87
4.84
5.13
5.63
6.20
6.67
6.95
6.99
6.79
6.33
5.59
4.58
3.29
1.86
0.44
-0.79
-1.71
-2.30
-2.64
-2.86
-3.07
-3.35
-3.73
-4.23
-4.84
-5.53
-6.36
-7.38
-8.71
-10.40
-12.37
-14.29
-15.61
-15.78
-14.42
-11.55
-7.64
-3.43
0.32
3.10
4.72
5.30
5.09
4.38
3.39
2.28
1.21
0.34
-0.20
-0.34
-0.09
0.48
1.24
2.09
2.92
3.65
4.20
4.45
4.34
3.85
3.04
2.08
1.14
0.34
-0.29
-0.83
-1.36
-1.95
-2.59
-3.26
-3.99
-4.83
-5.86
-7.08
-8.38
-9.58
-10.54
-11.29
-11.98
-12.82
-13.81
-14.68
-14.90
-13.92
-11.46
-7.64
-2.99
1.74
5.89
9.10
11.32
12.76
13.69
14.36
14.87
15.28
15.58
15.81
15.98
16.13
16.27
16.37
16.39
16.25
15.90
15.33
14.55
13.63
12.63
11.61
10.56
9.46
8.28
6.96
5.50
3.90
2.19
0.43
-1.33
-3.01
-4.57
-5.99
-7.30
-8.50
-9.61
-10.64
-11.65
-12.73
-14.01
-15.56
-17.24
-18.72
-19.47
-19.04
-17.18
-14.07
-10.23
-6.30
-2.81
0.02
2.20
3.91
5.25
6.21
6.73
6.75
6.34
5.69
5.04
4.59
4.39
4.43
4.60
4.79
4.92
4.95
4.85
4.62
4.23
3.63
2.80
1.72
0.44
-0.94
-2.29
-3.45
-4.31
-4.80
-4.91
-4.69
-4.31
-3.98
-3.91
-4.24
-5.00
-6.09
-7.38
-8.80
-10.35
-12.07
-13.96
-15.79
-17.16
-17.60
-16.74
-14.54
-11.28
-7.50
-3.78
-0.54
2.04
3.96
5.31
6.17
6.61
6.70
6.54
6.27
6.00
5.76
5.48
5.05
4.42
3.66
2.97
2.54
2.42
2.52
2.60
2.45
1.96
1.15
0.13
-1.05
-2.42
-4.00
-5.71
-7.27
-8.33
-8.55
-7.89
-6.64
-5.37
-4.63
-4.78
-5.82
-7.43
-9.18
-10.67
-11.67
-12.11
-12.02
-11.38
-10.17
-8.33
-5.94
-3.21
-0.50
1.83
3.62
4.96
6.18
7.64
9.55
11.82
14.10
15.96
17.05
17.25
16.65
15.43
13.73
11.69
9.41
7.11
5.16
3.94
3.73
4.54
6.05
7.71
8.85
8.98
7.84
5.57
2.58
-0.57
-3.32
-5.31
-6.44
-6.93
-7.16
-7.53
-8.29
-9.45
-10.84
-12.23
-13.49
-14.66
-15.77
-16.81
-17.50
-17.46
-16.31
-13.96
-10.66
-6.92
-3.29
-0.12
2.49
4.61
6.33
7.61
8.35
8.50
8.12
7.45
6.77
6.29
6.13
6.28
6.70
7.32
8.04
8.73
9.18
9.21
8.67
7.54
5.95
4.09
2.20
0.43
-1.17
-2.66
-4.17
-5.81
-7.59
-9.38
-11.00
-12.24
-13.01
-13.38
-13.60
-14.00
-14.89
-16.45
-18.61
-21.03
-23.15
-24.40
-24.34
-22.83
-20.05
-16.42
-12.42
-8.43
-4.71
-1.39
1.42
3.64
5.22
6.18
6.64
6.74
6.63
6.36
6.00
5.60
5.29
5.19
5.35
5.75
6.23
6.62
6.81
6.81
6.67
6.41
6.00
5.31
4.26
2.82
1.12
-0.66
-2.35
-3.87
-5.28
-6.68
-8.17
-9.81
-11.61
-13.52
-15.47
-17.29
-18.67
-19.24
-18.66
-16.73
-13.47
-9.19
-4.29
0.79
5.70
10.26
14.35
17.88
20.74
22.81
23.99
24.25
23.72
22.66
21.41
20.28
19.48
19.01
18.74
18.43
17.88
17.00
15.79
14.41
13.00
11.69
10.49
9.30
7.94
6.28
4.27
2.00
-0.35
-2.61
-4.66
-6.50
-8.22
-9.98
-11.98
-14.42
-17.36
-20.67
-23.90
-26.38
-27.43
-26.53
-23.65
-19.14
-13.69
-7.99
-2.56
2.32
6.55
10.05
12.74
14.52
15.36
15.37
14.76
13.86
12.92
12.09
11.41
10.77
10.06
9.23
8.32
7.46
6.80
6.44
6.37
6.46
6.49
6.21
5.38
3.83
1.55
-1.27
-4.29
-7.07
-9.29
-10.87
-11.97
-12.90
-13.98
-15.46
-17.43
-19.87
-22.58
-25.17
-27.09
-27.69
-26.47
-23.23
-18.22
-12.05
-5.50
0.73
6.16
10.63
14.11
16.69
18.46
19.44
19.69
19.24
18.18
16.66
14.92
13.24
11.93
11.15
10.89
10.98
11.10
11.02
10.62
9.97
9.20
8.45
7.69
6.79
5.53
3.81
1.66
-0.68
-2.89
-4.73
-6.13
-7.22
-8.24
-9.42
-10.86
-12.61
-14.65
-16.97
-19.51
-22.03
-24.12
-25.18
-24.65
-22.25
-18.09
-12.65
-6.61
-0.60
4.94
9.78
13.80
16.90
19.02
20.08
20.14
19.42
18.23
16.99
16.01
15.47
15.33
15.40
15.40
15.15
14.61
13.84
13.00
12.18
11.36
10.41
9.20
7.68
5.91
4.04
2.19
0.41
-1.32
-3.03
-4.74
-6.41
-7.95
-9.32
-10.54
-11.71
-12.98
-14.50
-16.37
-18.57
-20.97
-23.28
-25.08
-25.87
-25.22
-22.90
-19.00
-13.92
-8.28
-2.73
2.22
6.31
9.51
11.93
13.65
14.74
15.21
15.09
14.49
13.58
12.58
11.71
11.05
10.60
10.29
10.01
9.70
9.35
8.96
8.54
8.07
7.46
6.64
5.58
4.31
2.93
1.52
0.15
-1.20
-2.61
-4.16
-5.89
-7.73
-9.54
-11.19
-12.57
-13.69
-14.67
-15.71
-17.07
-18.87
-21.01
-23.12
-24.55
-24.60
-22.79
-19.03
-13.74
-7.69
-1.73
3.50
7.67
10.76
12.95
14.47
15.51
16.21
16.66
16.90
16.97
16.88
16.65
16.33
15.97
15.63
15.31
14.97
14.54
13.97
13.23
12.38
11.47
10.53
9.55
8.49
7.33
6.04
4.65
3.17
1.66
0.13
-1.41
-2.97
-4.55
-6.14
-7.68
-9.08
-10.28
-11.33
-12.42
-13.83
-15.75
-18.14
-20.57
-22.33
-22.65
-21.06
-17.54
-12.61
-7.10
-1.86
2.54
5.86
8.18
9.72
10.67
11.17
11.26
11.00
10.47
9.80
9.18
8.67
8.31
7.99
7.62
7.11
6.48
5.82
5.25
4.91
4.80
4.84
4.88
4.71
4.13
3.05
1.49
-0.43
-2.49
-4.48
-6.25
-7.73
-8.96
-10.07
-11.15
-12.23
-13.28
-14.21
-14.96
-15.58
-16.22
-17.16
-18.57
-20.43
-22.34
-23.68
-23.75
-22.16
-18.93
-14.53
-9.70
-5.10
-1.15
2.09
4.78
7.07
9.02
10.55
11.52
11.85
11.63
11.04
10.31
9.63
9.12
8.77
8.59
8.53
8.56
8.63
8.67
8.59
8.29
7.73
6.90
5.84
4.67
3.52
2.52
1.74
1.19
0.77
0.34
-0.30
-1.28
-2.67
-4.38
-6.22
-7.97
-9.41
-10.44
-11.04
-11.32
-11.50
-11.87
-12.70
-14.10
-15.92
-17.72
-18.82
-18.66
-16.94
-13.82
-9.79
-5.54
-1.58
1.82
4.64
7.03
9.04
10.66
11.80
12.37
12.40
11.98
11.30
10.55
9.89
9.41
9.13
9.00
8.95
8.89
8.78
8.56
8.21
7.72
7.09
6.32
5.43
4.46
3.41
2.32
1.20
0.11
-0.95
-1.99
-3.07
-4.21
-5.40
-6.51
-7.41
-7.99
-8.29
-8.44
-8.66
-9.10
-9.84
-10.92
-12.32
-14.05
-16.03
-18.00
-19.48
-19.94
-18.93
-16.38
-12.60
-8.19
-3.79
0.11
3.32
5.82
7.63
8.76
9.21
9.06
8.50
7.82
7.23
6.83
6.53
6.20
5.76
5.22
4.69
4.32
4.16
4.21
4.36
4.48
4.40
4.00
3.22
2.12
0.89
-0.24
-1.10
-1.63
-1.97
-2.37
-3.03
-4.07
-5.41
-6.89
-8.31
-9.51
-10.40
-11.04
-11.54
-12.10
-12.93
-14.14
-15.64
-17.07
-17.91
-17.61
-15.82
-12.54
-8.17
-3.38
1.12
4.83
7.52
9.27
10.36
11.05
11.50
11.76
11.77
11.46
10.86
10.07
9.30
8.72
8.43
8.41
8.55
8.71
8.77
8.68
8.42
8.04
7.54
6.91
6.14
5.26
4.31
3.37
2.52
1.74
0.96
0.05
-1.07
-2.39
-3.78
-5.07
-6.10
-6.90
-7.63
-8.59
-9.98
-11.81
-13.74
-15.22
-15.63
-14.55
-11.92
-8.08
-3.63
0.84
4.88
8.29
11.07
13.27
14.95
16.13
16.82
17.08
16.96
16.53
15.82
14.84
13.64
12.31
11.02
9.95
9.18
8.66
8.25
7.78
7.17
6.39
5.51
4.57
3.56
2.44
1.15
-0.33
-1.98
-3.72
-5.47
-7.17
-8.78
-10.31
-11.78
-13.22
-14.64
-16.11
-17.71
-19.47
-21.42
-23.39
-25.05
-25.95
-25.63
-23.80
-20.44
-15.86
-10.54
-5.08
0.05
4.48
8.10
10.93
13.10
14.75
15.93
16.63
16.76
16.31
15.40
14.28
13.27
12.60
12.30
12.25
12.20
11.94
11.38
10.52
9.45
8.28
7.07
5.86
4.64
3.36
1.98
0.45
-1.20
-2.93
-4.64
-6.24
-7.67
-8.91
-9.99
-10.93
-11.86
-12.89
-14.21
-15.97
-18.19
-20.64
-22.86
-24.19
-24.06
-22.12
-18.48
-13.57
-8.07
-2.64
2.26
6.38
9.69
12.21
13.95
14.94
15.23
14.96
14.38
13.73
13.19
12.81
12.52
12.24
11.94
11.68
11.56
11.61
11.67
11.47
10.72
9.35
7.52
5.61
4.00
2.88
2.14
1.49
0.65
-0.52
-1.97
-3.50
-4.94
-6.20
-7.30
-8.33
-9.41
-10.68
-12.26
-14.25
-16.61
-19.14
-21.39
-22.79
-22.81
-21.18
-17.98
-13.63
-8.74
-3.86
0.59
4.40
7.53
9.96
11.70
12.81
13.35
13.45
13.26
12.88
12.32
11.59
10.72
9.81
9.03
8.49
8.23
8.15
8.07
7.83
7.34
6.63
5.75
4.78
3.73
2.59
1.35
0.05
-1.23
-2.40
-3.46
-4.43
-5.45
-6.60
-7.91
-9.30
-10.61
-11.73
-12.69
-13.67
-14.91
-16.56
-18.50
-20.32
-21.41
-21.22
-19.45
-16.19
-11.86
-7.09
-2.47
1.58
4.85
7.32
9.10
10.33
11.13
11.58
11.73
11.60
11.23
10.69
10.12
9.61
9.26
9.06
8.97
8.90
8.77
8.53
8.19
7.79
7.36
6.89
6.35
5.67
4.80
3.71
2.38
0.84
-0.81
-2.47
-4.00
-5.33
-6.42
-7.34
-8.22
-9.21
-10.44
-11.96
-13.70
-15.45
-16.83
-17.42
-16.81
-14.75
-11.27
-6.68
-1.52
3.67
8.38
12.32
15.39
17.60
19.01
19.70
19.73
19.18
18.14
16.76
15.22
13.70
12.39
11.40
10.78
10.49
10.41
10.36
10.18
9.73
8.95
7.87
6.55
5.10
3.62
2.17
0.77
-0.57
-1.91
-3.28
-4.73
-6.22
-7.72
-9.12
-10.37
-11.47
-12.48
-13.52
-14.73
-16.23
-18.07
-20.16
-22.26
-23.99
-24.89
-24.53
-22.68
-19.40
-15.02
-10.04
-5.00
-0.32
3.77
7.15
9.82
11.78
13.06
13.70
13.74
13.30
12.57
11.74
11.04
10.58
10.34
10.17
9.90
9.42
8.74
8.01
7.36
6.85
6.32
5.58
4.51
3.16
1.77
0.61
-0.18
-0.66
-1.10
-1.80
-2.94
-4.49
-6.25
-7.93
-9.32
-10.34
-11.05
-11.62
-12.23
-13.06
-14.26
-15.88
-17.82
-19.81
-21.39
-22.01
-21.25
-18.94
-15.30
-10.83
-6.17
-1.81
1.97
5.13
7.77
9.99
11.81
13.19
14.04
14.34
14.12
13.48
12.62
11.71
10.92
10.33
9.94
9.68
9.45
9.24
9.03
8.88
8.77
8.62
8.32
7.75
6.87
5.73
4.47
3.21
2.05
0.99
-0.03
-1.10
-2.28
-3.55
-4.80
-5.90
-6.74
-7.31
-7.73
-8.22
-9.03
-10.35
-12.24
-14.58
-17.06
-19.21
-20.52
-20.57
-19.15
-16.38
-12.64
-8.48
-4.42
-0.80
2.26
4.81
6.99
8.86
10.38
11.40
11.83
11.63
10.97
10.08
9.24
8.62
8.24
8.02
7.81
7.54
7.22
6.91
6.67
6.44
6.10
5.48
4.51
3.19
1.68
0.14
-1.25
-2.40
-3.32
-4.10
-4.86
-5.71
-6.69
-7.80
-8.97
-10.12
-11.21
-12.22
-13.22
-14.28
-15.50
-16.92
-18.45
-19.89
-20.87
-21.00
-19.92
-17.50
-13.87
-9.48
-4.90
-0.66
2.89
5.66
7.78
9.44
10.79
11.84
12.48
12.56
12.00
10.90
9.47
8.10
7.13
6.78
7.00
7.56
8.12
8.37
8.21
7.71
7.05
6.38
5.75
5.09
4.29
3.24
1.92
0.36
-1.38
-3.22
-5.08
-6.88
-8.55
-10.04
-11.33
-12.43
-13.40
-14.39
-15.55
-17.03
-18.79
-20.56
-21.85
-22.07
-20.77
-17.81
-13.51
-8.51
-3.50
0.95
4.61
7.54
9.92
11.92
13.54
14.66
15.14
14.96
14.26
13.34
12.49
11.92
11.68
11.70
11.83
11.97
12.05
12.00
11.79
11.39
10.81
10.10
9.32
8.50
7.56
6.39
4.90
3.09
1.06
-1.03
-3.07
-4.99
-6.79
-8.45
-9.99
-11.44
-12.93
-14.63
-16.70
-19.06
-21.37
-23.07
-23.55
-22.38
-19.50
-15.19
-9.97
-4.40
1.02
5.95
10.14
13.45
15.82
17.26
17.82
17.62
16.84
15.66
14.32
13.02
11.95
11.18
10.70
10.38
10.03
9.48
8.62
7.49
6.20
4.92
3.78
2.80
1.85
0.73
-0.74
-2.68
-5.00
-7.53
-10.02
-12.28
-14.20
-15.82
-17.27
-18.70
-20.29
-22.15
-24.35
-26.77
-29.15
-31.01
-31.79
-30.99
-28.32
-23.84
-17.94
-11.21
-4.28
2.28
8.11
12.98
16.75
19.34
20.77
21.14
20.64
19.61
18.36
17.17
16.21
15.54
15.12
14.87
14.63
14.29
13.76
13.05
12.18
11.26
10.33
9.34
8.21
6.77
4.95
2.77
0.35
-2.12
-4.48
-6.65
-8.62
-10.45
-12.20
-13.96
-15.81
-17.85
-20.16
-22.68
-25.19
-27.22
-28.17
-27.47
-24.79
-20.16
-14.02
-7.09
-0.15
6.14
11.41
15.56
18.61
20.67
21.79
22.01
21.41
20.14
18.46
16.67
15.06
13.81
13.00
12.59
12.46
12.44
12.34
12.03
11.45
10.60
9.56
8.37
7.04
5.51
3.73
1.70
-0.54
-2.89
-5.21
-7.42
-9.47
-11.37
-13.10
-14.69
-16.20
-17.76
-19.52
-21.64
-24.05
-26.43
-28.16
-28.53
-26.94
-23.23
-17.69
-11.02
-4.08
2.39
7.95
12.40
15.68
17.80
18.69
18.42
17.14
15.24
13.21
11.54
10.55
10.29
10.59
11.14
11.60
11.73
11.43
10.74
9.83
8.88
8.05
7.34
6.63
5.70
4.33
2.41
-0.01
-2.69
-5.33
-7.64
-9.44
-10.77
-11.88
-13.13
-14.86
-17.26
-20.19
-23.19
-25.60
-26.71
-25.99
-23.25
-18.61
-12.49
-5.51
1.64
8.28
13.88
18.18
21.16
23.00
23.94
24.11
23.56
22.29
20.38
18.13
15.98
14.34
13.43
13.16
13.19
13.14
12.71
11.88
10.80
9.71
8.77
7.95
7.00
5.64
3.63
0.99
-2.04
-5.07
-7.73
-9.82
-11.39
-12.67
-14.00
-15.68
-17.88
-20.56
-23.44
-25.96
-27.41
-27.08
-24.50
-19.66
-13.00
-5.32
2.52
9.83
16.19
21.39
25.37
28.11
29.58
29.84
29.04
27.50
25.57
23.63
21.95
20.64
19.70
18.98
18.29
17.47
16.45
15.24
13.93
12.61
11.25
9.75
7.94
5.69
2.98
-0.08
-3.27
-6.37
-9.21
-11.71
-13.89
-15.86
-17.72
-19.64
-21.77
-24.22
-26.99
-29.90
-32.51
-34.19
-34.27
-32.25
-28.04
-21.99
-14.81
-7.34
-0.34
5.75
10.76
14.73
17.79
19.98
21.30
21.72
21.28
20.19
18.74
17.29
16.10
15.26
14.71
14.22
13.60
12.75
11.70
10.55
9.40
8.26
7.05
5.63
3.90
1.84
-0.49
-2.94
-5.33
-7.48
-9.29
-10.73
-11.94
-13.12
-14.48
-16.15
-18.19
-20.56
-23.18
-25.90
-28.44
-30.35
-31.08
-30.09
-27.11
-22.31
-16.22
-9.60
-3.17
2.61
7.54
11.61
14.88
17.35
19.01
19.85
19.91
19.32
18.25
16.92
15.54
14.30
13.32
12.64
12.22
11.92
11.64
11.27
10.77
10.09
9.22
8.11
6.75
5.18
3.48
1.74
0.03
-1.64
-3.30
-5.00
-6.71
-8.36
-9.80
-10.93
-11.79
-12.58
-13.62
-15.24
-17.55
-20.30
-22.88
-24.44
-24.21
-21.80
-17.34
-11.51
-5.25
0.52
5.22
8.74
11.38
13.77
16.63
20.54
25.75
32.04
38.68
44.65
48.96
51.06
51.07
49.70
48.01
46.90
46.78
47.44
48.14
47.97
46.07
41.95
35.53
27.07
17.03
5.86
-6.09
-18.59
-31.45
-44.36
-56.76
-67.94
-77.04
-83.29
-86.12
-85.28
-80.91
-73.61
-64.44
-54.75
-45.90
-38.90
-34.13
-31.24
-29.40
-27.65
-25.23
-21.75
-17.22
-11.85
-6.03
-0.26
4.82
8.52
10.23
9.69
7.15
3.41
-0.32
-2.76
-2.95
-0.56
4.00
9.68
15.11
19.09
20.92
20.65
18.93
16.66
14.61
13.10
11.99
10.87
9.40
7.56
5.60
3.92
2.77
2.11
1.66
1.11
0.29
-0.66
-1.48
-1.94
-2.09
-2.25
-2.89
-4.40
-6.92
-10.18
-13.63
-16.53
-18.25
-18.34
-16.66
-13.39
-8.97
-3.97
0.99
5.37
8.77
11.01
12.15
12.43
12.19
11.73
11.24
10.73
10.14
9.45
8.75
8.20
7.99
8.15
8.55
8.99
9.28
9.33
9.21
9.04
8.90
8.77
8.56
8.13
7.37
6.20
4.65
2.82
0.91
-0.88
-2.35
-3.43
-4.16
-4.72
-5.29
-6.05
-7.13
-8.60
-10.41
-12.36
-14.12
-15.23
-15.27
-14.00
-11.49
-8.08
-4.32
-0.71
2.45
5.06
7.17
8.86
10.15
11.01
11.36
11.24
10.75
10.03
9.26
8.54
7.88
7.25
6.59
5.86
5.05
4.21
3.42
2.74
2.21
1.80
1.47
1.13
0.69
0.07
-0.81
-1.95
-3.32
-4.79
-6.17
-7.33
-8.21
-8.89
-9.54
-10.36
-11.43
-12.79
-14.39
-16.21
-18.19
-20.19
-21.92
-22.91
-22.67
-20.88
-17.59
-13.21
-8.41
-3.83
0.08
3.19
5.57
7.40
8.79
9.78
10.35
10.52
10.36
10.00
9.57
9.14
8.74
8.40
8.12
7.96
7.92
7.96
8.01
7.98
7.79
7.43
6.91
6.20
5.27
4.14
2.87
1.62
0.53
-0.35
-1.11
-1.93
-3.04
-4.52
-6.27
-8.08
-9.68
-10.91
-11.80
-12.53
-13.39
-14.61
-16.27
-18.18
-19.93
-20.98
-20.82
-19.16
-16.05
-11.83
-7.07
-2.35
1.86
5.29
7.88
9.68
10.82
11.42
11.60
11.49
11.22
10.91
10.63
10.38
10.11
9.76
9.32
8.84
8.40
8.07
7.82
7.56
7.16
6.54
5.72
4.78
3.80
2.80
1.74
0.54
-0.83
-2.32
-3.83
-5.22
-6.44
-7.48
-8.38
-9.18
-9.94
-10.75
-11.72
-12.99
-14.53
-16.14
-17.38
-17.69
-16.63
-14.03
-10.15
-5.55
-0.88
3.29
6.63
9.08
10.77
11.84
12.43
12.58
12.33
11.73
10.89
9.98
9.19
8.69
8.56
8.73
9.05
9.32
9.39
9.17
8.67
7.97
7.14
6.25
5.36
4.46
3.52
2.50
1.33
-0.01
-1.50
-3.05
-4.55
-5.90
-7.05
-8.04
-8.93
-9.84
-10.88
-12.11
-13.60
-15.34
-17.18
-18.84
-19.90
-19.93
-18.63
-15.95
-12.12
-7.59
-2.91
1.44
5.15
8.12
10.38
12.01
13.07
13.61
13.64
13.24
12.55
11.76
11.08
10.65
10.47
10.47
10.50
10.41
10.14
9.68
9.08
8.41
7.71
6.98
6.19
5.27
4.19
2.93
1.56
0.14
-1.21
-2.47
-3.61
-4.68
-5.71
-6.70
-7.60
-8.38
-9.08
-9.83
-10.82
-12.17
-13.83
-15.48
-16.58
-16.57
-15.03
-11.88
-7.43
-2.27
2.93
7.56
11.27
13.93
15.62
16.53
16.87
16.83
16.56
16.16
15.70
15.19
14.62
13.94
13.14
12.24
11.31
10.42
9.63
8.93
8.28
7.62
6.93
6.26
5.58
4.88
4.04
2.94
1.47
-0.35
-2.40
-4.50
-6.46
-8.18
-9.65
-10.93
-12.08
-13.11
-14.04
-14.93
-15.92
-17.20
-18.86
-20.78
-22.51
-23.43
-22.91
-20.64
-16.76
-11.86
-6.74
-2.11
1.61
4.41
6.50
8.18
9.60
10.78
11.58
11.90
11.74
11.27
10.68
10.15
9.72
9.32
8.83
8.20
7.50
6.89
6.49
6.36
6.41
6.43
6.22
5.64
4.69
3.48
2.16
0.87
-0.30
-1.30
-2.16
-2.91
-3.62
-4.36
-5.26
-6.42
-7.88
-9.57
-11.36
-13.14
-14.84
-16.50
-18.14
-19.59
-20.46
-20.30
-18.74
-15.78
-11.84
-7.58
-3.66
-0.43
2.07
4.05
5.70
7.08
8.14
8.79
9.05
9.04
8.94
8.92
9.07
9.39
9.87
10.44
11.00
11.44
11.61
11.40
10.83
9.98
9.00
8.01
7.05
6.06
5.01
3.86
2.68
1.56
0.52
-0.46
-1.49
-2.68
-4.12
-5.76
-7.47
-9.10
-10.55
-11.84
-13.12
-14.55
-16.22
-18.04
-19.66
-20.60
-20.39
-18.71
-15.61
-11.43
-6.77
-2.23
1.71
4.81
7.05
8.52
9.39
9.79
9.85
9.71
9.52
9.45
9.62
10.08
10.78
11.62
12.39
12.96
13.17
12.96
12.32
11.36
10.20
9.03
7.97
7.08
6.31
5.54
4.62
3.48
2.12
0.66
-0.75
-2.02
-3.12
-4.11
-5.03
-5.94
-6.88
-7.92
-9.21
-10.87
-12.95
-15.28
-17.42
-18.79
-18.82
-17.24
-14.22
-10.26
-6.08
-2.33
0.64
2.78
4.30
5.49
6.55
7.51
8.30
8.75
8.74
8.26
7.38
6.30
5.21
4.32
3.74
3.49
3.51
3.66
3.81
3.83
3.64
3.26
2.74
2.17
1.60
1.05
0.47
-0.20
-1.01
-1.97
-3.02
-4.12
-5.19
-6.22
-7.20
-8.16
-9.17
-10.26
-11.51
-12.98
-14.67
-16.45
-18.06
-19.12
-19.26
-18.21
-15.96
-12.74
-8.95
-5.04
-1.36
1.87
4.60
6.86
8.67
9.98
10.71
10.79
10.24
9.29
8.22
7.40
7.05
7.21
7.73
8.36
8.86
9.14
9.22
9.17
9.04
8.80
8.36
7.65
6.67
5.49
4.20
2.89
1.59
0.31
-0.95
-2.22
-3.48
-4.75
-5.99
-7.19
-8.32
-9.40
-10.52
-11.81
-13.40
-15.28
-17.25
-18.88
-19.69
-19.28
-17.54
-14.65
-11.04
-7.23
-3.68
-0.70
1.58
3.17
4.23
4.94
5.51
6.05
6.59
7.05
7.31
7.34
7.22
7.09
7.10
7.26
7.41
7.31
6.83
5.97
4.96
4.09
3.54
3.31
3.19
2.94
2.36
1.47
0.39
-0.70
-1.71
-2.67
-3.67
-4.78
-5.99
-7.19
-8.27
-9.24
-10.21
-11.29
-12.51
-13.69
-14.42
-14.20
-12.66
-9.68
-5.52
-0.67
4.23
8.64
12.20
14.79
16.47
17.36
17.61
17.36
16.76
15.95
15.05
14.17
13.39
12.73
12.19
11.72
11.26
10.74
10.11
9.30
8.33
7.26
6.15
5.06
3.98
2.83
1.49
-0.11
-1.94
-3.88
-5.78
-7.50
-8.96
-10.23
-11.39
-12.54
-13.74
-15.00
-16.30
-17.69
-19.19
-20.74
-22.11
-22.88
-22.57
-20.82
-17.58
-13.20
-8.28
-3.45
0.80
4.26
6.95
9.01
10.53
11.54
12.04
12.01
11.55
10.77
9.86
8.99
8.28
7.84
7.66
7.65
7.67
7.56
7.25
6.80
6.32
5.91
5.59
5.21
4.59
3.57
2.12
0.35
-1.51
-3.25
-4.74
-5.94
-6.93
-7.80
-8.67
-9.66
-10.88
-12.44
-14.33
-16.47
-18.59
-20.25
-20.98
-20.34
-18.16
-14.54
-9.90
-4.83
0.11
4.51
8.17
11.06
13.21
14.67
15.43
15.47
14.85
13.75
12.44
11.26
10.45
10.10
10.15
10.43
10.73
10.92
10.93
10.76
10.44
9.99
9.38
8.61
7.67
6.57
5.30
3.86
2.29
0.67
-0.90
-2.34
-3.61
-4.72
-5.72
-6.68
-7.65
-8.68
-9.89
-11.36
-13.13
-15.02
-16.63
-17.43
-17.00
-15.13
-11.98
-8.02
-3.76
0.29
3.83
6.67
8.70
9.88
10.22
9.89
9.15
8.35
7.73
7.38
7.23
7.17
7.12
7.06
7.02
6.96
6.78
6.36
5.69
4.87
4.13
3.67
3.55
3.61
3.55
3.07
2.03
0.54
-1.18
-2.85
-4.27
-5.36
-6.17
-6.81
-7.45
-8.28
-9.48
-11.13
-13.06
-14.90
-16.08
-16.04
-14.43
-11.29
-7.03
-2.29
2.26
6.14
9.10
11.16
12.47
13.29
13.83
14.26
14.60
14.78
14.71
14.34
13.76
13.14
12.69
12.50
12.52
12.58
12.45
12.02
11.27
10.31
9.25
8.14
6.96
5.62
4.08
2.36
0.57
-1.14
-2.66
-3.91
-4.99
-6.02
-7.18
-8.58
-10.22
-12.05
-13.97
-15.94
-17.87
-19.63
-20.95
-21.44
-20.70
-18.51
-14.96
-10.49
-5.73
-1.28
2.45
5.36
7.55
9.16
10.28
10.91
11.05
10.75
10.16
9.49
8.90
8.46
8.11
7.77
7.35
6.82
6.21
5.58
4.96
4.35
3.76
3.18
2.57
1.90
1.12
0.18
-0.96
-2.27
-3.70
-5.16
-6.58
-7.92
-9.15
-10.27
-11.27
-12.17
-13.03
-13.99
-15.18
-16.64
-18.22
-19.56
-20.18
-19.64
-17.71
-14.55
-10.58
-6.37
-2.42
1.00
3.83
6.17
8.11
9.69
10.85
11.51
11.67
11.44
10.97
10.41
9.85
9.32
8.81
8.35
7.98
7.73
7.59
7.50
7.34
7.02
6.51
5.85
5.08
4.22
3.25
2.08
0.69
-0.86
-2.48
-4.02
-5.36
-6.46
-7.34
-8.05
-8.63
-9.17
-9.75
-10.50
-11.54
-12.92
-14.51
-15.99
-16.88
-16.70
-15.16
-12.27
-8.38
-4.03
0.17
3.78
6.64
8.79
10.41
11.62
12.48
12.90
12.84
12.31
11.41
10.33
9.27
8.38
7.74
7.37
7.26
7.36
7.55
7.72
7.73
7.48
6.95
6.21
5.34
4.42
3.48
2.53
1.53
0.48
-0.64
-1.84
-3.13
-4.51
-5.96
-7.41
-8.79
-10.09
-11.31
-12.56
-13.95
-15.52
-17.17
-18.60
-19.42
-19.20
-17.68
-14.86
-11.08
-6.88
-2.87
0.50
3.03
4.74
5.83
6.52
6.98
7.31
7.55
7.70
7.73
7.65
7.46
7.24
7.06
6.99
7.00
6.99
6.84
6.47
5.95
5.42
5.04
4.85
4.74
4.49
3.93
2.98
1.71
0.29
-1.15
-2.53
-3.84
-5.11
-6.36
-7.57
-8.72
-9.80
-10.86
-12.03
-13.39
-14.93
-16.47
-17.61
-17.88
-16.89
-14.54
-11.07
-7.00
-2.94
0.65
3.55
5.80
7.55
8.97
10.11
10.92
11.38
11.46
11.25
10.85
10.41
10.05
9.81
9.67
9.55
9.37
9.04
8.57
7.99
7.37
6.78
6.22
5.66
5.01
4.17
3.06
1.66
0.02
-1.75
-3.54
-5.21
-6.69
-7.95
-9.02
-9.99
-10.94
-12.02
-13.34
-14.99
-16.93
-18.92
-20.51
-21.17
-20.46
-18.18
-14.54
-10.05
-5.40
-1.14
2.38
5.16
7.39
9.28
10.95
12.34
13.29
13.63
13.30
12.40
11.20
10.03
9.18
8.78
8.74
8.85
8.85
8.57
8.02
7.30
6.62
6.08
5.67
5.29
4.81
4.15
3.28
2.23
1.01
-0.37
-1.93
-3.58
-5.21
-6.65
-7.78
-8.60
-9.26
-10.01
-11.14
-12.79
-14.87
-17.01
-18.62
-19.06
-17.88
-14.97
-10.58
-5.30
0.20
5.27
9.48
12.63
14.76
16.05
16.73
17.02
17.07
16.94
16.65
16.20
15.61
14.95
14.31
13.77
13.32
12.89
12.36
11.63
10.67
9.54
8.33
7.15
6.01
4.87
3.65
2.25
0.68
-1.01
-2.68
-4.22
-5.57
-6.80
-8.03
-9.36
-10.86
-12.52
-14.30
-16.14
-18.03
-19.90
-21.63
-22.92
-23.37
-22.62
-20.45
-16.95
-12.51
-7.68
-2.98
1.23
4.81
7.80
10.24
12.16
13.51
14.22
14.26
13.72
12.81
11.81
10.98
10.46
10.21
10.08
9.82
9.26
8.37
7.26
6.16
5.26
4.66
4.29
3.97
3.50
2.74
1.65
0.26
-1.30
-2.91
-4.47
-5.90
-7.19
-8.33
-9.36
-10.35
-11.40
-12.63
-14.16
-15.99
-17.95
-19.67
-20.67
-20.46
-18.81
-15.77
-11.71
-7.18
-2.66
1.50
5.12
8.15
10.56
12.30
13.36
13.80
13.72
13.27
12.57
11.70
10.73
9.78
8.97
8.42
8.16
8.11
8.08
7.90
7.47
6.83
6.06
5.25
4.45
3.62
2.73
1.77
0.77
-0.25
-1.29
-2.36
-3.49
-4.68
-5.87
-7.01
-8.06
-9.08
-10.22
-11.63
-13.35
-15.22
-16.85
-17.76
-17.50
-15.88
-12.99
-9.21
-5.04
-0.97
2.68
5.77
8.26
10.21
11.67
12.63
13.03
12.82
12.05
10.87
9.56
8.43
7.72
7.48
7.59
7.86
8.07
8.11
7.96
7.64
7.19
6.62
5.90
5.04
4.03
2.90
1.66
0.34
-1.03
-2.42
-3.77
-5.03
-6.18
-7.19
-8.10
-8.97
-9.90
-11.01
-12.39
-13.99
-15.60
-16.86
-17.35
-16.69
-14.72
-11.58
-7.67
-3.50
0.40
3.68
6.16
7.83
8.81
9.21
9.19
8.88
8.36
7.76
7.17
6.64
6.19
5.80
5.42
5.05
4.71
4.41
4.17
3.97
3.73
3.38
2.86
2.13
1.18
0.03
-1.26
-2.63
-3.98
-5.26
-6.42
-7.46
-8.44
-9.40
-10.40
-11.50
-12.73
-14.10
-15.53
-16.77
-17.42
-17.04
-15.36
-12.39
-8.51
-4.31
-0.35
3.00
5.68
7.83
9.63
11.16
12.32
12.97
12.97
12.38
11.39
10.27
9.33
8.75
8.56
8.67
8.90
9.05
9.00
8.72
8.29
7.84
7.48
7.22
6.91
6.36
5.37
3.87
1.97
-0.05
-1.92
-3.44
-4.62
-5.63
-6.73
-8.16
-9.98
-12.10
-14.23
-16.04
-17.17
-17.33
-16.34
-14.15
-10.88
-6.84
-2.46
1.79
5.49
8.42
10.56
12.01
12.86
13.18
12.95
12.17
10.96
9.55
8.30
7.46
7.11
7.07
7.03
6.70
5.99
5.04
4.12
3.44
3.04
2.77
2.33
1.47
0.09
-1.72
-3.75
-5.75
-7.56
-9.16
-10.58
-11.93
-13.26
-14.63
-16.10
-17.79
-19.77
-21.98
-24.16
-25.83
-26.39
-25.39
-22.68
-18.47
-13.28
-7.72
-2.34
2.50
6.59
9.82
12.13
13.57
14.26
14.40
14.21
13.84
13.38
12.86
12.34
11.93
11.70
11.62
11.56
11.32
10.80
10.00
9.11
8.29
7.65
7.07
6.30
5.09
3.32
1.04
-1.51
-4.06
-6.39
-8.34
-9.92
-11.17
-12.23
-13.22
-14.34
-15.73
-17.52
-19.68
-21.93
-23.80
-24.68
-24.02
-21.56
-17.42
-12.10
-6.27
-0.61
4.41
8.51
11.61
13.73
14.92
15.27
14.97
14.26
13.44
12.74
12.29
12.09
12.05
12.05
11.97
11.78
11.45
10.98
10.39
9.72
8.97
8.16
7.27
6.23
5.00
3.58
1.99
0.33
-1.31
-2.89
-4.38
-5.80
-7.17
-8.50
-9.81
-11.17
-12.65
-14.31
-16.07
-17.71
-18.85
-19.05
-17.99
-15.53
-11.84
-7.29
-2.40
2.32
6.45
9.78
12.24
13.88
14.81
15.13
14.95
14.35
13.50
12.56
11.72
11.13
10.88
10.93
11.16
11.38
11.43
11.20
10.71
10.04
9.29
8.56
7.86
7.13
6.29
5.24
3.98
2.56
1.08
-0.35
-1.63
-2.75
-3.77
-4.79
-5.91
-7.17
-8.62
-10.24
-11.99
-13.72
-15.16
-15.88
-15.42
-13.44
-9.90
-5.17
0.13
5.24
9.61
12.93
15.23
16.71
17.64
18.18
18.38
18.24
17.74
16.92
15.88
14.75
13.63
12.57
11.52
10.44
9.30
8.17
7.15
6.37
5.81
5.39
4.93
4.26
3.31
2.04
0.50
-1.28
-3.27
-5.42
-7.66
-9.84
-11.81
-13.46
-14.76
-15.74
-16.50
-17.21
-18.05
-19.16
-20.60
-22.19
-23.55
-24.14
-23.54
-21.54
-18.29
-14.16
-9.59
-4.94
-0.45
3.75
7.50
10.64
12.98
14.45
15.11
15.16
14.82
14.27
13.65
13.00
12.36
11.71
11.10
10.54
10.07
9.74
9.54
9.42
9.25
8.87
8.14
7.00
5.50
3.78
2.03
0.44
-0.92
-2.07
-3.14
-4.29
-5.63
-7.15
-8.69
-10.06
-11.09
-11.80
-12.33
-12.96
-13.96
-15.50
-17.50
-19.69
-21.57
-22.58
-22.22
-20.25
-16.78
-12.23
-7.24
-2.45
1.68
4.97
7.48
9.38
10.83
11.92
12.69
13.13
13.23
13.02
12.56
11.94
11.29
10.73
10.36
10.20
10.16
10.09
9.84
9.31
8.49
7.42
6.19
4.86
3.51
2.16
0.84
-0.45
-1.74
-3.04
-4.36
-5.70
-7.08
-8.46
-9.84
-11.14
-12.29
-13.28
-14.15
-15.06
-16.13
-17.35
-18.49
-19.10
-18.68
-16.91
-13.80
-9.69
-5.12
-0.63
3.38
6.69
9.22
10.99
12.03
12.38
12.17
11.55
10.70
9.81
9.02
8.42
8.01
7.78
7.67
7.59
7.49
7.29
6.97
6.56
6.11
5.71
5.37
5.05
4.61
3.89
2.74
1.16
-0.74
-2.77
-4.72
-6.44
-7.86
-8.96
-9.78
-10.39
-10.95
-11.65
-12.68
-14.10
-15.74
-17.15
-17.76
-17.07
-14.84
-11.18
-6.56
-1.59
3.12
7.16
10.33
12.67
14.33
15.46
16.16
16.44
16.26
15.62
14.59
13.36
12.19
11.28
10.74
10.50
10.38
10.18
9.79
9.17
8.44
7.78
7.28
6.93
6.56
5.92
4.79
3.08
0.94
-1.37
-3.57
-5.49
-7.07
-8.38
-9.57
-10.76
-12.10
-13.70
-15.64
-17.88
-20.22
-22.21
-23.32
-23.05
-21.12
-17.66
-13.13
-8.19
-3.49
0.55
3.75
6.18
8.01
9.34
10.20
10.55
10.38
9.80
8.97
8.10
7.36
6.81
6.44
6.19
6.00
5.81
5.55
5.18
4.67
4.03
3.30
2.53
1.74
0.93
0.05
-0.93
-2.02
-3.20
-4.45
-5.79
-7.26
-8.89
-10.67
-12.54
-14.39
-16.21
-18.01
-19.84
-21.63
-23.16
-24.03
-23.75
-21.99
-18.75
-14.36
-9.43
-4.59
-0.29
3.32
6.29
8.73
10.72
12.19
13.08
13.36
13.13
12.60
12.01
11.48
11.08
10.74
10.43
10.08
9.69
9.25
8.75
8.17
7.50
6.76
5.99
5.23
4.45
3.60
2.58
1.36
-0.09
-1.68
-3.33
-4.93
-6.43
-7.81
-9.07
-10.30
-11.57
-13.02
-14.75
-16.76
-18.84
-20.56
-21.39
-20.86
-18.77
-15.23
-10.70
-5.77
-0.98
3.28
6.81
9.54
11.47
12.65
13.14
13.04
12.52
11.76
10.95
10.25
9.75
9.47
9.35
9.27
9.12
8.83
8.41
7.92
7.45
7.03
6.64
6.20
5.59
4.73
3.56
2.10
0.43
-1.34
-3.09
-4.73
-6.23
-7.58
-8.83
-10.00
-11.11
-12.22
-13.40
-14.76
-16.29
-17.84
-19.04
-19.39
-18.44
-15.98
-12.18
-7.55
-2.73
1.69
5.37
8.21
10.33
11.85
12.89
13.45
13.51
13.11
12.32
11.31
10.27
9.39
8.76
8.37
8.12
7.87
7.45
6.82
6.03
5.23
4.61
4.19
3.90
3.48
2.71
1.49
-0.09
-1.83
-3.53
-5.11
-6.61
-8.08
-9.56
-11.04
-12.49
-13.95
-15.49
-17.06
-18.43
-19.17
-18.73
-16.77
-13.32
-8.75
-3.71
1.18
5.47
8.95
11.63
13.56
14.77
15.27
15.07
14.27
13.06
11.73
10.57
9.76
9.36
9.24
9.17
8.95
8.44
7.67
6.78
5.95
5.26
4.65
3.94
2.92
1.47
-0.37
-2.41
-4.39
-6.08
-7.42
-8.47
-9.39
-10.37
-11.55
-13.03
-14.85
-16.94
-19.08
-20.86
-21.74
-21.24
-19.15
-15.58
-10.97
-5.93
-0.99
3.48
7.33
10.53
13.08
14.93
16.02
16.29
15.83
14.82
13.55
12.32
11.43
10.99
10.97
11.16
11.29
11.13
10.60
9.73
8.68
7.58
6.51
5.44
4.31
3.06
1.66
0.12
-1.49
-3.15
-4.83
-6.50
-8.14
-9.71
-11.21
-12.72
-14.34
-16.16
-18.17
-20.18
-21.80
-22.51
-21.90
-19.76
-16.20
-11.61
-6.48
-1.30
3.59
8.00
11.84
15.01
17.40
18.85
19.25
18.66
17.29
15.52
13.81
12.55
11.94
11.91
12.15
12.26
11.94
11.06
9.79
8.44
7.31
6.57
6.14
5.77
5.16
4.09
2.54
0.67
-1.30
-3.14
-4.76
-6.17
-7.47
-8.79
-10.23
-11.86
-13.75
-15.88
-18.15
-20.28
-21.81
-22.24
-21.13
-18.29
-13.92
-8.50
-2.71
2.84
7.78
11.92
15.28
17.88
19.73
20.83
21.16
20.81
19.91
18.67
17.27
15.90
14.69
13.72
12.99
12.46
12.01
11.50
10.82
9.91
8.79
7.51
6.15
4.73
3.22
1.60
-0.17
-2.11
-4.12
-6.07
-7.82
-9.25
-10.39
-11.34
-12.28
-13.40
-14.80
-16.52
-18.52
-20.73
-22.99
-24.97
-26.25
-26.30
-24.73
-21.42
-16.63
-10.96
-5.13
0.21
4.72
8.28
11.02
13.08
14.54
15.44
15.74
15.46
14.73
13.74
12.71
11.83
11.22
10.85
10.66
10.53
10.39
10.17
9.84
9.37
8.73
7.89
6.88
5.76
4.63
3.56
2.54
1.48
0.26
-1.20
-2.89
-4.71
-6.49
-8.10
-9.48
-10.60
-11.55
-12.44
-13.47
-14.83
-16.60
-18.68
-20.72
-22.16
-22.46
-21.22
-18.38
-14.21
-9.24
-4.10
0.69
4.77
8.04
10.54
12.42
13.79
14.70
15.13
15.11
14.73
14.15
13.57
13.12
12.79
12.48
12.04
11.41
10.66
9.90
9.26
8.76
8.32
7.80
7.10
6.18
5.13
4.04
2.99
2.01
1.04
0.01
-1.15
-2.45
-3.87
-5.34
-6.76
-8.04
-9.08
-9.88
-10.53
-11.23
-12.28
-13.90
-16.10
-18.62
-20.93
-22.34
-22.27
-20.39
-16.75
-11.81
-6.24
-0.78
3.96
7.66
10.20
11.68
12.31
12.28
11.78
11.03
10.21
9.50
8.98
8.64
8.39
8.12
7.83
7.59
7.53
7.72
8.09
8.44
8.54
8.23
7.46
6.35
5.04
3.67
2.30
0.96
-0.35
-1.64
-2.95
-4.28
-5.66
-7.08
-8.44
-9.64
-10.57
-11.22
-11.70
-12.24
-13.09
-14.42
-16.15
-17.99
-19.42
-19.94
-19.14
-16.93
-13.47
-9.17
-4.53
-0.01
4.05
7.39
9.90
11.55
12.43
12.69
12.52
12.06
11.42
10.68
9.93
9.30
8.94
8.93
9.22
9.65
9.99
10.03
9.67
8.94
7.97
6.88
5.77
4.69
3.62
2.53
1.40
0.20
-1.06
-2.36
-3.68
-4.99
-6.25
-7.49
-8.70
-9.92
-11.11
-12.24
-13.33
-14.46
-15.77
-17.33
-19.10
-20.76
-21.78
-21.60
-19.87
-16.57
-12.11
-7.15
-2.39
1.68
4.84
7.15
8.80
9.98
10.81
11.29
11.43
11.26
10.90
10.52
10.22
10.04
9.91
9.67
9.24
8.63
7.94
7.33
6.89
6.60
6.36
6.06
5.63
5.07
4.39
3.58
2.57
1.27
-0.34
-2.21
-4.20
-6.14
-7.87
-9.31
-10.43
-11.30
-12.01
-12.73
-13.64
-14.87
-16.49
-18.34
-20.12
-21.37
-21.62
-20.54
-18.03
-14.26
-9.62
-4.63
0.17
4.41
7.89
10.65
12.85
14.69
16.25
17.49
18.24
18.39
17.93
17.04
16.01
15.15
14.61
14.39
14.34
14.26
14.02
13.53
12.80
11.84
10.68
9.32
7.83
6.26
4.68
3.18
1.79
0.52
-0.68
-1.91
-3.27
-4.80
-6.52
-8.32
-10.10
-11.73
-13.15
-14.39
-15.60
-16.95
-18.58
-20.48
-22.41
-23.93
-24.50
-23.65
-21.20
-17.31
-12.44
-7.22
-2.19
2.30
6.07
9.08
11.32
12.78
13.45
13.43
12.90
12.09
11.28
10.61
10.14
9.86
9.68
9.53
9.38
9.24
9.14
9.10
9.11
9.07
8.83
8.20
7.10
5.58
3.82
2.09
0.58
-0.68
-1.84
-3.14
-4.76
-6.71
-8.84
-10.91
-12.72
-14.15
-15.19
-15.96
-16.64
-17.46
-18.63
-20.22
-22.12
-23.93
-25.08
-24.98
-23.26
-19.91
-15.29
-9.98
-4.62
0.32
4.56
8.03
10.74
12.75
14.06
14.68
14.63
14.01
13.03
11.93
10.95
10.25
9.84
9.66
9.58
9.49
9.33
9.14
8.93
8.70
8.40
7.92
7.15
6.04
4.69
3.25
1.88
0.65
-0.53
-1.82
-3.34
-5.08
-6.90
-8.56
-9.88
-10.84
-11.58
-12.38
-13.51
-15.14
-17.25
-19.55
-21.57
-22.73
-22.49
-20.57
-17.03
-12.30
-7.02
-1.87
2.63
6.19
8.77
10.47
11.47
11.96
12.11
12.04
11.84
11.57
11.30
11.11
11.06
11.15
11.34
11.54
11.68
11.75
11.75
11.65
11.40
10.87
9.98
8.69
7.08
5.27
3.40
1.54
-0.29
-2.07
-3.80
-5.42
-6.90
-8.25
-9.55
-10.95
-12.56
-14.49
-16.73
-19.16
-21.49
-23.32
-24.15
-23.60
-21.42
-17.69
-12.79
-7.30
-1.89
2.91
6.80
9.74
11.91
13.49
14.67
15.44
15.77
15.61
15.04
14.26
13.54
13.09
12.98
13.07
13.14
12.97
12.51
11.85
11.17
10.57
10.07
9.54
8.84
7.88
6.68
5.32
3.89
2.40
0.83
-0.86
-2.63
-4.41
-6.09
-7.61
-9.07
-10.62
-12.46
-14.69
-17.18
-19.52
-21.16
-21.50
-20.16
-17.01
-12.37
-6.82
-1.09
4.18
8.55
11.89
14.27
15.83
16.72
16.99
16.68
15.89
14.75
13.45
12.16
11.01
10.03
9.19
8.47
7.89
7.47
7.18
6.95
6.67
6.24
5.60
4.75
3.73
2.57
1.21
-0.42
-2.35
-4.55
-6.85
-9.04
-10.94
-12.49
-13.83
-15.15
-16.65
-18.44
-20.49
-22.68
-24.78
-26.53
-27.56
-27.46
-25.90
-22.72
-18.12
-12.58
-6.75
-1.24
3.57
7.54
10.72
13.20
15.01
16.10
16.43
16.06
15.16
14.05
13.05
12.37
12.07
12.03
12.06
11.97
11.71
11.26
10.69
9.99
9.13
8.06
6.77
5.32
3.80
2.26
0.69
-0.96
-2.74
-4.67
-6.67
-8.64
-10.45
-12.04
-13.40
-14.65
-15.97
-17.55
-19.51
-21.81
-24.16
-26.08
-27.01
-26.49
-24.32
-20.58
-15.61
-9.91
-4.01
1.59
6.53
10.57
13.60
15.64
16.80
17.25
17.15
16.65
15.85
14.89
13.94
13.12
12.49
12.03
11.60
11.06
10.38
9.57
8.78
8.11
7.57
7.07
6.43
5.45
4.02
2.12
-0.10
-2.43
-4.64
-6.55
-8.08
-9.25
-10.17
-10.99
-11.86
-12.92
-14.32
-16.10
-18.19
-20.25
-21.72
-21.95
-20.41
-16.98
-11.99
-6.16
-0.31
4.91
9.22
12.64
15.33
17.41
18.85
19.51
19.30
18.28
16.72
15.01
13.54
12.58
12.18
12.19
12.37
12.44
12.21
11.63
10.75
9.69
8.59
7.53
6.51
5.46
4.24
2.77
1.00
-0.98
-3.01
-4.85
-6.35
-7.44
-8.23
-8.94
-9.82
-11.11
-12.93
-15.23
-17.84
-20.41
-22.47
-23.50
-23.04
-20.86
-17.04
-12.01
-6.35
-0.73
4.34
8.58
11.88
14.27
15.81
16.55
16.56
16.00
15.05
13.92
12.82
11.92
11.29
10.96
10.88
10.95
11.03
10.94
10.59
9.93
9.04
8.04
7.05
6.14
5.26
4.32
3.19
1.81
0.20
-1.57
-3.38
-5.12
-6.74
-8.26
-9.74
-11.27
-12.93
-14.75
-16.73
-18.81
-20.78
-22.37
-23.20
-22.88
-21.12
-17.86
-13.31
-7.95
-2.37
2.89
7.44
11.13
14.01
16.23
17.91
19.11
19.82
20.00
19.67
18.93
18.00
17.08
16.31
15.72
15.25
14.77
14.21
13.53
12.73
11.84
10.84
9.66
8.28
6.66
4.90
3.10
1.39
-0.18
-1.66
-3.13
-4.70
-6.43
-8.26
-10.05
-11.64
-12.90
-13.88
-14.74
-15.78
-17.31
-19.46
-22.09
-24.76
-26.81
-27.59
-26.66
-23.90
-19.56
-14.16
-8.33
-2.65
2.41
6.62
9.89
12.27
13.88
14.81
15.16
15.01
14.47
13.71
12.90
12.18
11.60
11.10
10.59
10.02
9.43
8.91
8.55
8.32
8.09
7.63
6.76
5.44
3.79
2.06
0.46
-0.90
-2.09
-3.31
-4.77
-6.53
-8.47
-10.34
-11.88
-13.01
-13.83
-14.58
-15.57
-17.02
-19.00
-21.42
-23.98
-26.21
-27.54
-27.47
-25.64
-22.04
-17.03
-11.21
-5.33
-0.00
4.42
7.84
10.36
12.20
13.56
14.55
15.18
15.44
15.31
14.84
14.17
13.46
12.84
12.37
12.03
11.78
11.58
11.42
11.26
11.01
10.56
9.80
8.69
7.31
5.85
4.52
3.46
2.71
2.15
1.56
0.67
-0.72
-2.64
-4.96
-7.37
-9.53
-11.22
-12.37
-13.15
-13.86
-14.85
-16.33
-18.29
-20.45
-22.31
-23.28
-22.87
-20.85
-17.35
-12.81
-7.81
-2.91
1.53
5.35
8.50
10.95
12.66
13.61
13.85
13.55
12.92
12.16
11.41
10.73
10.17
9.73
9.45
9.31
9.27
9.24
9.15
8.91
8.48
7.83
6.96
5.91
4.75
3.57
2.43
1.32
0.14
-1.20
-2.77
-4.49
-6.18
-7.70
-8.95
-9.93
-10.75
-11.54
-12.46
-13.65
-15.23
-17.19
-19.30
-21.11
-22.02
-21.45
-19.14
-15.19
-10.13
-4.69
0.37
4.54
7.63
9.73
11.07
11.89
12.33
12.40
12.07
11.39
10.52
9.71
9.19
9.07
9.27
9.57
9.69
9.45
8.81
7.90
6.88
5.94
5.12
4.39
3.63
2.70
1.51
0.03
-1.70
-3.55
-5.42
-7.17
-8.72
-10.02
-11.09
-12.00
-12.90
-13.97
-15.36
-17.09
-18.97
-20.62
-21.48
-21.05
-19.03
-15.46
-10.74
-5.52
-0.43
4.02
7.64
10.47
12.62
14.23
15.26
15.65
15.33
14.35
12.91
11.34
9.99
9.10
8.77
8.89
9.24
9.56
9.63
9.38
8.90
8.29
7.66
7.00
6.22
5.20
3.93
2.46
0.91
-0.57
-1.96
-3.26
-4.52
-5.79
-7.10
-8.50
-10.10
-12.05
-14.41
-17.05
-19.57
-21.35
-21.78
-20.42
-17.25
-12.61
-7.11
-1.43
3.87
8.43
12.07
14.77
16.55
17.51
17.76
17.44
16.72
15.73
14.58
13.36
12.15
11.05
10.14
9.46
8.98
8.60
8.20
7.67
6.98
6.12
5.10
3.92
2.56
1.00
-0.75
-2.70
-4.80
-6.97
-9.11
-11.13
-12.93
-14.50
-15.92
-17.35
-19.00
-21.02
-23.39
-25.85
-27.90
-28.95
-28.46
-26.16
-22.13
-16.82
-10.88
-4.96
0.45
5.11
9.00
12.17
14.58
16.18
16.91
16.82
16.16
15.27
14.46
13.91
13.63
13.48
13.33
13.06
12.61
12.00
11.22
10.31
9.32
8.32
7.34
6.34
5.20
3.82
2.18
0.37
-1.48
-3.27
-5.00
-6.71
-8.47
-10.27
-12.08
-13.84
-15.58
-17.36
-19.24
-21.15
-22.80
-23.75
-23.54
-21.85
-18.61
-14.09
-8.79
-3.30
1.85
6.30
9.89
12.65
14.64
15.96
16.66
16.78
16.40
15.65
14.74
13.89
13.26
12.84
12.57
12.30
11.92
11.39
10.74
10.03
9.28
8.46
7.50
6.37
5.08
3.68
2.24
0.73
-0.86
-2.59
-4.44
-6.33
-8.12
-9.70
-11.07
-12.28
-13.48
-14.84
-16.47
-18.34
-20.25
-21.76
-22.37
-21.60
-19.21
-15.36
-10.51
-5.31
-0.39
3.86
7.27
9.87
11.77
13.07
13.83
14.10
13.91
13.36
12.55
11.66
10.88
10.34
10.09
10.02
9.95
9.69
9.17
8.42
7.57
6.72
5.89
5.01
4.04
2.93
1.73
0.44
-0.95
-2.50
-4.24
-6.11
-7.98
-9.66
-11.05
-12.18
-13.22
-14.37
-15.81
-17.50
-19.19
-20.40
-20.61
-19.40
-16.63
-12.50
-7.50
-2.26
2.67
6.92
10.36
12.99
14.88
16.05
16.52
16.29
15.51
14.36
13.13
12.09
11.41
11.10
11.02
10.97
10.75
10.30
9.67
9.02
8.49
8.08
7.65
6.99
5.89
4.25
2.16
-0.19
-2.55
-4.71
-6.53
-7.96
-9.05
-9.87
-10.59
-11.42
-12.63
-14.41
-16.74
-19.32
-21.56
-22.76
-22.35
-20.09
-16.18
-11.15
-5.70
-0.46
4.20
8.13
11.36
13.99
16.04
17.45
18.10
17.92
16.97
15.49
13.86
12.44
11.49
11.05
10.98
10.98
10.80
10.30
9.50
8.52
7.52
6.60
5.73
4.85
3.84
2.63
1.21
-0.37
-2.02
-3.68
-5.35
-6.99
-8.56
-9.97
-11.19
-12.26
-13.39
-14.84
-16.81
-19.23
-21.66
-23.39
-23.65
-21.93
-18.17
-12.79
-6.57
-0.36
5.17
9.63
12.97
15.26
16.65
17.29
17.27
16.71
15.78
14.65
13.55
12.64
12.04
11.77
11.76
11.85
11.82
11.49
10.76
9.67
8.38
7.07
5.90
4.90
3.97
2.97
1.77
0.32
-1.31
-3.02
-4.68
-6.20
-7.55
-8.77
-9.91
-11.11
-12.51
-14.24
-16.33
-18.61
-20.72
-22.14
-22.40
-21.16
-18.36
-14.22
-9.18
-3.76
1.52
6.25
10.14
13.07
15.08
16.29
16.88
17.01
16.78
16.25
15.48
14.55
13.57
12.65
11.85
11.17
10.56
9.97
9.34
8.67
7.92
7.06
6.02
4.74
3.25
1.57
-0.17
-1.84
-3.37
-4.74
-6.02
-7.33
-8.77
-10.38
-12.12
-13.89
-15.57
-17.09
-18.49
-19.93
-21.57
-23.42
-25.26
-26.59
-26.84
-25.55
-22.64
-18.40
-13.44
-8.38
-3.70
0.41
3.99
7.12
9.79
11.91
13.35
14.00
13.93
13.31
12.42
11.51
10.77
10.26
9.96
9.79
9.66
9.50
9.33
9.18
9.06
8.92
8.65
8.16
7.37
6.32
5.11
3.86
2.64
1.44
0.16
-1.33
-3.11
-5.14
-7.26
-9.21
-10.73
-11.68
-12.13
-12.40
-12.92
-14.07
-15.96
-18.31
-20.55
-21.96
-21.95
-20.25
-16.99
-12.62
-7.70
-2.78
1.72
5.55
8.61
10.83
12.25
12.92
12.94
12.44
11.59
10.59
9.61
8.82
8.32
8.15
8.22
8.38
8.51
8.50
8.36
8.14
7.89
7.59
7.16
6.47
5.42
4.02
2.40
0.74
-0.83
-2.23
-3.49
-4.68
-5.80
-6.82
-7.66
-8.31
-8.81
-9.33
-10.07
-11.27
-13.06
-15.46
-18.26
-21.01
-23.07
-23.80
-22.75
-19.84
-15.42
-10.15
-4.76
0.12
4.11
7.11
9.18
10.44
11.07
11.21
10.98
10.49
9.84
9.13
8.49
8.03
7.82
7.84
7.95
7.99
7.78
7.25
6.45
5.53
4.66
3.97
3.46
3.01
2.40
1.45
0.13
-1.46
-3.13
-4.71
-6.10
-7.32
-8.44
-9.52
-10.59
-11.71
-12.99
-14.56
-16.50
-18.66
-20.62
-21.78
-21.53
-19.54
-15.89
-11.09
-5.83
-0.82
3.49
6.91
9.49
11.39
12.73
13.60
14.04
14.09
13.86
13.45
13.03
12.66
12.39
12.17
11.95
11.68
11.30
10.78
10.16
9.52
8.96
8.56
8.32
8.10
7.66
6.77
5.27
3.21
0.82
-1.59
-3.71
-5.41
-6.70
-7.72
-8.70
-9.88
-11.42
-13.37
-15.66
-18.00
-19.91
-20.87
-20.38
-18.19
-14.38
-9.34
-3.71
1.85
6.80
10.81
13.81
15.87
17.17
17.85
18.05
17.84
17.31
16.55
15.66
14.73
13.80
12.88
11.93
10.92
9.83
8.67
7.52
6.45
5.51
4.71
3.96
3.09
1.93
0.36
-1.62
-3.86
-6.13
-8.21
-9.98
-11.43
-12.69
-13.91
-15.25
-16.84
-18.72
-20.90
-23.26
-25.49
-27.12
-27.59
-26.46
-23.55
-19.08
-13.59
-7.76
-2.24
2.56
6.49
9.54
11.81
13.35
14.22
14.46
14.19
13.56
12.79
12.07
11.50
11.13
10.87
10.62
10.30
9.87
9.39
8.93
8.56
8.25
7.87
7.20
6.06
4.36
2.14
-0.37
-2.90
-5.20
-7.12
-8.63
-9.83
-10.87
-11.89
-13.05
-14.48
-16.27
-18.42
-20.76
-22.93
-24.41
-24.69
-23.37
-20.39
-15.99
-10.67
-5.05
0.38
5.29
9.54
13.08
15.87
17.81
18.82
18.88
18.17
16.98
15.68
14.54
13.72
13.17
12.76
12.36
11.88
11.34
10.77
10.21
9.65
9.03
8.27
7.34
6.24
5.01
3.70
2.32
0.81
-0.84
-2.64
-4.52
-6.34
-7.99
-9.42
-10.74
-12.13
-13.79
-15.83
-18.14
-20.39
-22.11
-22.81
-22.10
-19.84
-16.14
-11.40
-6.14
-0.90
3.90
8.02
11.38
13.99
15.89
17.04
17.40
16.94
15.82
14.30
12.78
11.59
10.90
10.68
10.71
10.74
10.61
10.31
9.89
9.46
9.01
8.44
7.59
6.35
4.70
2.73
0.62
-1.45
-3.34
-4.97
-6.34
-7.48
-8.46
-9.40
-10.43
-11.68
-13.29
-15.29
-17.62
-20.07
-22.24
-23.61
-23.69
-22.12
-18.84
-14.14
-8.58
-2.88
2.27
6.46
9.50
11.48
12.60
13.07
13.03
12.59
11.82
10.87
9.96
9.30
9.05
9.23
9.68
10.18
10.49
10.46
10.08
9.41
8.56
7.63
6.63
5.54
4.31
2.91
1.35
-0.30
-1.96
-3.50
-4.86
-6.04
-7.08
-8.05
-9.07
-10.24
-11.68
-13.48
-15.61
-17.87
-19.88
-21.07
-20.92
-19.12
-15.67
-10.94
-5.53
-0.07
4.94
9.22
12.67
15.31
17.18
18.34
18.80
18.62
17.93
16.91
15.81
14.87
14.25
14.01
14.04
14.18
14.24
14.08
13.63
12.90
11.96
10.85
9.65
8.36
6.99
5.52
3.89
2.09
0.17
-1.80
-3.74
-5.61
-7.38
-9.09
-10.75
-12.41
-14.13
-15.99
-18.08
-20.36
-22.63
-24.41
-25.11
-24.21
-21.46
-17.07
-11.62
-5.92
-0.68
3.65
6.94
9.37
11.19
12.60
13.67
14.30
14.40
13.95
13.06
11.95
10.86
9.96
9.31
8.83
8.42
7.94
7.36
6.73
6.12
5.60
5.13
4.57
3.77
2.59
1.03
-0.79
-2.71
-4.54
-6.22
-7.77
-9.28
-10.82
-12.37
-13.88
-15.32
-16.71
-18.20
-19.91
-21.88
-23.95
-25.67
-26.50
-25.89
-23.59
-19.70
-14.67
-9.15
-3.75
1.08
5.12
8.29
10.63
12.20
13.10
13.46
13.39
13.05
12.60
12.14
11.79
11.64
11.66
11.75
11.72
11.40
10.73
9.81
8.87
8.09
7.55
7.11
6.58
5.78
4.69
3.38
1.96
0.45
-1.20
-3.11
-5.26
-7.54
-9.68
-11.43
-12.65
-13.38
-13.87
-14.47
-15.49
-17.09
-19.17
-21.37
-23.11
-23.76
-22.86
-20.24
-16.12
-10.99
-5.50
-0.21
4.46
8.32
11.33
13.56
15.07
15.92
16.14
15.84
15.14
14.24
13.32
12.54
11.94
11.44
10.94
10.35
9.70
9.11
8.71
8.52
8.43
8.22
7.68
6.69
5.32
3.73
2.12
0.59
-0.86
-2.32
-3.84
-5.44
-7.03
-8.48
-9.67
-10.58
-11.27
-11.93
-12.80
-14.09
-15.84
-17.88
-19.83
-21.21
-21.58
-20.62
-18.29
-14.72
-10.27
-5.44
-0.71
3.44
6.72
9.01
10.39
11.05
11.18
10.94
10.38
9.59
8.70
7.94
7.56
7.68
8.21
8.86
9.23
9.07
8.34
7.27
6.20
5.39
4.92
4.58
4.05
3.03
1.42
-0.67
-2.95
-5.10
-6.90
-8.25
-9.23
-9.97
-10.63
-11.38
-12.34
-13.65
-15.29
-17.14
-18.84
-19.92
-19.90
-18.44
-15.49
-11.26
-6.16
-0.71
4.56
9.22
12.97
15.63
17.21
17.81
17.59
16.74
15.41
13.86
12.34
11.18
10.62
10.73
11.29
11.97
12.40
12.36
11.86
11.05
10.09
9.07
7.98
6.72
5.25
3.56
1.71
-0.21
-2.11
-3.94
-5.61
-7.10
-8.40
-9.61
-10.88
-12.45
-14.50
-17.01
-19.72
-22.09
-23.43
-23.11
-20.80
-16.55
-10.85
-4.44
1.90
7.55
12.14
15.51
17.66
18.67
18.67
17.84
16.47
14.88
13.39
12.19
11.35
10.77
10.29
9.77
9.14
8.41
7.60
6.80
6.05
5.37
4.71
3.94
2.89
1.39
-0.62
-3.07
-5.74
-8.33
-10.59
-12.41
-13.85
-15.07
-16.31
-17.83
-19.81
-22.30
-25.13
-27.87
-29.90
-30.54
-29.33
-26.15
-21.28
-15.31
-8.90
-2.63
3.11
8.09
12.16
15.23
17.24
18.23
18.34
17.81
16.90
15.83
14.77
13.79
12.90
12.07
11.29
10.53
9.79
9.10
8.48
7.92
7.35
6.64
5.66
4.30
2.50
0.32
-2.09
-4.52
-6.74
-8.61
-10.09
-11.28
-12.36
-13.59
-15.20
-17.27
-19.74
-22.32
-24.60
-26.06
-26.25
-24.87
-21.82
-17.27
-11.58
-5.28
1.06
6.89
11.76
15.41
17.78
18.96
19.14
18.58
17.53
16.23
14.93
13.86
13.13
12.81
12.77
12.81
12.69
12.20
11.29
10.09
8.82
7.72
6.87
6.18
5.37
4.19
2.50
0.40
-1.87
-4.04
-5.94
-7.60
-9.11
-10.62
-12.22
-13.95
-15.84
-17.90
-20.01
-21.84
-22.88
-22.54
-20.41
-16.41
-10.98
-4.84
1.19
6.48
10.68
13.78
15.94
17.35
18.11
18.23
17.69
16.56
15.06
13.52
12.27
11.52
11.23
11.17
11.00
10.44
9.44
8.15
6.83
5.74
4.96
4.39
3.77
2.83
1.40
-0.50
-2.66
-4.82
-6.75
-8.35
-9.71
-10.99
-12.40
-14.08
-16.13
-18.48
-20.97
-23.24
-24.85
-25.26
-24.05
-21.05
-16.45
-10.74
-4.60
1.31
6.54
10.83
14.13
16.45
17.83
18.33
18.08
17.26
16.16
15.06
14.16
13.58
13.29
13.18
13.08
12.81
12.24
11.33
10.17
8.97
7.88
7.01
6.29
5.49
4.37
2.75
0.63
-1.80
-4.24
-6.44
-8.27
-9.73
-10.96
-12.10
-13.31
-14.71
-16.36
-18.32
-20.47
-22.52
-23.95
-24.13
-22.52
-18.91
-13.52
-6.96
-0.09
6.27
11.57
15.57
18.36
20.24
21.52
22.39
22.88
22.93
22.48
21.53
20.22
18.75
17.30
15.96
14.76
13.68
12.74
11.96
11.35
10.83
10.25
9.42
8.21
6.61
4.72
2.65
0.50
-1.69
-3.93
-6.19
-8.41
-10.48
-12.32
-13.88
-15.22
-16.47
-17.83
-19.49
-21.59
-24.10
-26.78
-29.17
-30.69
-30.76
-29.00
-25.36
-20.13
-13.87
-7.29
-0.96
4.66
9.35
13.06
15.77
17.53
18.36
18.36
17.70
16.63
15.42
14.30
13.43
12.83
12.49
12.30
12.20
12.15
12.12
12.03
11.79
11.28
10.39
9.07
7.38
5.47
3.53
1.70
-0.01
-1.68
-3.42
-5.34
-7.41
-9.54
-11.53
-13.20
-14.45
-15.30
-15.96
-16.76
-18.06
-20.05
-22.66
-25.47
-27.75
-28.73
-27.82
-24.87
-20.16
-14.34
-8.10
-2.06
3.39
8.09
11.96
14.94
16.99
18.07
18.29
17.86
17.05
16.12
15.22
14.42
13.72
13.12
12.62
12.25
12.04
11.95
11.86
11.68
11.25
10.48
9.32
7.82
6.12
4.41
2.87
1.61
0.59
-0.38
-1.52
-2.99
-4.77
-6.67
-8.43
-9.83
-10.81
-11.49
-12.11
-12.96
-14.28
-16.12
-18.32
-20.50
-22.09
-22.48
-21.21
-18.13
-13.48
-7.86
-2.05
3.24
7.53
10.68
12.76
14.03
14.72
15.02
14.98
14.62
13.96
13.07
12.08
11.17
10.46
10.00
9.72
9.53
9.31
9.04
8.69
8.30
7.82
7.21
6.45
5.53
4.52
3.49
2.47
1.44
0.29
-1.02
-2.49
-4.08
-5.67
-7.17
-8.52
-9.72
-10.77
-11.78
-12.85
-14.10
-15.56
-17.05
-18.19
-18.48
-17.43
-14.84
-10.83
-5.82
-0.43
4.79
9.43
13.27
16.25
18.37
19.65
20.11
19.82
18.89
17.47
15.78
14.01
12.31
10.81
9.57
8.63
7.97
7.58
7.37
7.23
7.03
6.66
6.04
5.17
4.10
2.89
1.56
0.12
-1.43
-3.06
-4.74
-6.36
-7.86
-9.16
-10.26
-11.21
-12.13
-13.15
-14.40
-15.96
-17.83
-19.94
-22.07
-23.90
-25.02
-25.03
-23.64
-20.77
-16.64
-11.68
-6.47
-1.57
2.66
6.07
8.74
10.82
12.43
13.55
14.08
13.94
13.17
11.95
10.59
9.36
8.43
7.81
7.44
7.23
7.13
7.11
7.11
7.02
6.69
6.01
4.97
3.72
2.44
1.30
0.36
-0.44
-1.27
-2.28
-3.57
-5.08
-6.69
-8.24
-9.57
-10.65
-11.51
-12.30
-13.18
-14.35
-15.90
-17.77
-19.67
-21.14
-21.63
-20.70
-18.22
-14.40
-9.79
-5.02
-0.64
3.02
5.88
7.99
9.47
10.37
10.73
10.64
10.20
9.55
8.82
8.13
7.51
7.01
6.61
6.33
6.18
6.16
6.30
6.57
6.90
7.16
7.17
6.80
6.03
4.96
3.75
2.52
1.28
-0.07
-1.68
-3.58
-5.64
-7.63
-9.32
-10.60
-11.54
-12.31
-13.13
-14.16
-15.47
-17.01
-18.56
-19.82
-20.38
-19.91
-18.26
-15.50
-11.97
-8.12
-4.38
-1.05
1.76
4.03
5.81
7.10
7.89
8.18
8.05
7.62
7.09
6.59
6.24
6.06
6.00
6.01
6.00
5.87
5.58
5.15
4.65
4.21
3.92
3.82
3.76
3.51
2.83
1.55
-0.30
-2.56
-4.95
-7.20
-9.12
-10.63
-11.69
-12.42
-13.02
-13.74
-14.87
-16.50
-18.47
-20.34
-21.47
-21.29
-19.46
-16.08
-11.58
-6.59
-1.74
2.56
6.11
8.91
11.02
12.51
13.36
13.58
13.18
12.30
11.16
10.01
9.05
8.33
7.82
7.40
6.98
6.55
6.14
5.85
5.70
5.69
5.74
5.72
5.49
4.85
3.65
1.80
-0.63
-3.40
-6.19
-8.63
-10.53
-11.85
-12.79
-13.64
-14.75
-16.38
-18.58
-21.18
-23.72
-25.61
-26.23
-25.13
-22.18
-17.64
-12.01
-5.91
0.07
5.51
10.15
13.89
16.71
18.65
19.76
20.15
19.93
19.27
18.31
17.25
16.24
15.39
14.78
14.38
14.12
13.91
13.64
13.26
12.74
12.08
11.30
10.37
9.21
7.73
5.90
3.77
1.52
-0.71
-2.80
-4.76
-6.66
-8.56
-10.53
-12.61
-14.87
-17.40
-20.25
-23.29
-26.09
-27.96
-28.20
-26.36
-22.39
-16.72
-10.07
-3.21
3.20
8.75
13.20
16.48
18.61
19.65
19.75
19.10
17.96
16.58
15.20
14.02
13.10
12.42
11.87
11.27
10.50
9.55
8.48
7.42
6.48
5.64
4.81
3.74
2.25
0.24
-2.20
-4.80
-7.31
-9.51
-11.36
-12.95
-14.42
-15.88
-17.38
-18.98
-20.77
-22.82
-25.11
-27.40
-29.12
-29.57
-28.07
-24.32
-18.52
-11.33
-3.63
3.74
10.20
15.48
19.52
22.32
23.92
24.32
23.63
22.08
20.02
17.87
15.96
14.53
13.64
13.22
13.11
13.11
13.08
12.91
12.52
11.89
11.00
9.84
8.39
6.65
4.65
2.45
0.17
-2.09
-4.24
-6.23
-8.06
-9.80
-11.53
-13.35
-15.34
-17.59
-20.09
-22.69
-24.98
-26.40
-26.32
-24.28
-20.16
-14.31
-7.41
-0.29
6.34
12.04
16.65
20.18
22.67
24.12
24.47
23.73
22.08
19.90
17.66
15.83
14.64
14.05
13.80
13.54
13.03
12.27
11.41
10.63
10.02
9.50
8.87
7.91
6.48
4.59
2.36
-0.05
-2.48
-4.78
-6.84
-8.60
-10.11
-11.45
-12.76
-14.20
-15.89
-17.90
-20.17
-22.48
-24.43
-25.47
-25.03
-22.73
-18.48
-12.60
-5.75
1.27
7.72
13.08
17.09
19.68
20.92
20.97
20.04
18.38
16.31
14.20
12.37
11.05
10.31
10.01
9.92
9.78
9.43
8.84
8.12
7.42
6.85
6.33
5.69
4.68
3.13
1.03
-1.44
-3.98
-6.29
-8.19
-9.69
-10.93
-12.12
-13.45
-15.04
-16.96
-19.11
-21.31
-23.17
-24.16
-23.74
-21.55
-17.57
-12.18
-6.06
0.04
5.55
10.16
13.81
16.49
18.23
18.98
18.69
17.50
15.71
13.75
12.07
10.93
10.35
10.14
10.02
9.81
9.43
8.95
8.49
8.08
7.67
7.09
6.17
4.78
2.88
0.56
-1.99
-4.54
-6.85
-8.76
-10.24
-11.42
-12.53
-13.86
-15.63
-17.85
-20.30
-22.52
-23.92
-23.97
-22.35
-19.06
-14.45
-9.06
-3.46
1.86
6.65
10.77
14.17
16.74
18.36
18.92
18.45
17.17
15.47
13.78
12.45
11.59
11.11
10.84
10.54
10.09
9.48
8.76
8.03
7.34
6.72
6.08
5.30
4.24
2.80
0.95
-1.18
-3.43
-5.58
-7.49
-9.12
-10.55
-11.93
-13.46
-15.29
-17.44
-19.71
-21.67
-22.76
-22.45
-20.44
-16.77
-11.83
-6.20
-0.49
4.82
9.45
13.28
16.26
18.40
19.64
19.97
19.45
18.24
16.59
14.82
13.21
11.89
10.85
9.97
9.10
8.18
7.24
6.36
5.60
4.92
4.21
3.28
2.01
0.31
-1.73
-3.97
-6.21
-8.28
-10.13
-11.82
-13.49
-15.28
-17.26
-19.41
-21.69
-24.04
-26.34
-28.42
-29.91
-30.34
-29.22
-26.28
-21.63
-15.79
-9.49
-3.49
1.73
5.98
9.36
12.05
14.13
15.61
16.42
16.56
16.16
15.46
14.73
14.11
13.63
13.16
12.52
11.63
10.52
9.33
8.21
7.29
6.58
5.99
5.39
4.62
3.56
2.13
0.32
-1.75
-3.93
-6.03
-7.89
-9.44
-10.72
-11.86
-13.05
-14.49
-16.32
-18.61
-21.20
-23.77
-25.83
-26.84
-26.32
-24.09
-20.26
-15.26
-9.68
-4.09
1.07
5.56
9.32
12.36
14.68
16.26
17.09
17.17
16.63
15.68
14.56
13.49
12.63
12.04
11.69
11.53
11.44
11.33
11.09
10.66
10.04
9.25
8.33
7.29
6.14
4.87
3.52
2.13
0.71
-0.74
-2.31
-4.07
-6.05
-8.16
-10.26
-12.18
-13.79
-15.13
-16.35
-17.68
-19.26
-21.09
-22.84
-24.01
-23.95
-22.19
-18.54
-13.31
-7.19
-1.11
4.00
7.47
9.04
8.96
7.95
7.10
7.60
10.34
15.60
22.77
30.49
37.12
41.25
42.18
39.97
35.27
28.95
21.74
14.18
6.64
-0.61
-7.41
-13.70
-19.49
-24.74
-29.21
-32.44
-33.88
-33.22
-30.63
-26.75
-22.48
-18.56
-15.29
-12.43
-9.45
-5.80
-1.27
3.86
8.98
13.33
16.32
17.75
17.80
16.97
15.87
15.04
14.88
15.60
17.22
19.66
22.67
25.82
28.45
29.78
29.12
26.13
21.09
14.96
9.14
5.02
3.40
4.27
6.84
10.03
12.82
14.62
15.26
14.81
13.37
11.07
8.02
4.37
0.31
-4.05
-8.65
-13.38
-17.98
-21.96
-24.66
-25.60
-24.75
-22.56
-19.86
-17.51
-16.12
-15.97
-17.07
-19.24
-22.11
-25.08
-27.31
-27.99
-26.69
-23.68
-19.86
-16.25
-13.42
-11.01
-7.93
-3.04
4.04
12.52
20.71
26.71
29.28
28.27
24.48
19.24
13.87
9.39
6.40
5.12
5.40
6.74
8.39
9.57
9.81
9.08
7.81
6.60
5.96
6.03
6.56
7.03
6.85
5.59
3.06
-0.61
-5.01
-9.55
-13.60
-16.66
-18.51
-19.30
-19.49
-19.77
-20.75
-22.77
-25.70
-28.88
-31.29
-31.85
-29.80
-25.00
-18.03
-9.96
-2.03
4.74
9.78
12.97
14.57
14.99
14.71
14.14
13.63
13.35
13.36
13.56
13.78
13.87
13.70
13.26
12.58
11.76
10.91
10.08
9.28
8.50
7.70
6.86
5.95
4.99
3.94
2.76
1.44
-0.02
-1.57
-3.14
-4.68
-6.21
-7.77
-9.43
-11.21
-13.14
-15.22
-17.45
-19.76
-21.91
-23.48
-23.91
-22.72
-19.70
-15.10
-9.50
-3.68
1.66
6.10
9.53
12.08
13.92
15.19
15.92
16.10
15.72
14.87
13.73
12.54
11.49
10.70
10.15
9.75
9.36
8.89
8.33
7.73
7.14
6.60
6.08
5.48
4.67
3.52
1.95
-0.02
-2.25
-4.51
-6.57
-8.23
-9.49
-10.45
-11.37
-12.47
-13.93
-15.78
-17.87
-19.89
-21.38
-21.85
-20.86
-18.21
-14.02
-8.71
-2.91
2.74
7.76
11.91
15.13
17.46
18.95
19.60
19.44
18.60
17.33
15.98
14.87
14.18
13.91
13.88
13.85
13.59
13.01
12.17
11.22
10.31
9.55
8.94
8.36
7.60
6.48
4.87
2.75
0.23
-2.48
-5.15
-7.59
-9.71
-11.52
-13.12
-14.69
-16.41
-18.36
-20.52
-22.61
-24.17
-24.64
-23.58
-20.80
-16.50
-11.21
-5.57
-0.19
4.54
8.45
11.53
13.81
15.26
15.90
15.75
14.98
13.85
12.64
11.58
10.76
10.14
9.54
8.82
7.85
6.67
5.40
4.20
3.23
2.53
2.01
1.50
0.81
-0.26
-1.74
-3.60
-5.67
-7.75
-9.66
-11.27
-12.57
-13.64
-14.67
-15.88
-17.49
-19.56
-21.92
-24.13
-25.58
-25.63
-23.91
-20.44
-15.58
-9.99
-4.30
0.97
5.53
9.28
12.16
14.14
15.19
15.37
14.83
13.86
12.78
11.86
11.24
10.90
10.72
10.54
10.24
9.77
9.19
8.58
7.99
7.48
7.00
6.47
5.80
4.89
3.65
2.12
0.36
-1.52
-3.41
-5.26
-7.10
-8.95
-10.84
-12.76
-14.68
-16.59
-18.49
-20.32
-21.88
-22.82
-22.66
-21.02
-17.76
-13.12
-7.66
-2.06
3.08
7.41
10.88
13.53
15.43
16.53
16.73
15.98
14.44
12.49
10.57
9.10
8.27
8.03
8.16
8.38
8.47
8.33
7.97
7.48
6.95
6.40
5.77
4.94
3.80
2.31
0.60
-1.14
-2.72
-4.07
-5.29
-6.58
-8.07
-9.83
-11.78
-13.79
-15.76
-17.67
-19.44
-20.88
-21.63
-21.29
-19.54
-16.34
-11.96
-6.93
-1.83
2.82
6.69
9.62
11.63
12.78
13.19
12.96
12.19
11.04
9.74
8.53
7.65
7.23
7.25
7.51
7.75
7.74
7.42
6.87
6.26
5.76
5.36
4.90
4.18
3.04
1.46
-0.38
-2.24
-3.88
-5.19
-6.21
-7.13
-8.14
-9.44
-11.11
-13.14
-15.38
-17.57
-19.30
-20.13
-19.64
-17.61
-14.10
-9.44
-4.16
1.12
5.89
9.80
12.71
14.60
15.57
15.72
15.22
14.28
13.15
12.04
11.12
10.46
10.01
9.67
9.34
8.97
8.56
8.19
7.91
7.72
7.56
7.26
6.68
5.65
4.15
2.26
0.15
-1.97
-3.90
-5.51
-6.78
-7.77
-8.66
-9.71
-11.20
-13.28
-15.87
-18.54
-20.62
-21.34
-20.19
-17.05
-12.36
-6.85
-1.36
3.54
7.61
10.89
13.51
15.46
16.63
16.82
15.99
14.34
12.31
10.40
8.95
8.03
7.46
6.95
6.26
5.34
4.31
3.37
2.66
2.19
1.80
1.27
0.34
-1.10
-3.02
-5.23
-7.46
-9.49
-11.24
-12.73
-14.07
-15.36
-16.67
-18.06
-19.62
-21.39
-23.34
-25.20
-26.48
-26.60
-25.06
-21.74
-16.90
-11.13
-5.12
0.60
5.70
10.01
13.43
15.88
17.26
17.60
17.06
15.95
14.59
13.31
12.26
11.47
10.87
10.35
9.80
9.13
8.32
7.39
6.46
5.60
4.88
4.23
3.51
2.50
1.08
-0.73
-2.77
-4.80
-6.62
-8.22
-9.71
-11.28
-13.05
-15.02
-17.10
-19.21
-21.22
-23.01
-24.37
-24.91
-24.23
-21.99
-18.13
-12.95
-7.04
-1.07
4.40
9.07
12.87
15.83
17.98
19.28
19.64
19.07
17.75
16.03
14.35
13.06
12.35
12.14
12.21
12.26
12.07
11.56
10.80
9.92
9.06
8.26
7.50
6.61
5.47
3.99
2.17
0.12
-1.97
-4.00
-5.88
-7.60
-9.21
-10.75
-12.29
-13.92
-15.71
-17.71
-19.89
-21.99
-23.59
-24.15
-23.19
-20.48
-16.12
-10.59
-4.52
1.41
6.69
11.06
14.40
16.72
18.11
18.62
18.37
17.51
16.25
14.83
13.46
12.29
11.40
10.76
10.32
9.98
9.66
9.29
8.82
8.23
7.54
6.74
5.83
4.78
3.61
2.32
0.91
-0.58
-2.15
-3.82
-5.59
-7.47
-9.41
-11.31
-13.10
-14.73
-16.23
-17.68
-19.12
-20.42
-21.26
-21.15
-19.64
-16.55
-12.01
-6.55
-0.83
4.50
9.00
12.47
14.90
16.34
16.87
16.56
15.56
14.12
12.55
11.17
10.17
9.60
9.33
9.21
9.09
8.89
8.61
8.27
7.90
7.48
6.99
6.44
5.78
4.95
3.85
2.38
0.49
-1.73
-4.07
-6.29
-8.16
-9.57
-10.59
-11.47
-12.48
-13.90
-15.81
-18.07
-20.32
-22.01
-22.60
-21.69
-19.14
-15.10
-9.96
-4.26
1.44
6.66
11.04
14.41
16.72
18.05
18.56
18.39
17.65
16.50
15.08
13.65
12.47
11.73
11.52
11.72
12.11
12.43
12.51
12.28
11.81
11.15
10.37
9.47
8.44
7.21
5.75
4.05
2.08
-0.12
-2.45
-4.77
-6.90
-8.71
-10.19
-11.47
-12.85
-14.58
-16.81
-19.38
-21.83
-23.52
-23.79
-22.24
-18.84
-13.97
-8.26
-2.37
3.14
7.89
11.72
14.56
16.40
17.32
17.41
16.83
15.77
14.42
12.96
11.56
10.31
9.27
8.39
7.61
6.80
5.91
4.96
4.07
3.36
2.90
2.63
2.35
1.79
0.70
-1.01
-3.24
-5.70
-8.07
-10.08
-11.68
-12.95
-14.12
-15.40
-16.95
-18.80
-20.90
-23.06
-25.03
-26.45
-26.92
-26.09
-23.80
-20.13
-15.40
-10.07
-4.61
0.59
5.27
9.24
12.38
14.56
15.75
15.99
15.48
14.51
13.41
12.47
11.84
11.52
11.39
11.29
11.04
10.56
9.84
8.97
8.06
7.23
6.53
5.96
5.45
4.85
4.02
2.82
1.16
-0.92
-3.27
-5.67
-7.87
-9.74
-11.21
-12.41
-13.51
-14.74
-16.26
-18.08
-20.06
-21.83
-22.93
-22.86
-21.31
-18.19
-13.76
-8.52
-3.07
2.06
6.53
10.18
12.99
14.95
16.05
16.25
15.61
14.31
12.65
11.01
9.71
8.93
8.64
8.70
8.92
9.10
9.12
8.89
8.39
7.65
6.73
5.71
4.66
3.58
2.40
1.04
-0.58
-2.41
-4.35
-6.24
-7.92
-9.34
-10.52
-11.51
-12.39
-13.22
-14.12
-15.22
-16.65
-18.40
-20.28
-21.84
-22.48
-21.68
-19.17
-15.08
-9.87
-4.23
1.20
5.94
9.71
12.42
14.07
14.73
14.54
13.69
12.46
11.14
9.97
9.09
8.54
8.28
8.23
8.26
8.25
8.08
7.69
7.09
6.38
5.66
5.00
4.36
3.58
2.49
0.98
-0.88
-2.89
-4.78
-6.38
-7.61
-8.53
-9.30
-10.05
-10.96
-12.15
-13.75
-15.77
-18.02
-20.13
-21.54
-21.69
-20.21
-17.08
-12.61
-7.38
-2.05
2.87
7.04
10.32
12.74
14.38
15.33
15.63
15.34
14.54
13.41
12.16
11.02
10.22
9.82
9.78
9.91
9.95
9.70
9.09
8.21
7.27
6.50
6.01
5.68
5.24
4.37
2.88
0.82
-1.56
-3.90
-5.89
-7.44
-8.55
-9.36
-10.04
-10.73
-11.60
-12.84
-14.57
-16.75
-19.07
-20.95
-21.68
-20.65
-17.63
-12.81
-6.80
-0.39
5.68
10.92
15.09
18.21
20.35
21.58
21.90
21.34
20.00
18.13
16.10
14.29
12.95
12.17
11.83
11.64
11.39
10.95
10.32
9.59
8.87
8.15
7.38
6.46
5.27
3.76
1.90
-0.25
-2.61
-5.02
-7.34
-9.44
-11.27
-12.83
-14.20
-15.49
-16.83
-18.38
-20.28
-22.57
-25.06
-27.33
-28.74
-28.64
-26.65
-22.80
-17.52
-11.50
-5.40
0.28
5.30
9.56
13.00
15.54
17.09
17.60
17.15
15.98
14.44
12.94
11.79
11.18
11.09
11.34
11.67
11.82
11.67
11.18
10.42
9.45
8.32
7.06
5.66
4.13
2.45
0.64
-1.29
-3.28
-5.28
-7.21
-8.99
-10.59
-12.00
-13.26
-14.47
-15.72
-17.16
-18.94
-21.10
-23.50
-25.76
-27.27
-27.37
-25.59
-21.81
-16.36
-9.90
-3.22
2.98
8.23
12.34
15.32
17.32
18.48
18.94
18.82
18.23
17.30
16.20
15.13
14.29
13.77
13.58
13.61
13.68
13.62
13.35
12.85
12.18
11.35
10.36
9.13
7.62
5.86
3.96
2.04
0.19
-1.62
-3.44
-5.31
-7.17
-8.87
-10.30
-11.42
-12.34
-13.28
-14.49
-16.15
-18.33
-20.85
-23.30
-25.12
-25.69
-24.51
-21.40
-16.59
-10.66
-4.39
1.53
6.60
10.64
13.68
15.85
17.24
17.89
17.80
17.05
15.79
14.31
12.89
11.76
11.02
10.61
10.39
10.24
10.09
9.96
9.87
9.78
9.62
9.22
8.48
7.36
5.91
4.25
2.50
0.75
-0.96
-2.62
-4.24
-5.82
-7.36
-8.82
-10.14
-11.29
-12.30
-13.24
-14.26
-15.52
-17.04
-18.67
-20.01
-20.54
-19.76
-17.41
-13.54
-8.53
-2.99
2.48
7.36
11.35
14.33
16.28
17.27
17.40
16.83
15.78
14.53
13.38
12.58
12.25
12.31
12.57
12.74
12.66
12.28
11.69
11.06
10.49
10.02
9.53
8.91
8.07
6.99
5.68
4.19
2.55
0.77
-1.09
-2.94
-4.66
-6.11
-7.28
-8.23
-9.12
-10.17
-11.56
-13.34
-15.39
-17.42
-18.94
-19.47
-18.60
-16.17
-12.32
-7.47
-2.22
2.88
7.39
11.08
13.88
15.81
16.91
17.21
16.78
15.74
14.31
12.74
11.26
10.01
9.05
8.34
7.82
7.45
7.17
6.92
6.63
6.20
5.54
4.62
3.46
2.10
0.61
-0.97
-2.64
-4.40
-6.22
-8.03
-9.72
-11.22
-12.48
-13.55
-14.54
-15.61
-16.91
-18.56
-20.58
-22.90
-25.24
-27.14
-28.04
-27.40
-24.94
-20.77
-15.36
-9.41
-3.62
1.52
5.81
9.20
11.78
13.59
14.65
14.98
14.70
13.98
13.02
11.99
11.00
10.12
9.40
8.89
8.65
8.67
8.92
9.29
9.59
9.68
9.40
8.68
7.50
5.93
4.09
2.16
0.31
-1.33
-2.73
-3.96
-5.19
-6.58
-8.19
-9.98
-11.77
-13.39
-14.80
-16.11
-17.58
-19.41
-21.58
-23.74
-25.26
-25.49
-23.96
-20.64
-15.91
-10.43
-4.89
0.16
4.41
7.77
10.25
11.94
12.91
13.29
13.21
12.85
12.37
11.91
11.52
11.18
10.86
10.49
10.02
9.48
8.94
8.46
8.05
7.65
7.15
6.45
5.55
4.48
3.33
2.14
0.90
-0.47
-2.01
-3.72
-5.50
-7.19
-8.67
-9.84
-10.74
-11.47
-12.24
-13.25
-14.63
-16.35
-18.19
-19.72
-20.46
-19.98
-18.08
-14.85
-10.63
-5.95
-1.34
2.80
6.23
8.89
10.82
12.08
12.74
12.83
12.44
11.72
10.89
10.17
9.72
9.61
9.75
10.00
10.19
10.20
10.00
9.60
9.07
8.47
7.85
7.26
6.67
6.01
5.16
4.02
2.53
0.75
-1.15
-3.00
-4.64
-6.02
-7.20
-8.25
-9.27
-10.37
-11.62
-13.10
-14.80
-16.59
-18.17
-19.09
-18.90
-17.27
-14.12
-9.66
-4.37
1.20
6.51
11.18
14.94
17.72
19.49
20.32
20.30
19.58
18.40
16.99
15.56
14.27
13.18
12.27
11.51
10.83
10.19
9.53
8.78
7.87
6.79
5.63
4.48
3.47
2.58
1.70
0.61
-0.91
-2.92
-5.33
-7.90
-10.32
-12.37
-13.98
-15.25
-16.32
-17.39
-18.61
-20.09
-21.93
-24.08
-26.33
-28.26
-29.27
-28.80
-26.56
-22.62
-17.45
-11.73
-6.07
-0.91
3.60
7.46
10.70
13.28
15.04
15.85
15.72
14.82
13.49
12.17
11.19
10.73
10.76
11.09
11.48
11.76
11.84
11.72
11.41
10.87
10.04
8.85
7.35
5.66
3.99
2.48
1.15
-0.14
-1.59
-3.37
-5.49
-7.79
-9.99
-11.83
-13.19
-14.15
-14.92
-15.78
-16.98
-18.65
-20.77
-23.10
-25.22
-26.55
-26.53
-24.76
-21.17
-16.11
-10.21
-4.19
1.37
6.11
9.94
12.89
15.00
16.28
16.75
16.53
15.85
14.96
14.08
13.31
12.64
12.05
11.51
11.11
10.91
10.94
11.09
11.19
11.05
10.55
9.67
8.49
7.17
5.83
4.58
3.43
2.32
1.12
-0.29
-1.94
-3.74
-5.53
-7.12
-8.37
-9.30
-10.05
-10.84
-11.94
-13.55
-15.70
-18.16
-20.44
-21.88
-21.83
-19.88
-16.06
-10.84
-4.95
0.83
5.93
10.09
13.30
15.70
17.37
18.35
18.61
18.21
17.27
16.07
14.90
14.00
13.49
13.35
13.47
13.68
13.85
13.89
13.76
13.43
12.83
11.94
10.76
9.40
8.01
6.71
5.52
4.34
3.01
1.39
-0.51
-2.58
-4.59
-6.35
-7.78
-8.90
-9.88
-10.91
-12.25
-14.06
-16.31
-18.76
-20.88
-22.03
-21.64
-19.41
-15.42
-10.17
-4.32
1.45
6.62
10.87
14.12
16.43
17.89
18.60
18.66
18.14
17.11
15.71
14.13
12.57
11.22
10.19
9.51
9.13
8.93
8.81
8.65
8.36
7.88
7.14
6.15
4.91
3.49
1.92
0.23
-1.58
-3.55
-5.71
-8.05
-10.48
-12.82
-14.90
-16.54
-17.70
-18.49
-19.14
-19.98
-21.27
-23.06
-25.14
-27.03
-28.09
-27.76
-25.71
-21.92
-16.73
-10.68
-4.39
1.59
6.86
11.17
14.42
16.62
17.85
18.25
18.02
17.35
16.42
15.38
14.37
13.48
12.79
12.28
11.89
11.53
11.10
10.59
10.03
9.48
8.95
8.38
7.64
6.55
5.05
3.16
1.06
-1.11
-3.23
-5.28
-7.30
-9.28
-11.15
-12.79
-14.07
-14.96
-15.58
-16.14
-16.90
-18.10
-19.77
-21.76
-23.67
-24.94
-24.99
-23.39
-20.00
-15.08
-9.22
-3.17
2.38
7.03
10.61
13.21
14.94
15.89
16.11
15.66
14.72
13.55
12.43
11.56
10.96
10.55
10.23
9.94
9.73
9.61
9.57
9.47
9.13
8.43
7.39
6.10
4.70
3.24
1.71
0.00
-1.93
-4.04
-6.17
-8.09
-9.63
-10.71
-11.41
-11.94
-12.56
-13.50
-14.92
-16.78
-18.86
-20.77
-21.99
-22.02
-20.50
-17.38
-12.92
-7.66
-2.25
2.76
7.02
10.44
13.07
14.99
16.21
16.69
16.41
15.45
14.04
12.48
11.09
10.09
9.55
9.43
9.58
9.81
9.93
9.82
9.41
8.72
7.86
6.90
5.92
4.88
3.69
2.28
0.63
-1.20
-3.12
-5.01
-6.76
-8.30
-9.60
-10.65
-11.48
-12.20
-13.02
-14.14
-15.68
-17.56
-19.41
-20.65
-20.69
-19.08
-15.75
-10.98
-5.31
0.59
6.17
11.06
15.06
18.11
20.20
21.36
21.66
21.24
20.26
18.94
17.51
16.17
15.06
14.26
13.74
13.39
13.10
12.71
12.14
11.40
10.51
9.55
8.58
7.59
6.49
5.17
3.49
1.39
-1.08
-3.78
-6.52
-9.11
-11.42
-13.38
-14.98
-16.32
-17.53
-18.88
-20.57
-22.70
-25.11
-27.35
-28.77
-28.69
-26.70
-22.79
-17.42
-11.30
-5.20
0.31
4.91
8.57
11.36
13.38
14.67
15.26
15.19
14.61
13.72
12.76
11.94
11.37
11.05
10.90
10.81
10.67
10.39
9.92
9.22
8.30
7.18
5.92
4.56
3.14
1.64
0.06
-1.65
-3.50
-5.43
-7.36
-9.19
-10.84
-12.30
-13.61
-14.86
-16.19
-17.72
-19.55
-21.65
-23.88
-25.90
-27.25
-27.42
-26.03
-22.96
-18.36
-12.67
-6.48
-0.40
5.09
9.68
13.26
15.87
17.62
18.63
19.01
18.85
18.21
17.22
16.00
14.75
13.62
12.72
12.06
11.60
11.28
11.04
10.84
10.61
10.26
9.68
8.78
7.54
6.07
4.51
2.95
1.41
-0.19
-1.96
-3.90
-5.92
-7.82
-9.39
-10.56
-11.40
-12.13
-13.02
-14.31
-16.06
-18.16
-20.32
-22.08
-22.96
-22.52
-20.50
-16.95
-12.23
-6.88
-1.53
3.28
7.30
10.46
12.88
14.65
15.86
16.50
16.53
16.02
15.06
13.83
12.53
11.32
10.32
9.56
9.03
8.68
8.47
8.33
8.22
8.04
7.70
7.08
6.12
4.83
3.34
1.79
0.35
-0.95
-2.13
-3.28
-4.46
-5.63
-6.75
-7.77
-8.74
-9.81
-11.12
-12.77
-14.70
-16.69
-18.32
-19.13
-18.70
-16.81
-13.45
-8.87
-3.50
2.15
7.59
12.43
16.37
19.20
20.84
21.29
20.68
19.25
17.38
15.46
13.86
12.79
12.27
12.17
12.22
12.18
11.88
11.32
10.57
9.71
8.81
7.85
6.76
5.48
3.99
2.30
0.45
-1.53
-3.58
-5.65
-7.62
-9.41
-10.95
-12.21
-13.25
-14.22
-15.33
-16.80
-18.73
-21.07
-23.52
-25.59
-26.70
-26.34
-24.26
-20.53
-15.54
-9.89
-4.19
1.01
5.42
8.90
11.52
13.37
14.54
15.08
14.99
14.29
13.11
11.67
10.24
9.06
8.24
7.79
7.59
7.49
7.36
7.12
6.76
6.25
5.58
4.72
3.72
2.65
1.56
0.50
-0.57
-1.75
-3.17
-4.91
-6.96
-9.17
-11.30
-13.09
-14.36
-15.13
-15.66
-16.34
-17.53
-19.38
-21.66
-23.84
-25.19
-25.10
-23.25
-19.75
-15.02
-9.66
-4.20
0.94
5.54
9.46
12.61
14.87
16.18
16.53
16.06
15.01
13.69
12.43
11.47
10.89
10.66
10.62
10.63
10.59
10.45
10.18
9.78
9.22
8.46
7.50
6.33
5.03
3.64
2.24
0.85
-0.51
-1.85
-3.17
-4.53
-5.95
-7.47
-9.09
-10.72
-12.26
-13.59
-14.69
-15.68
-16.82
-18.32
-20.23
-22.27
-23.89
-24.45
-23.42
-20.65
-16.37
-11.14
-5.58
-0.22
4.56
8.57
11.70
13.91
15.20
15.63
15.39
14.69
13.79
12.85
11.95
11.09
10.28
9.54
8.92
8.49
8.26
8.14
8.03
7.81
7.41
6.87
6.23
5.58
4.91
4.15
3.20
1.93
0.31
-1.57
-3.53
-5.38
-6.92
-8.10
-8.95
-9.66
-10.47
-11.57
-13.05
-14.80
-16.52
-17.82
-18.22
-17.41
-15.20
-11.64
-6.92
-1.36
4.73
10.99
17.07
22.63
27.37
31.05
33.63
35.20
35.95
36.09
35.74
34.93
33.71
32.22
30.75
29.68
29.23
29.31
29.49
29.27
28.24
26.35
23.79
20.77
17.23
12.82
7.14
0.15
-7.70
-15.53
-22.53
-28.41
-33.42
-38.10
-42.65
-46.62
-49.07
-49.09
-46.46
-41.91
-36.86
-32.81
-30.71
-30.66
-32.06
-33.94
-35.24
-35.01
-32.48
-27.19
-19.30
-9.69
0.15
8.63
14.65
18.09
19.67
20.53
21.52
22.90
24.41
25.64
26.38
26.60
26.23
24.88
21.97
17.08
10.37
2.81
-4.20
-9.40
-12.20
-12.90
-12.29
-11.20
-10.09
-8.98
-7.73
-6.38
-5.22
-4.76
-5.44
-7.42
-10.58
-14.59
-19.10
-23.86
-28.74
-33.62
-38.23
-42.05
-44.38
-44.58
-42.35
-38.01
-32.36
-26.47
-21.14
-16.60
-12.41
-7.71
-1.73
5.68
13.93
21.71
27.55
30.25
29.41
25.55
19.93
14.16
9.65
7.21
6.92
8.21
10.20
12.06
13.24
13.53
13.10
12.24
11.30
10.46
9.73
8.89
7.64
5.72
3.03
-0.29
-3.91
-7.40
-10.40
-12.65
-14.11
-14.94
-15.45
-16.07
-17.14
-18.78
-20.73
-22.37
-22.81
-21.27
-17.33
-11.16
-3.51
4.56
11.98
18.00
22.28
24.88
26.07
26.20
25.61
24.61
23.49
22.50
21.79
21.37
21.17
21.01
20.74
20.28
19.63
18.84
18.02
17.25
16.54
15.85
14.99
13.73
11.89
9.42
6.51
3.52
0.86
-1.22
-2.69
-3.83
-5.00
-6.57
-8.73
-11.47
-14.64
-17.93
-20.92
-23.09
-23.88
-22.83
-19.73
-14.80
-8.62
-2.01
4.23
9.54
13.70
16.76
18.86
20.16
20.71
20.53
19.70
18.33
16.60
14.74
12.94
11.35
10.06
9.09
8.36
7.78
7.22
6.59
5.84
4.93
3.84
2.50
0.87
-1.08
-3.26
-5.51
-7.63
-9.52
-11.20
-12.77
-14.39
-16.14
-18.08
-20.22
-22.58
-25.16
-27.87
-30.41
-32.27
-32.81
-31.49
-28.08
-22.79
-16.18
-9.04
-2.09
4.14
9.41
13.65
16.94
19.35
20.92
21.67
21.62
20.90
19.70
18.29
16.94
15.85
15.08
14.56
14.15
13.66
12.97
12.07
11.00
9.84
8.63
7.37
6.02
4.52
2.83
0.96
-1.04
-3.10
-5.16
-7.20
-9.22
-11.22
-13.19
-15.18
-17.23
-19.45
-21.90
-24.52
-27.05
-28.99
-29.75
-28.79
-25.88
-21.17
-15.17
-8.58
-2.09
3.81
8.87
13.01
16.22
18.51
19.89
20.41
20.19
19.43
18.39
17.27
16.21
15.25
14.38
13.53
12.68
11.82
10.95
10.10
9.26
8.47
7.69
6.85
5.82
4.45
2.65
0.47
-1.91
-4.20
-6.16
-7.69
-8.83
-9.76
-10.70
-11.85
-13.33
-15.23
-17.49
-19.86
-21.89
-22.95
-22.45
-20.03
-15.72
-9.98
-3.49
2.98
8.86
13.81
17.76
20.76
22.87
24.16
24.64
24.35
23.45
22.16
20.78
19.56
18.65
18.04
17.56
16.99
16.18
15.08
13.78
12.42
11.09
9.80
8.46
6.96
5.24
3.32
1.28
-0.77
-2.77
-4.65
-6.37
-7.92
-9.26
-10.47
-11.67
-13.09
-14.96
-17.40
-20.35
-23.45
-26.12
-27.64
-27.43
-25.22
-21.17
-15.82
-9.90
-4.07
1.19
5.66
9.26
12.00
13.87
14.89
15.15
14.81
14.08
13.15
12.15
11.18
10.29
9.50
8.84
8.26
7.69
7.05
6.29
5.39
4.42
3.45
2.53
1.69
0.88
0.04
-0.90
-1.98
-3.23
-4.67
-6.29
-8.06
-9.93
-11.78
-13.50
-15.01
-16.36
-17.74
-19.36
-21.33
-23.50
-25.39
-26.37
-25.87
-23.59
-19.67
-14.60
-9.02
-3.54
1.45
5.78
9.44
12.43
14.71
16.20
16.87
16.78
16.16
15.29
14.41
13.65
12.99
12.34
11.65
10.96
10.37
9.95
9.65
9.30
8.68
7.66
6.29
4.74
3.20
1.78
0.45
-0.90
-2.36
-3.95
-5.59
-7.19
-8.68
-10.04
-11.30
-12.50
-13.68
-14.91
-16.26
-17.83
-19.64
-21.58
-23.30
-24.30
-24.02
-22.08
-18.43
-13.44
-7.79
-2.23
2.65
6.59
9.62
11.91
13.64
14.86
15.49
15.47
14.83
13.74
12.48
11.29
10.33
9.64
9.19
8.91
8.77
8.72
8.70
8.60
8.32
7.84
7.25
6.65
6.15
5.73
5.25
4.52
3.42
1.94
0.23
-1.48
-3.03
-4.36
-5.52
-6.63
-7.79
-9.05
-10.44
-11.99
-13.65
-15.34
-16.80
-17.66
-17.48
-15.96
-12.99
-8.79
-3.82
1.34
6.16
10.29
13.53
15.84
17.28
17.92
17.82
17.08
15.79
14.15
12.37
10.72
9.41
8.54
8.10
7.95
7.86
7.62
7.08
6.23
5.14
3.97
2.88
1.93
1.07
0.16
-0.98
-2.46
-4.28
-6.32
-8.39
-10.29
-11.88
-13.14
-14.11
-14.90
-15.70
-16.73
-18.22
-20.23
-22.60
-24.90
-26.48
-26.70
-25.13
-21.76
-16.99
-11.45
-5.83
-0.66
3.76
7.34
10.08
12.05
13.30
13.86
13.83
13.31
12.42
11.32
10.18
9.14
8.32
7.76
7.44
7.28
7.19
7.09
6.90
6.60
6.18
5.63
4.94
4.09
3.04
1.77
0.28
-1.38
-3.13
-4.91
-6.68
-8.38
-9.94
-11.27
-12.33
-13.18
-14.06
-15.27
-17.12
-19.65
-22.55
-25.16
-26.65
-26.35
-23.99
-19.79
-14.38
-8.52
-2.90
2.08
6.23
9.54
12.04
13.72
14.56
14.62
14.04
13.06
11.94
10.87
9.98
9.28
8.74
8.29
7.90
7.51
7.12
6.75
6.41
6.09
5.77
5.36
4.81
4.01
2.96
1.66
0.18
-1.43
-3.09
-4.76
-6.38
-7.92
-9.37
-10.79
-12.25
-13.87
-15.73
-17.84
-20.10
-22.22
-23.82
-24.41
-23.60
-21.14
-17.15
-12.04
-6.48
-1.11
3.57
7.38
10.36
12.66
14.39
15.51
15.97
15.76
15.03
14.08
13.22
12.66
12.41
12.33
12.20
11.91
11.45
10.93
10.47
10.16
9.96
9.75
9.37
8.69
7.65
6.29
4.73
3.08
1.47
-0.04
-1.48
-2.88
-4.33
-5.92
-7.73
-9.82
-12.17
-14.66
-16.99
-18.73
-19.41
-18.64
-16.21
-12.21
-6.98
-1.05
4.97
10.54
15.18
18.61
20.70
21.47
21.12
19.90
18.18
16.26
14.46
12.96
11.83
11.03
10.43
9.88
9.26
8.53
7.72
6.86
5.98
5.04
4.05
2.95
1.77
0.49
-0.89
-2.42
-4.10
-5.92
-7.80
-9.63
-11.37
-13.03
-14.76
-16.78
-19.25
-22.19
-25.34
-28.13
-29.88
-29.95
-27.95
-23.93
-18.28
-11.71
-4.93
1.45
7.01
11.55
14.93
17.11
18.10
17.97
16.99
15.50
13.90
12.54
11.60
11.07
10.81
10.60
10.24
9.66
8.84
7.87
6.86
5.89
5.00
4.17
3.30
2.28
0.98
-0.68
-2.67
-4.83
-6.96
-8.88
-10.51
-11.98
-13.49
-15.25
-17.38
-19.80
-22.27
-24.44
-25.91
-26.30
-25.29
-22.70
-18.60
-13.29
-7.28
-1.16
4.56
9.52
13.52
16.52
18.45
19.30
19.08
17.95
16.20
14.25
12.53
11.31
10.70
10.55
10.61
10.58
10.28
9.66
8.81
7.89
6.99
6.12
5.19
4.10
2.76
1.16
-0.63
-2.52
-4.43
-6.30
-8.08
-9.79
-11.43
-13.05
-14.75
-16.58
-18.54
-20.51
-22.23
-23.28
-23.22
-21.70
-18.57
-14.04
-8.56
-2.77
2.72
7.47
11.25
14.00
15.72
16.43
16.20
15.17
13.64
11.98
10.62
9.82
9.65
9.97
10.50
10.94
11.10
10.93
10.54
10.06
9.63
9.23
8.79
8.12
7.08
5.63
3.81
1.81
-0.18
-1.98
-3.53
-4.85
-6.07
-7.37
-8.94
-10.89
-13.18
-15.54
-17.47
-18.38
-17.74
-15.29
-11.15
-5.79
0.10
5.90
11.11
15.48
18.91
21.38
22.85
23.31
22.79
21.46
19.60
17.57
15.70
14.18
13.02
12.08
11.15
10.10
8.94
7.81
6.87
6.19
5.69
5.12
4.22
2.79
0.83
-1.49
-3.93
-6.24
-8.23
-9.86
-11.17
-12.32
-13.51
-15.01
-16.99
-19.54
-22.53
-25.56
-28.05
-29.33
-28.82
-26.25
-21.79
-15.99
-9.62
-3.45
1.98
6.45
10.00
12.75
14.84
16.24
16.88
16.70
15.75
14.29
12.67
11.22
10.15
9.47
9.04
8.66
8.21
7.70
7.19
6.76
6.42
6.06
5.51
4.63
3.34
1.66
-0.31
-2.42
-4.53
-6.50
-8.27
-9.86
-11.35
-12.89
-14.61
-16.64
-19.02
-21.70
-24.46
-26.92
-28.56
-28.81
-27.25
-23.77
-18.68
-12.60
-6.30
-0.47
4.46
8.33
11.21
13.22
14.49
15.10
15.15
14.77
14.11
13.32
12.51
11.76
11.09
10.49
9.94
9.44
9.00
8.59
8.20
7.80
7.32
6.73
5.98
5.02
3.83
2.41
0.84
-0.80
-2.39
-3.85
-5.16
-6.37
-7.56
-8.85
-10.36
-12.17
-14.31
-16.69
-19.08
-21.08
-22.20
-21.97
-20.09
-16.58
-11.79
-6.32
-0.82
4.15
8.29
11.53
13.95
15.68
16.76
17.20
17.00
16.27
15.25
14.27
13.59
13.34
13.47
13.75
13.97
13.98
13.73
13.30
12.78
12.27
11.79
11.31
10.76
10.04
9.08
7.81
6.22
4.37
2.37
0.34
-1.60
-3.40
-5.08
-6.71
-8.41
-10.31
-12.49
-14.94
-17.48
-19.74
-21.22
-21.40
-19.90
-16.69
-12.08
-6.72
-1.35
3.44
7.31
10.19
12.22
13.52
14.18
14.24
13.78
12.92
11.88
10.86
10.00
9.36
8.90
8.57
8.29
8.01
7.64
7.13
6.46
5.63
4.68
3.66
2.58
1.38
0.03
-1.54
-3.32
-5.27
-7.35
-9.49
-11.62
-13.68
-15.57
-17.21
-18.56
-19.65
-20.64
-21.71
-22.95
-24.25
-25.30
-25.61
-24.74
-22.45
-18.81
-14.19
-9.13
-4.13
0.45
4.43
7.77
10.51
12.65
14.21
15.19
15.60
15.49
14.94
14.08
13.07
12.03
11.03
10.09
9.21
8.36
7.56
6.86
6.30
5.89
5.55
5.16
4.57
3.69
2.53
1.15
-0.35
-1.89
-3.46
-5.07
-6.73
-8.41
-10.05
-11.54
-12.84
-13.94
-14.96
-16.08
-17.48
-19.22
-21.18
-23.02
-24.23
-24.28
-22.77
-19.59
-14.98
-9.48
-3.76
1.51
5.90
9.27
11.69
13.37
14.49
15.12
15.25
14.89
14.13
13.13
12.13
11.29
10.67
10.24
9.95
9.72
9.48
9.19
8.82
8.35
7.78
7.13
6.43
5.62
4.62
3.36
1.84
0.16
-1.50
-2.99
-4.26
-5.36
-6.44
-7.57
-8.75
-9.91
-11.00
-12.05
-13.12
-14.22
-15.21
-15.76
-15.47
-14.02
-11.30
-7.51
-3.04
1.69
6.30
10.58
14.36
17.53
19.91
21.31
21.62
20.88
19.32
17.33
15.29
13.55
12.26
11.42
10.91
10.59
10.32
9.97
9.47
8.80
7.97
7.06
6.15
5.31
4.51
3.63
2.52
1.06
-0.74
-2.72
-4.71
-6.55
-8.21
-9.76
-11.29
-12.89
-14.56
-16.30
-18.09
-19.95
-21.79
-23.35
-24.24
-23.96
-22.16
-18.81
-14.22
-8.98
-3.70
1.16
5.40
8.98
11.93
14.19
15.61
16.05
15.50
14.16
12.39
10.59
9.04
7.87
6.99
6.29
5.65
5.03
4.47
3.99
3.61
3.30
3.03
2.73
2.34
1.76
0.93
-0.20
-1.61
-3.23
-4.95
-6.69
-8.37
-9.92
-11.33
-12.56
-13.61
-14.58
-15.63
-16.96
-18.68
-20.72
-22.74
-24.20
-24.51
-23.22
-20.23
-15.82
-10.57
-5.15
-0.08
4.34
8.04
11.06
13.41
15.04
15.83
15.78
15.03
13.83
12.50
11.27
10.26
9.48
8.89
8.44
8.11
7.87
7.67
7.47
7.18
6.73
6.06
5.07
3.75
2.14
0.37
-1.39
-3.01
-4.44
-5.74
-7.02
-8.34
-9.66
-10.92
-12.08
-13.23
-14.57
-16.28
-18.37
-20.64
-22.63
-23.78
-23.55
-21.66
-18.13
-13.33
-7.83
-2.29
2.78
7.06
10.41
12.84
14.36
14.99
14.76
13.83
12.47
11.04
9.90
9.21
8.97
9.00
9.04
8.91
8.51
7.85
7.03
6.14
5.29
4.53
3.82
3.09
2.21
1.06
-0.41
-2.13
-3.98
-5.76
-7.34
-8.65
-9.70
-10.63
-11.62
-12.88
-14.53
-16.54
-18.61
-20.22
-20.69
-19.50
-16.43
-11.68
-5.84
0.38
6.33
11.59
15.94
19.34
21.73
23.10
23.43
22.80
21.43
19.62
17.71
16.00
14.67
13.75
13.14
12.65
12.09
11.38
10.54
9.70
8.93
8.21
7.39
6.24
4.61
2.51
0.13
-2.25
-4.37
-6.15
-7.62
-8.96
-10.37
-12.04
-14.13
-16.71
-19.75
-22.97
-25.91
-27.92
-28.33
-26.68
-22.86
-17.20
-10.37
-3.21
3.49
9.15
13.47
16.41
18.09
18.67
18.32
17.23
15.66
13.92
12.37
11.22
10.53
10.13
9.72
9.07
8.12
7.00
5.97
5.22
4.78
4.46
3.94
2.90
1.21
-1.05
-3.64
-6.22
-8.52
-10.41
-11.96
-13.37
-14.92
-16.81
-19.20
-22.06
-25.23
-28.31
-30.73
-31.84
-31.03
-28.01
-22.89
-16.22
-8.80
-1.48
5.07
10.50
14.66
17.61
19.42
20.19
20.03
19.10
17.64
15.95
14.29
12.90
11.87
11.17
10.67
10.21
9.68
9.03
8.31
7.62
7.02
6.43
5.64
4.41
2.56
0.15
-2.50
-4.98
-6.93
-8.30
-9.32
-10.44
-12.04
-14.28
-17.04
-20.05
-22.98
-25.47
-27.17
-27.63
-26.40
-23.21
-18.10
-11.59
-4.48
2.40
8.44
13.36
17.15
19.85
21.48
22.00
21.42
19.89
17.77
15.48
13.42
11.83
10.76
10.06
9.55
9.08
8.58
8.10
7.68
7.28
6.78
5.97
4.68
2.88
0.73
-1.51
-3.59
-5.38
-6.92
-8.32
-9.75
-11.31
-13.08
-15.07
-17.24
-19.43
-21.29
-22.34
-22.05
-20.05
-16.25
-10.94
-4.69
1.80
7.90
13.16
17.35
20.38
22.20
22.82
22.29
20.77
18.60
16.24
14.16
12.64
11.72
11.17
10.69
10.05
9.21
8.32
7.61
7.20
7.02
6.83
6.35
5.33
3.65
1.40
-1.24
-3.97
-6.53
-8.71
-10.43
-11.74
-12.87
-14.11
-15.72
-17.77
-20.04
-22.02
-23.01
-22.41
-19.90
-15.57
-9.93
-3.64
2.65
8.47
13.57
17.82
21.12
23.34
24.37
24.24
23.14
21.46
19.63
17.99
16.70
15.72
14.86
13.92
12.77
11.47
10.20
9.23
8.76
8.82
9.19
9.49
9.29
8.24
6.24
3.44
0.15
-3.27
-6.56
-9.57
-12.29
-14.77
-17.13
-19.48
-21.92
-24.45
-26.86
-28.75
-29.57
-28.80
-26.18
-21.79
-16.12
-9.83
-3.61
2.05
6.85
10.73
13.66
15.61
16.57
16.56
15.76
14.45
13.01
11.75
10.82
10.20
9.73
9.23
8.60
7.83
7.01
6.25
5.64
5.19
4.85
4.45
3.78
2.67
0.99
-1.19
-3.69
-6.24
-8.60
-10.62
-12.31
-13.76
-15.08
-16.40
-17.83
-19.49
-21.40
-23.42
-25.24
-26.33
-26.17
-24.39
-20.98
-16.25
-10.76
-5.07
0.40
5.38
9.74
13.38
16.14
17.83
18.37
17.87
16.62
15.05
13.59
12.53
11.93
11.65
11.44
11.07
10.44
9.54
8.53
7.56
6.72
6.03
5.39
4.71
3.84
2.73
1.35
-0.27
-2.10
-4.02
-5.94
-7.74
-9.32
-10.65
-11.75
-12.73
-13.70
-14.80
-16.17
-17.84
-19.74
-21.56
-22.84
-23.05
-21.75
-18.82
-14.47
-9.25
-3.79
1.30
5.69
9.25
12.01
14.00
15.25
15.77
15.62
14.96
14.00
12.99
12.08
11.34
10.73
10.18
9.63
9.05
8.44
7.80
7.11
6.38
5.65
4.93
4.28
3.67
3.05
2.33
1.40
0.21
-1.19
-2.70
-4.19
-5.57
-6.78
-7.86
-8.88
-9.94
-11.13
-12.50
-14.04
-15.62
-16.97
-17.67
-17.31
-15.59
-12.44
-8.11
-3.06
2.16
7.06
11.34
14.84
17.46
19.12
19.83
19.61
18.65
17.22
15.64
14.17
13.03
12.28
11.91
11.82
11.85
11.81
11.56
11.01
10.20
9.22
8.21
7.23
6.26
5.23
4.04
2.61
0.92
-1.01
-3.09
-5.22
-7.24
-9.01
-10.46
-11.62
-12.66
-13.84
-15.40
-17.43
-19.84
-22.29
-24.26
-25.21
-24.65
-22.34
-18.38
-13.17
-7.37
-1.66
3.37
7.42
10.39
12.36
13.43
13.74
13.38
12.48
11.24
9.90
8.70
7.82
7.28
6.97
6.72
6.37
5.83
5.18
4.53
4.02
3.66
3.33
2.83
2.01
0.85
-0.55
-2.08
-3.71
-5.49
-7.49
-9.74
-12.05
-14.14
-15.75
-16.78
-17.36
-17.84
-18.62
-19.97
-21.92
-24.18
-26.17
-27.20
-26.66
-24.23
-20.03
-14.53
-8.48
-2.55
2.79
7.35
11.13
14.16
16.43
17.82
18.29
17.87
16.79
15.38
13.99
12.84
12.01
11.44
11.01
10.66
10.33
10.06
9.84
9.65
9.41
9.03
8.47
7.72
6.80
5.72
4.44
2.90
1.08
-1.02
-3.26
-5.46
-7.46
-9.16
-10.58
-11.84
-13.10
-14.54
-16.29
-18.38
-20.69
-22.91
-24.52
-24.97
-23.78
-20.79
-16.22
-10.60
-4.62
1.14
6.24
10.48
13.75
15.98
17.13
17.25
16.50
15.16
13.56
11.99
10.63
9.56
8.74
8.16
7.78
7.56
7.46
7.43
7.42
7.40
7.31
7.09
6.65
5.92
4.86
3.52
1.97
0.30
-1.45
-3.22
-4.98
-6.66
-8.20
-9.57
-10.79
-11.96
-13.26
-14.84
-16.79
-19.03
-21.22
-22.85
-23.28
-22.00
-18.78
-13.84
-7.77
-1.40
4.50
9.36
12.96
15.30
16.56
16.95
16.62
15.71
14.40
12.87
11.35
10.06
9.16
8.70
8.62
8.73
8.85
8.83
8.61
8.25
7.82
7.38
6.88
6.20
5.18
3.72
1.88
-0.20
-2.28
-4.14
-5.68
-6.91
-7.96
-9.01
-10.25
-11.79
-13.70
-15.91
-18.25
-20.37
-21.82
-22.09
-20.79
-17.78
-13.26
-7.72
-1.79
3.90
8.88
12.89
15.83
17.72
18.63
18.64
17.91
16.66
15.19
13.79
12.68
11.94
11.50
11.22
10.93
10.50
9.90
9.18
8.43
7.77
7.28
6.91
6.52
5.89
4.85
3.31
1.37
-0.74
-2.74
-4.45
-5.83
-7.02
-8.21
-9.58
-11.25
-13.24
-15.46
-17.71
-19.66
-20.84
-20.72
-18.94
-15.39
-10.34
-4.35
1.86
7.62
12.46
16.13
18.60
19.94
20.25
19.65
18.32
16.49
14.42
12.38
10.59
9.17
8.13
7.33
6.63
5.88
5.04
4.16
3.36
2.74
2.25
1.74
0.97
-0.25
-2.01
-4.18
-6.47
-8.59
-10.33
-11.71
-12.92
-14.21
-15.85
-17.96
-20.51
-23.36
-26.27
-28.91
-30.86
-31.61
-30.70
-27.85
-23.11
-16.94
-10.04
-3.21
2.90
7.94
11.80
14.56
16.33
17.21
17.28
16.65
15.49
14.08
12.70
11.59
10.91
10.65
10.66
10.72
10.64
10.29
9.69
8.99
8.33
7.84
7.46
6.98
6.11
4.61
2.42
-0.26
-3.07
-5.65
-7.75
-9.40
-10.81
-12.28
-14.05
-16.23
-18.76
-21.47
-24.04
-26.06
-27.04
-26.51
-24.15
-19.96
-14.31
-7.84
-1.30
4.69
9.72
13.66
16.50
18.26
19.00
18.80
17.81
16.29
14.54
12.85
11.46
10.45
9.80
9.41
9.14
8.84
8.43
7.90
7.26
6.57
5.85
5.04
4.06
2.84
1.37
-0.27
-1.96
-3.58
-5.05
-6.37
-7.58
-8.75
-9.98
-11.37
-13.04
-15.06
-17.40
-19.87
-22.08
-23.55
-23.78
-22.39
-19.28
-14.62
-8.92
-2.83
2.95
7.88
11.66
14.25
15.78
16.45
16.39
15.70
14.52
13.05
11.60
10.47
9.85
9.73
9.93
10.16
10.21
9.99
9.57
9.08
8.64
8.27
7.90
7.38
6.51
5.16
3.30
1.07
-1.29
-3.46
-5.19
-6.42
-7.28
-8.05
-9.07
-10.58
-12.65
-15.10
-17.49
-19.25
-19.75
-18.52
-15.41
-10.63
-4.78
1.44
7.34
12.45
16.57
19.66
21.77
22.97
23.29
22.79
21.60
19.98
18.20
16.58
15.28
14.37
13.73
13.21
12.66
12.01
11.26
10.47
9.68
8.85
7.87
6.60
4.96
2.94
0.63
-1.83
-4.29
-6.60
-8.73
-10.67
-12.47
-14.21
-16.00
-17.92
-20.05
-22.45
-25.01
-27.46
-29.31
-29.94
-28.82
-25.74
-20.92
-14.98
-8.71
-2.82
2.28
6.51
9.91
12.55
14.41
15.39
15.46
14.74
13.50
12.10
10.86
9.97
9.47
9.27
9.22
9.18
9.04
8.70
8.13
7.37
6.45
5.46
4.42
3.30
1.99
0.40
-1.51
-3.66
-5.87
-7.92
-9.64
-11.03
-12.22
-13.40
-14.77
-16.46
-18.51
-20.85
-23.28
-25.48
-26.97
-27.20
-25.74
-22.42
-17.46
-11.46
-5.19
0.62
5.51
9.34
12.24
14.38
15.86
16.71
16.90
16.49
15.64
14.60
13.60
12.77
12.13
11.59
11.06
10.48
9.86
9.23
8.61
7.99
7.31
6.50
5.49
4.29
2.94
1.50
-0.00
-1.55
-3.18
-4.90
-6.65
-8.33
-9.82
-11.03
-12.02
-12.93
-13.99
-15.39
-17.18
-19.22
-21.18
-22.59
-22.97
-21.96
-19.41
-15.47
-10.51
-5.07
0.34
5.25
9.38
12.62
14.95
16.46
17.23
17.35
16.89
15.94
14.63
13.18
11.84
10.84
10.30
10.16
10.23
10.27
10.08
9.61
8.93
8.17
7.41
6.66
5.80
4.75
3.41
1.87
0.25
-1.30
-2.68
-3.93
-5.14
-6.42
-7.78
-9.14
-10.41
-11.61
-12.86
-14.32
-16.02
-17.70
-18.82
-18.72
-16.87
-13.18
-8.01
-2.07
3.86
9.21
13.69
17.23
19.89
21.66
22.53
22.45
21.50
19.88
17.90
15.90
14.19
12.91
12.07
11.56
11.16
10.65
9.92
8.96
7.85
6.71
5.61
4.54
3.41
2.11
0.58
-1.18
-3.11
-5.13
-7.17
-9.15
-10.99
-12.64
-14.07
-15.29
-16.42
-17.62
-19.09
-21.00
-23.38
-26.03
-28.46
-29.99
-29.94
-27.89
-23.87
-18.33
-12.06
-5.84
-0.21
4.57
8.50
11.65
14.02
15.57
16.22
16.03
15.21
14.07
12.93
12.04
11.50
11.27
11.24
11.24
11.12
10.76
10.12
9.23
8.18
7.09
6.05
5.06
4.06
2.95
1.67
0.18
-1.46
-3.22
-5.07
-6.98
-8.91
-10.72
-12.28
-13.46
-14.29
-14.98
-15.89
-17.38
-19.57
-22.24
-24.75
-26.28
-26.08
-23.78
-19.49
-13.80
-7.58
-1.62
3.51
7.62
10.79
13.24
15.16
16.59
17.47
17.69
17.20
16.11
14.66
13.17
11.91
11.04
10.53
10.24
10.00
9.70
9.30
8.84
8.32
7.75
7.07
6.21
5.16
3.92
2.54
1.05
-0.57
-2.30
-4.12
-5.95
-7.68
-9.24
-10.58
-11.75
-12.86
-14.04
-15.42
-17.11
-19.11
-21.29
-23.25
-24.46
-24.31
-22.38
-18.61
-13.35
-7.28
-1.19
4.32
8.85
12.30
14.67
16.06
16.54
16.24
15.35
14.11
12.80
11.63
10.76
10.22
9.99
9.96
10.00
9.96
9.71
9.22
8.53
7.73
6.94
6.18
5.40
4.47
3.24
1.64
-0.31
-2.41
-4.42
-6.09
-7.30
-8.14
-8.82
-9.67
-10.98
-12.91
-15.39
-18.12
-20.62
-22.29
-22.55
-21.03
-17.63
-12.60
-6.53
-0.14
5.90
11.09
15.21
18.26
20.33
21.55
21.97
21.61
20.56
18.98
17.17
15.46
14.11
13.24
12.74
12.40
11.98
11.35
10.49
9.51
8.51
7.56
6.65
5.70
4.58
3.23
1.61
-0.23
-2.24
-4.31
-6.36
-8.34
-10.23
-12.01
-13.76
-15.58
-17.64
-20.03
-22.71
-25.37
-27.43
-28.21
-27.15
-24.03
-19.13
-13.15
-6.88
-1.04
4.01
8.18
11.53
14.12
15.91
16.82
16.82
15.99
14.58
12.93
11.36
10.12
9.30
8.84
8.57
8.31
7.91
7.33
6.59
5.80
5.00
4.18
3.24
2.05
0.52
-1.36
-3.48
-5.67
-7.73
-9.51
-10.95
-12.09
-13.09
-14.20
-15.67
-17.65
-20.13
-22.88
-25.48
-27.44
-28.22
-27.42
-24.86
-20.61
-15.01
-8.62
-2.08
4.01
9.19
13.22
16.03
17.69
18.33
18.16
17.45
16.46
15.44
14.52
13.75
13.09
12.48
11.89
11.35
10.88
10.48
10.09
9.66
9.12
8.42
7.54
6.38
4.89
3.02
0.82
-1.52
-3.76
-5.69
-7.23
-8.45
-9.55
-10.76
-12.26
-14.19
-16.57
-19.28
-22.09
-24.59
-26.25
-26.55
-25.11
-21.86
-17.09
-11.37
-5.40
0.20
5.06
9.06
12.24
14.68
16.41
17.38
17.55
16.98
15.85
14.46
13.12
12.04
11.33
10.95
10.75
10.57
10.28
9.79
9.11
8.28
7.38
6.47
5.51
4.44
3.12
1.48
-0.51
-2.75
-5.06
-7.21
-9.05
-10.49
-11.58
-12.51
-13.53
-14.87
-16.61
-18.65
-20.63
-22.02
-22.27
-20.98
-18.02
-13.59
-8.19
-2.42
3.11
7.94
11.77
14.55
16.32
17.20
17.34
16.84
15.86
14.60
13.30
12.20
11.47
11.11
10.97
10.80
10.39
9.69
8.80
7.91
7.17
6.58
6.04
5.35
4.32
2.85
0.96
-1.23
-3.52
-5.67
-7.52
-8.98
-10.06
-10.93
-11.81
-12.92
-14.44
-16.35
-18.43
-20.27
-21.32
-21.09
-19.30
-15.99
-11.50
-6.31
-0.96
4.15
8.73
12.60
15.61
17.65
18.67
18.72
18.00
16.77
15.34
13.95
12.79
11.94
11.36
10.95
10.55
10.09
9.55
9.00
8.56
8.25
8.00
7.62
6.91
5.72
4.01
1.94
-0.29
-2.47
-4.47
-6.25
-7.84
-9.31
-10.72
-12.11
-13.57
-15.22
-17.13
-19.23
-21.16
-22.38
-22.26
-20.33
-16.49
-11.10
-4.82
1.60
7.53
12.60
16.66
19.74
21.85
23.04
23.32
22.74
21.46
19.73
17.86
16.14
14.75
13.77
13.09
12.53
11.95
11.22
10.32
9.28
8.12
6.90
5.61
4.23
2.77
1.22
-0.45
-2.23
-4.13
-6.12
-8.17
-10.19
-12.11
-13.89
-15.52
-17.09
-18.70
-20.47
-22.47
-24.62
-26.63
-28.09
-28.52
-27.53
-24.95
-20.90
-15.74
-9.98
-4.14
1.36
6.21
10.27
13.48
15.82
17.33
18.03
17.94
17.16
15.84
14.22
12.60
11.25
10.32
9.79
9.52
9.27
8.88
8.30
7.57
6.81
6.12
5.48
4.80
3.95
2.82
1.33
-0.46
-2.45
-4.46
-6.38
-8.13
-9.72
-11.18
-12.54
-13.84
-15.13
-16.49
-18.01
-19.78
-21.76
-23.70
-25.15
-25.55
-24.43
-21.58
-17.16
-11.61
-5.58
0.30
5.56
9.95
13.38
15.89
17.53
18.36
18.44
17.87
16.84
15.57
14.31
13.23
12.40
11.77
11.26
10.79
10.31
9.84
9.40
8.99
8.56
8.02
7.26
6.20
4.84
3.23
1.52
-0.14
-1.64
-3.02
-4.36
-5.80
-7.37
-8.96
-10.38
-11.46
-12.18
-12.70
-13.33
-14.31
-15.73
-17.39
-18.89
-19.71
-19.42
-17.77
-14.79
-10.77
-6.10
-1.26
3.36
7.49
10.95
13.66
15.58
16.66
16.88
16.29
15.03
13.36
11.60
10.05
8.91
8.21
7.85
7.64
7.42
7.11
6.70
6.27
5.87
5.51
5.15
4.70
4.09
3.26
2.22
0.94
-0.54
-2.19
-3.94
-5.67
-7.28
-8.66
-9.74
-10.55
-11.20
-11.88
-12.79
-14.06
-15.59
-17.04
-17.87
-17.51
-15.61
-12.18
-7.57
-2.38
2.76
7.39
11.26
14.29
16.48
17.88
18.52
18.48
17.86
16.83
15.57
14.26
13.08
12.15
11.50
11.08
10.78
10.48
10.15
9.80
9.45
9.06
8.51
7.63
6.30
4.55
2.49
0.33
-1.75
-3.66
-5.36
-6.88
-8.25
-9.56
-10.84
-12.18
-13.67
-15.35
-17.30
-19.48
-21.78
-23.94
-25.57
-26.18
-25.38
-23.00
-19.21
-14.45
-9.31
-4.35
0.04
3.68
6.53
8.63
9.98
10.62
10.59
9.99
9.05
8.01
7.10
6.49
6.22
6.17
6.19
6.08
5.77
5.30
4.77
4.32
3.94
3.56
3.00
2.14
0.95
-0.50
-2.08
-3.73
-5.45
-7.26
-9.18
-11.11
-12.93
-14.51
-15.88
-17.15
-18.55
-20.27
-22.32
-24.52
-26.47
-27.68
-27.69
-26.24
-23.31
-19.13
-14.12
-8.73
-3.37
1.65
6.10
9.81
12.63
14.46
15.30
15.27
14.62
13.63
12.61
11.77
11.21
10.91
10.79
10.68
10.43
9.95
9.24
8.33
7.36
6.43
5.62
4.92
4.26
3.51
2.54
1.29
-0.21
-1.87
-3.58
-5.27
-6.91
-8.53
-10.14
-11.78
-13.49
-15.31
-17.34
-19.61
-22.01
-24.22
-25.76
-26.10
-24.88
-22.01
-17.69
-12.34
-6.47
-0.58
4.93
9.72
13.55
16.26
17.83
18.36
18.08
17.27
16.18
15.04
13.97
13.06
12.31
11.69
11.16
10.68
10.24
9.85
9.52
9.22
8.83
8.25
7.33
6.02
4.34
2.41
0.38
-1.62
-3.50
-5.25
-6.84
-8.28
-9.58
-10.78
-11.97
-13.33
-15.02
-17.16
-19.70
-22.38
-24.68
-25.97
-25.66
-23.42
-19.32
-13.82
-7.62
-1.43
4.23
9.07
13.01
15.99
17.96
18.84
18.64
17.53
15.86
14.05
12.50
11.40
10.77
10.50
10.45
10.47
10.48
10.43
10.31
10.09
9.79
9.35
8.71
7.73
6.29
4.33
1.91
-0.75
-3.38
-5.70
-7.56
-8.99
-10.16
-11.39
-12.98
-15.16
-17.96
-21.14
-24.21
-26.50
-27.32
-26.18
-22.93
-17.82
-11.41
-4.42
2.50
8.84
14.28
18.64
21.77
23.55
23.97
23.13
21.35
19.12
16.93
15.14
13.91
13.20
12.78
12.43
11.95
11.25
10.35
9.38
8.48
7.76
7.20
6.65
5.87
4.65
2.88
0.61
-1.98
-4.65
-7.21
-9.53
-11.58
-13.43
-15.18
-16.99
-19.04
-21.35
-23.75
-25.83
-27.02
-26.74
-24.61
-20.54
-14.74
-7.67
0.08
7.84
14.98
20.97
25.40
28.08
29.08
28.62
27.10
24.96
22.67
20.64
19.18
18.43
18.31
18.54
18.75
18.56
17.76
16.37
14.63
12.87
11.33
10.06
8.87
7.45
5.51
2.97
-0.04
-3.19
-6.11
-8.55
-10.45
-12.01
-13.52
-15.33
-17.66
-20.52
-23.63
-26.49
-28.47
-28.97
-27.57
-24.17
-19.05
-12.78
-6.05
0.50
6.40
11.40
15.40
18.36
20.24
21.02
20.78
19.70
18.13
16.40
14.83
13.56
12.56
11.73
10.93
10.11
9.29
8.56
7.99
7.57
7.21
6.69
5.76
4.26
2.16
-0.39
-3.09
-5.63
-7.82
-9.62
-11.15
-12.61
-14.15
-15.87
-17.78
-19.89
-22.21
-24.68
-27.13
-29.17
-30.24
-29.80
-27.46
-23.24
-17.49
-10.85
-4.00
2.46
8.14
12.86
16.55
19.19
20.78
21.35
20.99
19.87
18.30
16.61
15.12
14.01
13.30
12.85
12.48
12.06
11.55
11.02
10.51
10.00
9.36
8.47
7.27
5.83
4.32
2.85
1.44
-0.02
-1.68
-3.59
-5.63
-7.57
-9.21
-10.46
-11.46
-12.47
-13.81
-15.68
-18.07
-20.74
-23.22
-24.95
-25.40
-24.21
-21.35
-17.04
-11.74
-6.01
-0.35
4.85
9.31
12.86
15.42
16.99
17.64
17.50
16.78
15.69
14.44
13.26
12.32
11.71
11.40
11.22
11.01
10.66
10.12
9.47
8.79
8.09
7.34
6.46
5.37
4.10
2.68
1.15
-0.48
-2.27
-4.21
-6.24
-8.23
-10.02
-11.48
-12.59
-13.42
-14.16
-14.99
-16.10
-17.53
-19.13
-20.55
-21.31
-20.94
-19.14
-15.91
-11.55
-6.55
-1.48
3.18
7.07
10.03
12.04
13.21
13.72
13.76
13.44
12.87
12.11
11.25
10.40
9.71
9.26
9.07
9.03
9.02
8.89
8.60
8.16
7.62
7.02
6.36
5.59
4.67
3.60
2.37
1.03
-0.39
-1.87
-3.37
-4.85
-6.25
-7.49
-8.54
-9.41
-10.22
-11.12
-12.29
-13.82
-15.60
-17.29
-18.38
-18.28
-16.57
-13.17
-8.38
-2.84
2.72
7.65
11.58
14.41
16.26
17.28
17.64
17.43
16.76
15.73
14.51
13.24
12.06
11.02
10.16
9.46
8.87
8.31
7.68
6.94
6.07
5.14
4.20
3.27
2.35
1.38
0.35
-0.79
-2.06
-3.51
-5.18
-7.08
-9.13
-11.18
-13.04
-14.59
-15.79
-16.77
-17.75
-18.93
-20.49
-22.42
-24.51
-26.33
-27.31
-26.89
-24.75
-20.94
-15.89
-10.28
-4.78
0.12
4.23
7.55
10.17
12.13
13.40
13.92
13.76
13.07
12.15
11.27
10.58
10.08
9.65
9.13
8.46
7.63
6.77
6.01
5.43
4.96
4.49
3.84
2.95
1.81
0.54
-0.77
-2.06
-3.41
-4.90
-6.65
-8.63
-10.75
-12.83
-14.68
-16.19
-17.36
-18.35
-19.40
-20.70
-22.33
-24.08
-25.50
-25.99
-25.02
-22.35
-18.13
-12.82
-7.08
-1.48
3.54
7.73
10.99
13.30
14.70
15.27
15.18
14.62
13.82
12.99
12.30
11.84
11.61
11.53
11.46
11.24
10.79
10.14
9.38
8.62
7.89
7.15
6.29
5.24
4.00
2.63
1.19
-0.31
-1.90
-3.63
-5.49
-7.42
-9.33
-11.15
-12.86
-14.56
-16.37
-18.41
-20.71
-23.10
-25.21
-26.58
-26.69
-25.23
-22.15
-17.74
-12.49
-7.02
-1.81
2.83
6.82
10.20
13.01
15.18
16.61
17.19
16.93
16.02
14.74
13.41
12.23
11.28
10.52
9.86
9.24
8.66
8.16
7.74
7.40
7.10
6.75
6.28
5.55
4.46
2.97
1.15
-0.82
-2.74
-4.43
-5.83
-6.99
-8.06
-9.20
-10.54
-12.18
-14.15
-16.40
-18.68
-20.57
-21.51
-20.95
-18.60
-14.55
-9.27
-3.44
2.25
7.30
11.49
14.77
17.18
18.76
19.50
19.43
18.68
17.51
16.21
15.04
14.13
13.46
12.95
12.45
11.91
11.33
10.72
10.14
9.59
9.07
8.56
8.02
7.37
6.52
5.34
3.77
1.83
-0.33
-2.50
-4.48
-6.15
-7.53
-8.77
-10.06
-11.61
-13.56
-15.84
-18.17
-19.99
-20.63
-19.50
-16.34
-11.37
-5.26
1.12
6.97
11.83
15.62
18.45
20.51
21.81
22.26
21.79
20.46
18.57
16.54
14.76
13.46
12.59
11.93
11.22
10.29
9.13
7.92
6.84
6.03
5.44
4.89
4.13
2.90
1.09
-1.24
-3.91
-6.65
-9.17
-11.30
-12.97
-14.28
-15.44
-16.69
-18.24
-20.17
-22.41
-24.75
-26.79
-28.04
-28.03
-26.41
-23.09
-18.32
-12.60
-6.58
-0.81
4.36
8.78
12.47
15.40
17.46
18.52
18.52
17.56
15.95
14.08
12.34
11.01
10.18
9.77
9.60
9.46
9.12
