1624271102.00
64.000000
-0.00
-0.00
-0.00
-0.00
-0.00
-0.00
-0.00
-0.00
-0.00
-0.00
0.00
0.01
0.01
-0.00
-0.03
-0.05
-0.05
0.00
0.13
0.36
0.66
1.01
1.37
1.72
2.06
2.40
2.79
3.24
3.80
4.42
5.06
5.66
6.20
6.68
7.15
7.68
8.31
9.14
10.09
11.04
11.88
12.56
13.14
13.76
14.65
15.96
17.91
20.32
22.90
25.38
27.58
29.57
31.68
34.32
37.81
42.54
48.15
54.10
59.83
64.97
69.58
74.14
79.34
85.71
93.76
103.00
112.62
121.73
129.77
136.75
143.30
150.75
157.77
166.64
177.95
191.79
206.97
220.57
228.25
225.36
208.53
176.87
132.76
80.05
23.07
-34.94
-92.44
-149.16
-205.23
-260.37
-313.74
-363.88
-409.83
-450.90
-486.49
-515.72
-537.19
-549.16
-549.88
-538.25
-514.06
-478.48
-433.64
-382.16
-326.67
-269.43
-212.15
-156.11
-102.34
-51.69
-5.15
36.41
72.34
102.35
126.59
145.57
159.99
170.56
177.91
182.43
184.42
184.09
181.73
177.68
172.35
166.15
159.43
152.43
145.30
138.11
130.90
123.72
116.62
109.69
102.99
96.57
90.47
84.70
79.28
74.21
69.51
65.18
61.24
57.68
54.49
51.68
49.24
47.18
45.49
44.17
43.20
42.56
42.19
42.00
41.88
41.67
41.20
40.30
38.79
36.53
33.45
29.51
24.78
19.33
13.35
7.07
0.75
-5.33
-10.92
-15.82
-19.85
-22.92
-25.01
-26.13
-26.37
-25.84
-24.70
-23.08
-21.12
-18.93
-16.59
-14.18
-11.71
-9.23
-6.74
-4.27
-1.79
0.71
3.24
5.83
8.49
11.28
14.15
17.08
20.09
23.15
26.29
29.51
32.85
36.35
40.05
43.90
47.82
51.82
55.91
60.11
64.48
69.09
74.02
79.38
85.03
90.90
96.91
103.02
109.16
115.31
121.43
127.53
133.64
139.48
144.82
149.45
153.13
155.55
156.34
154.99
150.80
145.16
138.65
131.62
124.33
116.92
109.47
102.06
94.73
87.61
80.89
74.43
68.21
62.17
56.26
50.39
44.47
38.49
32.54
26.82
21.38
16.31
11.61
7.18
2.78
-1.83
-6.84
-12.19
-17.59
-22.78
-27.50
-31.68
-35.58
-39.74
-44.74
-50.98
-58.45
-66.69
-75.01
-82.78
-89.76
-96.30
-103.19
-111.39
-121.60
-133.85
-147.55
-161.77
-175.58
-188.54
-200.79
-213.04
-226.34
-241.96
-261.17
-284.83
-312.62
-342.32
-369.65
-389.08
-395.61
-386.65
-363.23
-329.63
-291.71
-254.75
-221.84
-193.65
-169.20
-147.21
-126.88
-108.08
-90.89
-75.15
-60.33
-45.89
-31.66
-18.02
-5.77
4.20
11.38
15.84
18.14
19.04
19.16
18.81
18.04
16.70
14.68
11.94
8.54
4.55
0.06
-4.95
-10.53
-16.73
-23.46
-30.21
-35.93
-39.07
-37.97
-31.45
-19.42
-3.06
15.51
33.84
49.94
62.64
71.73
77.51
80.56
81.40
80.50
78.38
75.69
73.20
71.69
71.66
73.18
75.74
78.42
80.18
80.31
78.58
75.38
71.38
67.19
63.01
58.55
53.18
46.37
37.94
28.19
17.80
7.51
-2.03
-10.47
-17.71
-23.86
-29.25
-34.33
-39.73
-46.01
-53.42
-61.61
-69.45
-75.15
-76.68
-72.30
-61.17
-43.70
-21.65
2.24
24.88
43.66
56.97
64.57
67.28
66.54
63.81
60.26
56.64
53.41
50.98
49.68
49.65
50.73
52.36
53.81
54.46
54.01
52.56
50.34
47.47
43.83
39.02
32.70
24.83
15.81
6.34
-2.79
-11.08
-18.39
-24.97
-31.33
-38.04
-45.58
-54.15
-63.46
-72.58
-79.98
-83.83
-82.47
-75.01
-61.69
-43.88
-23.76
-3.70
14.27
28.82
39.30
45.69
48.38
48.00
45.34
41.29
36.79
32.71
29.72
28.20
28.19
29.44
31.46
33.70
35.67
36.93
37.19
36.18
33.72
29.68
24.09
17.15
9.24
0.90
-7.40
-15.36
-22.99
-30.61
-38.72
-47.78
-57.96
-68.79
-79.09
-87.07
-90.67
-88.18
-78.87
-63.34
-43.41
-21.72
-0.95
16.94
30.95
41.07
47.88
52.03
54.00
54.09
52.58
49.99
47.07
44.59
43.05
42.51
42.59
42.77
42.67
42.19
41.45
40.49
39.08
36.67
32.65
26.65
18.80
9.70
0.21
-8.85
-16.99
-24.16
-30.76
-37.46
-45.05
-54.10
-64.66
-75.98
-86.42
-93.71
-95.53
-90.28
-77.70
-59.07
-36.88
-14.10
6.66
23.75
36.63
45.62
51.41
54.71
56.01
55.72
54.30
52.37
50.56
49.37
48.97
49.11
49.36
49.26
48.58
47.37
45.84
44.14
42.23
39.74
36.13
30.92
23.94
15.47
6.28
-2.67
-10.52
-16.88
-22.00
-26.68
-32.00
-38.95
-48.03
-59.01
-70.81
-81.62
-89.23
-91.56
-87.24
-76.09
-59.25
-38.87
-17.48
2.60
19.87
33.62
43.82
50.79
54.91
56.54
56.14
54.33
51.88
49.64
48.30
48.24
49.37
51.18
52.91
53.86
53.62
52.21
49.98
47.34
44.43
40.97
36.36
30.04
21.83
12.12
1.80
-8.13
-16.92
-24.35
-30.68
-36.54
-42.62
-49.54
-57.67
-67.03
-77.11
-86.77
-94.27
-97.61
-95.12
-86.08
-71.01
-51.63
-30.25
-9.12
10.07
26.42
39.60
49.57
56.34
59.94
60.57
58.75
55.33
51.36
47.87
45.63
44.97
45.78
47.55
49.66
51.46
52.46
52.38
50.99
48.22
44.00
38.30
31.13
22.64
13.18
3.31
-6.22
-14.71
-21.69
-27.20
-31.89
-36.74
-42.80
-50.78
-60.72
-71.94
-83.12
-92.50
-98.16
-98.36
-92.04
-79.09
-60.63
-38.78
-16.21
4.56
21.74
34.47
42.71
46.97
47.95
46.45
43.32
39.44
35.65
32.66
30.94
30.67
31.79
34.00
36.85
39.74
41.96
42.86
41.96
39.02
34.05
27.24
18.91
9.52
-0.38
-10.18
-19.32
-27.54
-35.04
-42.47
-50.70
-60.36
-71.33
-82.42
-91.46
-95.86
-93.43
-83.17
-65.78
-43.50
-19.41
3.46
22.88
37.77
48.00
54.03
56.48
56.01
53.34
49.38
45.15
41.56
39.26
38.44
38.78
39.73
40.68
41.18
40.98
40.02
38.29
35.72
32.09
27.02
20.19
11.52
1.37
-9.49
-20.05
-29.44
-37.35
-44.20
-51.05
-59.13
-69.30
-81.46
-94.34
-105.60
-112.50
-112.63
-104.75
-89.18
-67.73
-43.14
-18.32
4.36
23.47
38.53
49.68
57.37
62.05
64.16
64.20
62.85
60.95
59.33
58.58
58.85
59.83
60.84
61.19
60.45
58.61
56.00
52.98
49.76
46.11
41.52
35.38
27.31
17.39
6.24
-5.17
-15.78
-24.79
-32.00
-37.87
-43.43
-50.04
-58.82
-70.26
-83.72
-97.40
-108.60
-114.39
-112.47
-101.87
-83.36
-59.20
-32.59
-6.71
15.95
34.00
47.17
55.97
61.29
64.09
65.19
65.19
64.55
63.58
62.57
61.83
61.58
61.94
62.78
63.78
64.49
64.52
63.64
61.78
59.00
55.33
50.75
45.21
38.69
31.29
23.22
14.74
6.15
-2.31
-10.50
-18.35
-25.83
-32.99
-39.93
-46.82
-54.02
-62.11
-71.70
-83.18
-96.27
-109.59
-120.71
-126.64
-124.77
-113.84
-94.53
-69.29
-41.63
-14.96
8.24
26.82
40.75
50.59
57.00
60.55
61.68
60.97
59.17
57.13
55.64
55.16
55.72
56.96
58.29
59.09
58.89
57.43
54.77
51.10
46.61
41.37
35.29
28.22
20.02
10.74
0.63
-9.85
-20.15
-29.74
-38.26
-45.61
-52.03
-57.97
-64.11
-71.13
-79.54
-89.50
-100.56
-111.49
-120.28
-124.47
-121.79
-110.85
-91.82
-66.52
-38.00
-9.65
15.74
36.51
52.16
62.98
69.49
72.13
71.25
67.41
61.58
55.20
49.87
46.89
46.86
49.44
53.52
57.65
60.57
61.59
60.71
58.37
55.06
50.92
45.66
38.66
29.48
18.16
5.42
-7.55
-19.53
-29.66
-37.74
-44.21
-49.93
-55.90
-63.06
-72.13
-83.41
-96.56
-110.29
-122.40
-130.00
-130.30
-121.43
-103.12
-77.02
-46.29
-14.82
13.87
37.41
54.91
66.70
73.90
77.60
78.64
77.60
75.03
71.69
68.65
66.94
67.17
69.21
72.22
74.97
76.35
75.79
73.34
69.52
64.99
60.11
54.86
48.80
41.33
32.04
21.03
8.99
-3.01
-13.85
-22.89
-30.21
-36.54
-43.01
-50.71
-60.43
-72.38
-86.12
-100.40
-113.18
-121.81
-123.56
-116.50
-100.24
-76.33
-47.98
-19.05
7.04
28.14
43.63
53.95
60.01
62.61
62.43
60.10
56.49
52.74
49.98
48.89
49.51
51.16
52.87
53.81
53.59
52.27
50.20
47.74
44.98
41.67
37.34
31.50
23.87
14.47
3.76
-7.54
-18.51
-28.39
-36.82
-44.09
-51.10
-59.05
-69.02
-81.41
-95.57
-109.67
-121.10
-126.95
-124.84
-113.71
-94.11
-68.17
-39.06
-10.16
15.69
36.65
51.93
61.56
66.07
66.30
63.32
58.46
53.14
48.71
46.16
45.84
47.52
50.51
53.92
56.92
58.84
59.21
57.69
54.04
48.13
40.04
30.08
18.90
7.29
-3.91
-14.11
-23.12
-31.25
-39.20
-47.86
-57.99
-69.78
-82.60
-94.74
-103.66
-106.48
-100.93
-86.17
-63.29
-35.20
-5.80
21.05
42.56
57.48
65.95
69.03
68.07
64.35
58.95
52.91
47.18
42.65
39.94
39.17
40.01
41.75
43.63
45.04
45.63
45.25
43.76
40.83
36.02
28.87
19.25
7.56
-5.20
-17.75
-28.95
-38.33
-46.30
-54.06
-63.04
-74.21
-87.48
-101.36
-113.19
-119.75
-118.15
-106.73
-85.71
-57.22
-24.87
7.31
35.81
58.37
74.19
83.49
87.07
85.94
81.20
74.18
66.42
59.51
54.71
52.58
52.89
54.80
57.32
59.59
61.15
61.81
61.47
59.88
56.59
51.16
43.36
33.45
22.25
10.85
0.34
-8.71
-16.44
-23.64
-31.42
-40.81
-52.32
-65.62
-79.42
-91.55
-99.19
-99.58
-90.77
-72.50
-46.47
-16.11
14.30
40.86
60.95
73.65
79.45
79.60
75.46
68.15
58.64
47.96
37.35
28.17
21.61
18.27
18.03
20.08
23.25
26.35
28.39
28.67
26.77
22.43
15.65
6.66
-4.00
-15.57
-27.21
-38.27
-48.52
-58.21
-68.02
-78.79
-91.10
-104.74
-118.41
-129.61
-135.23
-132.29
-119.12
-96.09
-65.79
-32.41
-0.56
25.93
44.85
55.72
59.33
57.10
50.50
40.90
29.59
18.02
7.76
0.32
-3.23
-2.54
1.75
8.18
14.77
19.54
21.07
18.80
13.20
5.38
-3.34
-11.98
-20.24
-28.39
-37.08
-46.96
-58.47
-71.75
-86.46
-101.55
-115.07
-124.24
-125.95
-117.75
-98.88
-70.87
-37.25
-2.64
28.67
53.71
71.16
81.01
83.97
80.96
73.00
61.35
47.73
34.25
23.09
15.99
13.88
16.56
22.76
30.37
37.12
41.12
41.44
38.29
32.67
25.90
18.83
11.60
3.69
-5.78
-17.54
-31.89
-48.49
-66.27
-83.22
-96.53
-102.89
-99.43
-84.71
-59.57
-27.13
8.02
41.20
68.96
89.69
103.56
111.70
115.32
115.18
111.60
104.80
95.35
84.42
73.52
64.07
56.93
52.07
48.62
45.29
40.91
34.83
27.03
17.95
8.08
-2.33
-13.44
-25.68
-39.49
-55.16
-72.70
-91.85
-111.93
-131.63
-148.71
-160.08
-162.29
-152.63
-130.27
-97.03
-57.07
-15.81
21.78
52.31
74.56
88.89
96.41
98.16
94.96
87.78
78.16
68.36
60.99
58.07
60.30
66.64
74.74
81.75
85.39
84.78
80.60
74.71
69.32
66.10
65.61
67.18
69.19
69.65
66.81
59.67
48.46
34.98
22.51
15.16
16.69
28.98
51.04
78.86
106.59
128.39
140.35
141.49
133.52
119.67
103.35
87.01
72.04
59.12
48.83
41.91
38.96
39.90
43.48
47.36
48.81
45.72
37.50
25.28
11.36
-1.96
-13.34
-22.81
-31.49
-40.77
-51.62
-64.23
-78.17
-92.77
-107.25
-120.64
-131.56
-138.38
-139.48
-134.05
-122.49
-106.54
-88.78
-71.86
-57.82
-47.86
-42.52
-42.00
-46.41
-55.68
-69.23
-85.66
-102.75
-117.81
-128.48
-133.59
-133.63
-130.74
-127.92
-127.92
-132.29
-140.97
-152.66
-165.70
-178.77
-191.22
-202.83
-213.42
-222.68
-230.41
-236.76
-242.18
-246.78
-249.77
-249.10
-241.99
-226.08
-200.50
-166.22
-125.51
-80.86
-34.30
12.75
58.79
101.71
138.78
167.48
186.60
196.94
201.08
202.48
204.31
208.70
216.85
229.32
246.35
267.65
291.89
316.42
337.68
352.22
357.74
353.61
340.66
320.60
295.25
266.38
235.56
204.11
172.77
141.49
109.53
76.19
41.91
8.94
-19.09
-38.41
-46.88
-45.09
-36.13
-24.38
-13.98
-7.59
-6.13
-9.41
-16.67
-27.06
-39.72
-53.51
-66.93
-78.33
-86.28
-89.99
-89.37
-85.04
-78.09
-70.00
-62.55
-57.61
-56.64
-60.24
-67.81
-77.70
-87.85
-96.63
-103.40
-108.43
-112.24
-114.92
-115.87
-114.19
-109.54
-102.80
-96.04
-91.58
-90.72
-92.72
-94.65
-92.26
-81.53
-60.23
-29.02
8.58
47.18
81.14
106.22
120.46
124.29
119.80
109.79
96.97
83.61
71.56
62.25
56.37
53.53
52.09
49.59
43.68
33.07
18.12
0.46
-17.83
-35.15
-50.96
-65.70
-80.39
-96.02
-113.22
-131.96
-151.52
-170.51
-187.10
-199.38
-206.08
-207.12
-203.85
-198.78
-194.68
-193.53
-195.63
-199.18
-200.62
-195.66
-180.60
-153.45
-114.69
-67.10
-15.04
36.69
83.93
123.80
154.92
177.16
191.20
198.06
198.67
193.76
183.90
169.79
152.45
133.32
114.06
96.12
80.38
66.94
55.28
44.53
33.82
22.41
9.73
-4.65
-20.99
-39.15
-58.41
-77.51
-94.89
-109.18
-119.67
-126.60
-131.16
-135.15
-140.41
-148.13
-158.25
-169.12
-177.59
-179.68
-171.73
-151.63
-119.67
-78.69
-33.34
11.22
50.67
82.47
105.94
121.73
131.07
135.09
134.64
130.55
123.94
116.40
109.77
105.68
104.92
107.17
111.10
114.88
116.86
116.15
112.77
107.46
101.10
94.24
86.76
78.01
67.25
54.16
39.20
23.47
8.38
-4.96
-16.10
-25.45
-34.01
-43.00
-53.61
-66.55
-81.89
-98.77
-115.25
-128.39
-134.73
-131.26
-116.38
-90.70
-57.17
-20.31
14.98
44.76
66.81
80.83
87.91
89.71
87.78
83.24
76.94
69.69
62.44
56.30
52.21
50.50
50.80
52.15
53.39
53.72
52.87
51.13
48.83
45.95
41.93
35.79
26.67
14.34
-0.47
-16.22
-31.12
-43.74
-53.58
-61.19
-67.91
-75.36
-84.95
-97.37
-112.27
-127.98
-141.63
-149.56
-148.26
-135.50
-111.26
-78.05
-40.18
-2.63
30.39
56.33
74.40
85.15
89.68
89.16
84.73
77.56
69.11
60.97
54.55
50.71
49.53
50.35
52.15
53.89
54.90
54.94
53.99
52.03
48.69
43.34
35.33
24.35
10.75
-4.41
-19.59
-33.32
-44.60
-53.40
-60.62
-67.90
-77.09
-89.46
-105.02
-122.05
-137.19
-146.13
-144.95
-131.46
-106.10
-71.98
-33.98
2.70
33.98
57.69
73.57
82.68
86.59
86.88
84.79
81.38
77.62
74.43
72.58
72.45
73.93
76.36
78.79
80.24
80.06
78.11
74.75
70.54
65.91
60.93
55.18
47.93
38.56
26.79
13.00
-1.85
-16.41
-29.42
-40.00
-48.07
-54.34
-60.21
-67.36
-77.27
-90.67
-107.10
-124.55
-139.68
-148.43
-147.06
-133.47
-107.98
-73.56
-35.00
2.41
34.42
58.70
74.98
84.53
89.23
90.80
90.41
88.74
86.21
83.28
80.47
78.34
77.22
77.15
77.76
78.48
78.69
77.93
75.90
72.47
67.63
61.43
53.95
45.31
35.68
25.16
13.88
1.99
-10.21
-22.29
-33.73
-44.08
-53.09
-60.85
-67.77
-74.63
-82.42
-92.26
-105.03
-120.75
-138.06
-153.93
-164.24
-164.75
-152.72
-127.96
-93.21
-53.38
-13.98
20.40
47.17
65.87
77.54
83.85
86.29
86.01
83.87
80.70
77.41
74.90
73.74
73.99
75.24
76.80
78.07
78.76
78.90
78.57
77.65
75.71
72.11
66.31
58.21
48.30
37.44
26.55
16.23
6.58
-2.79
-12.36
-22.46
-32.98
-43.38
-52.97
-61.25
-68.17
-74.29
-80.71
-88.82
-99.81
-114.17
-131.10
-148.20
-161.69
-167.20
-161.05
-141.62
-110.15
-70.61
-28.62
10.22
41.79
64.25
77.95
84.55
86.13
84.47
80.79
75.97
70.75
65.91
62.17
60.03
59.56
60.32
61.55
62.38
62.07
60.21
56.76
51.97
46.16
39.51
31.97
23.27
13.15
1.55
-11.09
-23.91
-35.81
-45.89
-53.69
-59.37
-63.58
-67.18
-71.03
-75.98
-82.78
-92.14
-104.33
-118.65
-133.02
-144.03
-147.61
-140.33
-120.71
-90.02
-51.99
-11.80
25.52
56.35
79.11
94.01
102.41
105.91
105.90
103.45
99.41
94.64
90.00
86.31
84.09
83.48
84.17
85.58
87.09
88.23
88.65
88.10
86.27
82.74
77.09
69.09
58.94
47.29
35.07
23.27
12.48
2.73
-6.41
-15.60
-25.36
-35.69
-46.09
-55.80
-64.11
-70.82
-76.49
-82.37
-90.12
-101.24
-116.31
-134.42
-152.80
-167.27
-173.18
-166.96
-147.43
-116.32
-77.83
-37.18
0.90
33.29
58.70
77.15
89.32
95.99
98.06
96.62
93.13
89.13
85.92
84.17
83.84
84.38
85.10
85.47
85.23
84.42
83.21
81.74
79.96
77.53
73.88
68.36
60.56
50.56
39.08
27.37
16.78
8.27
1.91
-3.12
-8.29
-15.03
-24.13
-35.41
-47.84
-60.00
-70.74
-79.73
-87.52
-95.45
-105.19
-118.31
-135.62
-156.67
-179.31
-199.62
-212.64
-213.62
-199.63
-170.80
-130.58
-84.90
-40.38
-2.55
25.54
43.48
52.88
56.25
56.03
54.06
51.52
49.19
47.60
47.12
47.87
49.68
52.18
54.96
57.81
60.87
64.45
68.79
73.74
78.62
82.34
83.80
82.37
78.13
71.90
64.95
58.56
53.52
49.92
47.07
43.82
38.97
31.76
22.26
11.27
0.04
-10.39
-19.72
-28.68
-38.79
-51.56
-67.43
-84.90
-100.27
-108.44
-104.41
-85.07
-50.37
-3.56
49.80
103.45
152.02
191.96
221.85
242.16
254.73
262.14
266.89
270.82
274.66
278.19
280.76
281.80
281.13
278.73
274.32
267.13
256.11
240.47
220.24
196.32
169.91
141.92
112.49
81.07
47.02
10.15
-29.22
-70.49
-112.88
-155.51
-197.04
-235.53
-268.70
-294.48
-311.82
-321.12
-324.01
-322.62
-318.82
-313.72
-307.94
-302.14
-297.53
-295.78
-298.12
-304.27
-311.61
-315.42
-310.19
-291.56
-258.08
-211.94
-158.40
-104.05
-54.78
-14.23
16.59
38.69
53.99
64.25
70.62
73.81
74.52
73.65
72.30
71.45
71.62
72.86
74.80
77.01
79.16
81.12
82.80
83.96
84.19
82.84
79.29
73.18
64.50
53.69
41.50
28.79
16.26
4.33
-6.90
-17.49
-27.54
-36.98
-45.60
-53.26
-60.17
-67.07
-75.19
-85.86
-99.79
-116.45
-133.62
-147.57
-153.92
-148.99
-131.08
-101.26
-63.21
-22.17
16.65
49.33
74.01
90.73
100.64
105.29
106.01
103.87
99.84
94.98
90.40
87.10
85.66
86.17
88.21
91.06
93.83
95.70
95.99
94.23
90.28
84.31
76.73
68.07
58.75
48.99
38.73
27.73
15.78
2.89
-10.57
-23.92
-36.34
-47.20
-56.29
-64.00
-71.36
-79.80
-90.81
-105.34
-123.14
-142.23
-158.86
-168.33
-166.34
-150.63
-122.03
-84.43
-43.57
-5.24
26.45
49.90
65.71
75.64
81.55
84.70
85.62
84.60
82.12
79.29
77.80
79.70
86.82
100.10
119.13
141.95
165.36
185.63
199.41
204.50
200.24
187.58
168.61
146.15
122.94
101.23
82.33
66.66
53.92
43.27
33.59
23.31
10.63
-6.22
-28.37
-55.73
-86.64
-118.19
-146.97
-169.79
-184.18
-188.22
-180.48
-160.16
-127.77
-85.90
-39.28
6.06
44.42
72.08
88.03
93.62
91.28
83.33
71.25
55.80
37.49
17.06
-4.53
-26.13
-46.74
-65.57
-81.84
-94.79
-103.82
-108.77
-110.15
-109.10
-107.16
-105.72
-105.65
-106.99
-109.13
-111.13
-112.18
-111.90
-110.50
-108.62
-107.13
-106.81
-108.06
-110.81
-114.55
-118.45
-121.77
-124.32
-126.78
-130.75
-138.20
-150.36
-166.55
-183.60
-196.27
-198.77
-186.68
-158.63
-116.77
-66.13
-13.04
36.60
78.49
110.54
132.64
146.11
153.02
155.47
155.12
153.04
149.79
145.80
141.79
138.91
138.43
141.32
147.71
156.80
167.08
176.82
184.67
189.98
193.09
195.24
198.38
204.50
214.64
228.10
242.01
251.88
252.87
241.53
217.13
181.94
140.45
97.90
58.76
25.78
-0.31
-20.61
-37.53
-54.23
-73.80
-98.49
-128.81
-162.97
-197.01
-225.72
-244.22
-249.66
-242.44
-226.24
-206.88
-190.21
-180.16
-177.74
-181.19
-187.38
-193.22
-196.72
-197.05
-194.13
-188.06
-178.80
-166.19
-150.15
-130.80
-108.52
-84.01
-58.25
-32.58
-8.44
12.94
30.87
45.36
56.76
65.39
71.22
73.98
73.59
70.45
65.51
59.93
54.83
51.04
49.02
48.75
49.52
49.70
46.99
39.10
24.96
5.63
-15.39
-33.05
-42.41
-40.37
-26.71
-4.07
23.16
50.30
73.75
91.64
103.81
111.22
115.10
116.29
115.06
111.38
105.53
98.41
91.42
85.94
82.58
80.99
80.03
78.49
75.71
71.81
67.50
63.41
59.76
56.10
51.62
45.47
37.11
26.43
13.73
-0.30
-14.75
-28.63
-41.12
-51.80
-60.74
-68.54
-76.23
-85.06
-96.26
-110.68
-128.15
-147.12
-164.44
-175.88
-177.14
-165.24
-139.67
-102.70
-58.88
-13.73
27.66
61.74
86.84
102.93
111.08
112.89
110.06
104.23
96.90
89.40
82.76
77.64
74.16
71.95
70.32
68.48
65.85
62.28
58.01
53.50
49.10
44.82
40.17
34.37
26.67
16.75
4.97
-7.76
-20.27
-31.59
-41.40
-50.18
-59.17
-69.93
-83.68
-100.53
-118.92
-135.50
-145.85
-145.68
-132.33
-105.84
-69.16
-27.28
14.14
50.31
78.24
96.90
106.77
109.26
106.16
99.37
90.76
81.98
74.25
68.09
63.29
59.14
54.87
50.10
44.97
39.99
35.62
31.75
27.67
22.19
14.24
3.34
-10.12
-25.03
-39.95
-53.64
-65.52
-75.86
-85.73
-96.54
-109.43
-124.47
-140.08
-153.00
-158.96
-154.00
-135.90
-105.20
-65.27
-21.39
20.71
56.42
83.11
100.29
109.04
111.27
108.85
103.46
96.39
88.75
81.55
75.53
71.03
67.81
65.23
62.46
59.07
55.18
51.32
48.03
45.23
41.96
36.55
27.43
13.90
-3.33
-22.26
-40.39
-55.75
-67.70
-77.21
-86.38
-97.58
-112.38
-130.70
-150.40
-167.61
-177.56
-175.97
-160.33
-130.87
-90.65
-44.83
0.64
40.54
71.48
92.27
103.70
107.74
106.76
102.86
97.63
92.10
86.92
82.45
78.87
76.11
73.84
71.54
68.68
64.98
60.51
55.60
50.56
45.26
39.01
30.69
19.34
4.77
-12.05
-29.16
-44.34
-56.09
-64.34
-70.68
-77.71
-87.99
-102.81
-121.31
-140.29
-154.93
-160.05
-151.76
-128.75
-92.86
-48.69
-2.35
40.22
74.57
98.66
112.76
118.77
119.17
116.23
111.44
105.59
99.09
92.29
85.83
80.46
76.73
74.55
73.11
71.10
67.39
61.64
54.52
47.30
41.11
36.14
31.37
25.02
15.38
1.81
-14.87
-32.66
-49.29
-63.10
-73.66
-81.74
-88.88
-96.74
-106.75
-119.77
-135.87
-153.94
-171.38
-184.18
-187.60
-177.66
-152.67
-114.30
-67.37
-18.54
25.76
61.09
85.83
100.92
108.58
111.17
110.36
107.17
102.26
96.48
90.89
86.54
84.08
83.46
84.05
84.96
85.46
85.12
83.76
81.19
77.10
71.09
62.91
52.82
41.46
29.70
18.12
6.77
-4.77
-16.96
-29.89
-42.99
-55.22
-65.56
-73.65
-79.94
-85.62
-92.20
-101.05
-113.05
-128.30
-145.71
-162.76
-175.47
-179.09
-169.42
-144.43
-105.47
-57.25
-6.63
39.47
76.03
100.96
114.99
120.53
120.40
116.88
111.48
105.15
98.76
93.16
89.12
86.99
86.49
86.78
86.87
86.06
84.20
81.64
78.88
75.99
72.48
67.38
59.76
49.28
36.49
22.69
9.39
-2.30
-12.19
-20.96
-29.79
-39.65
-50.82
-62.71
-74.14
-83.93
-91.56
-97.42
-102.78
-109.50
-119.37
-133.44
-151.37
-170.92
-187.93
-197.18
-193.63
-174.26
-139.29
-92.49
-40.24
10.31
53.19
84.98
104.99
114.73
116.71
113.54
107.45
100.14
92.97
86.98
82.92
81.12
81.40
83.12
85.41
87.40
88.48
88.34
86.93
84.24
80.13
74.26
66.27
56.03
43.90
30.71
17.54
5.32
-5.56
-15.39
-24.93
-34.97
-45.88
-57.31
-68.41
-78.17
-86.04
-92.23
-97.82
-104.44
-113.76
-126.95
-144.03
-163.40
-181.73
-194.32
-196.13
-183.33
-154.74
-112.66
-62.50
-11.26
34.45
70.23
94.55
108.39
114.03
113.95
110.10
103.92
96.62
89.49
83.80
80.43
79.55
80.54
82.29
83.69
84.16
83.70
82.63
81.16
79.02
75.48
69.68
61.14
50.10
37.56
24.80
12.95
2.43
-7.10
-16.45
-26.41
-37.28
-48.67
-59.69
-69.35
-77.06
-83.03
-88.25
-94.33
-103.11
-115.91
-132.92
-152.48
-171.04
-183.59
-185.00
-171.57
-142.54
-100.63
-51.42
-1.85
41.83
75.47
97.71
109.56
113.38
111.77
106.92
100.34
93.04
85.86
79.60
75.02
72.62
72.43
73.97
76.38
78.62
79.75
79.10
76.33
71.43
64.59
56.19
46.60
36.14
24.97
13.08
0.42
-12.94
-26.68
-40.15
-52.58
-63.30
-72.01
-78.94
-84.91
-91.13
-99.10
-110.17
-124.97
-142.85
-161.43
-176.64
-183.59
-177.98
-157.64
-123.52
-79.69
-32.20
12.65
49.95
77.13
93.89
101.52
101.92
96.99
88.44
77.94
67.30
58.38
52.74
51.15
53.25
57.69
62.54
66.03
67.11
65.62
62.17
57.59
52.38
46.38
38.83
28.73
15.48
-0.70
-18.56
-36.16
-51.56
-63.46
-71.74
-77.49
-82.61
-89.26
-99.21
-113.27
-130.80
-149.40
-165.11
-173.14
-169.15
-150.72
-118.42
-75.95
-29.17
15.59
53.21
80.98
98.65
107.76
110.67
109.56
106.05
101.24
95.88
90.70
86.38
83.43
82.04
81.97
82.62
83.31
83.48
82.76
80.95
77.84
73.10
66.38
57.53
46.71
34.57
21.93
9.48
-2.47
-14.10
-25.78
-37.71
-49.66
-60.95
-70.76
-78.62
-84.77
-90.21
-96.54
-105.51
-118.46
-135.56
-155.31
-174.23
-187.34
-189.36
-176.43
-147.63
-105.69
-56.35
-6.64
37.10
70.96
93.90
107.20
113.36
114.88
113.72
111.09
107.86
104.70
102.29
101.06
100.99
101.55
101.88
101.22
99.27
96.41
93.42
90.92
88.90
86.47
82.24
74.90
63.92
49.96
34.60
19.85
7.32
-2.31
-9.53
-15.64
-22.27
-30.66
-41.23
-53.41
-65.90
-77.24
-86.37
-93.16
-98.56
-104.42
-112.99
-126.03
-143.96
-165.16
-185.73
-200.21
-202.98
-190.07
-160.69
-117.80
-67.36
-16.57
28.20
62.99
86.78
100.84
107.57
109.39
108.10
104.97
101.00
97.22
94.58
93.68
94.46
96.17
97.73
98.22
97.25
95.07
92.33
89.55
86.87
83.90
79.90
74.07
65.86
55.22
42.70
29.37
16.64
5.75
-2.63
-8.74
-13.73
-19.17
-26.42
-35.88
-46.92
-58.14
-68.07
-75.96
-82.16
-88.01
-95.40
-106.08
-121.06
-140.16
-161.63
-182.07
-196.80
-200.75
-189.93
-162.94
-121.84
-71.94
-20.38
25.93
62.19
86.69
100.50
106.28
106.88
104.48
100.34
95.28
90.13
85.87
83.35
82.90
84.06
85.73
86.80
86.67
85.48
83.82
82.11
80.14
76.95
71.36
62.68
51.16
38.02
24.90
13.06
2.93
-6.04
-14.89
-24.51
-35.12
-46.23
-56.85
-66.05
-73.40
-79.13
-84.07
-89.47
-96.79
-107.39
-121.95
-139.80
-158.35
-173.13
-178.72
-170.52
-146.53
-108.51
-61.68
-13.14
30.37
64.29
87.04
99.56
104.09
103.08
98.45
91.59
83.69
75.93
69.46
65.16
63.39
63.88
65.91
68.60
71.11
72.76
72.90
70.94
66.45
59.36
50.10
39.54
28.63
17.98
7.58
-3.07
-14.58
-27.07
-39.95
-52.13
-62.52
-70.61
-76.81
-82.20
-88.23
-96.23
-107.25
-121.71
-139.21
-158.03
-174.80
-184.91
-183.48
-167.13
-135.48
-91.75
-42.14
6.17
47.09
77.22
96.23
106.01
109.40
108.95
106.42
102.83
98.88
95.25
92.56
91.18
90.94
91.13
90.88
89.65
87.54
85.20
83.29
81.89
80.18
76.72
70.16
60.00
46.99
32.79
19.25
7.45
-2.66
-12.06
-21.95
-32.97
-44.79
-56.39
-66.65
-74.96
-81.49
-87.11
-93.05
-100.62
-111.07
-125.31
-143.35
-163.61
-182.45
-194.52
-194.12
-177.37
-143.97
-97.83
-45.96
3.76
45.10
75.01
93.72
103.62
107.58
107.92
106.01
102.67
98.73
95.28
93.34
93.34
94.82
96.51
97.07
95.86
93.28
90.56
88.84
88.39
88.14
86.19
80.70
70.88
57.47
42.27
27.40
14.34
3.46
-5.81
-14.45
-23.29
-32.64
-42.34
-52.01
-61.20
-69.57
-76.89
-83.16
-88.78
-94.82
-102.94
-114.95
-131.73
-152.11
-172.34
-186.64
-188.87
-174.87
-144.21
-100.62
-50.76
-1.97
39.89
71.75
93.23
105.67
110.99
111.00
107.30
101.53
95.43
90.57
87.89
87.38
88.15
88.94
88.83
87.67
86.06
84.78
84.26
84.05
82.95
79.56
72.92
63.00
50.70
37.35
24.22
12.08
1.12
-8.86
-18.24
-27.35
-36.41
-45.53
-54.70
-63.71
-72.15
-79.62
-85.98
-91.73
-98.21
-107.32
-120.69
-138.59
-158.91
-177.04
-186.90
-182.97
-162.36
-126.30
-79.82
-30.18
15.58
52.67
79.23
95.91
104.51
106.79
104.04
97.34
88.09
78.31
70.26
65.67
65.09
67.57
71.17
73.79
74.12
71.98
68.16
63.76
59.46
55.10
49.80
42.46
32.35
19.49
4.66
-10.97
-26.16
-39.90
-51.55
-60.84
-67.94
-73.65
-79.41
-87.13
-98.39
-113.50
-130.67
-145.93
-154.12
-150.59
-133.06
-102.59
-63.26
-20.75
19.46
53.55
79.75
97.86
108.37
111.77
108.58
99.76
87.17
73.49
61.66
53.85
50.77
51.55
54.23
56.82
58.01
57.53
55.88
53.66
51.05
47.60
42.42
34.63
23.83
10.23
-5.35
-21.73
-37.60
-51.73
-63.21
-71.70
-77.71
-82.76
-89.09
-98.91
-113.21
-130.82
-148.04
-159.51
-159.86
-145.72
-117.11
-77.51
-32.71
11.07
48.89
78.04
98.02
109.79
114.99
115.35
112.55
108.19
103.71
100.23
98.18
97.22
96.41
94.75
91.70
87.51
83.04
79.22
76.37
73.90
70.59
65.15
56.95
46.30
34.24
21.90
9.99
-1.45
-12.77
-24.26
-35.87
-47.18
-57.71
-67.19
-75.74
-83.60
-90.93
-97.79
-104.37
-111.45
-120.48
-133.02
-149.69
-168.91
-186.43
-196.19
-192.25
-171.20
-133.85
-85.20
-32.88
15.42
54.31
81.78
98.86
108.18
112.50
113.76
113.08
111.28
109.33
108.39
109.27
111.94
115.31
117.66
117.50
114.32
108.81
102.39
96.37
91.28
86.68
81.63
75.31
67.51
58.56
48.96
38.94
28.42
17.20
5.46
-6.05
-16.30
-24.51
-30.78
-36.24
-42.55
-51.06
-61.98
-74.15
-85.57
-94.39
-99.92
-103.06
-106.05
-111.51
-121.50
-136.65
-155.77
-175.97
-192.98
-201.95
-198.48
-179.83
-145.94
-99.88
-47.32
4.77
50.00
84.10
105.79
116.51
119.48
118.24
115.60
113.04
110.93
108.97
106.93
104.95
103.47
102.88
103.08
103.37
102.78
100.52
96.54
91.53
86.48
82.07
78.11
73.49
66.73
56.77
43.66
28.67
13.88
1.28
-8.01
-14.16
-18.41
-22.44
-27.65
-34.67
-43.31
-52.89
-62.56
-71.68
-79.85
-87.03
-93.53
-100.10
-108.05
-118.89
-133.82
-152.63
-173.00
-190.39
-199.00
-193.62
-171.64
-134.30
-86.57
-35.53
11.78
50.30
77.84
94.74
102.77
104.09
100.75
94.60
87.60
81.72
78.51
78.57
81.26
85.02
88.12
89.51
89.15
87.83
86.41
85.13
83.32
79.76
73.28
63.52
51.08
37.30
23.67
11.21
0.18
-9.79
-19.43
-29.30
-39.61
-50.13
-60.37
-69.76
-77.88
-84.59
-90.06
-94.90
-100.17
-107.40
-118.09
-133.04
-151.34
-169.82
-183.34
-186.06
-173.52
-144.49
-101.83
-51.75
-1.83
41.36
74.03
95.52
107.53
112.66
113.16
110.47
105.48
99.16
92.82
88.03
86.02
87.07
90.34
94.23
97.13
98.12
97.27
95.41
93.40
91.52
89.20
85.26
78.56
68.60
55.88
41.70
27.69
15.29
5.26
-2.35
-8.17
-13.16
-18.42
-24.88
-33.11
-43.11
-54.26
-65.49
-75.60
-83.73
-89.84
-94.96
-101.04
-110.39
-124.70
-143.99
-165.87
-185.59
-197.13
-194.95
-175.99
-140.95
-94.22
-42.67
6.49
47.59
77.65
96.41
105.58
107.78
105.67
101.45
96.72
92.63
89.84
88.65
88.99
90.49
92.51
94.33
95.28
94.98
93.43
90.96
88.13
85.38
82.81
79.99
76.12
70.24
61.65
50.29
36.86
22.67
9.32
-1.86
-10.25
-16.24
-21.12
-26.58
-34.02
-43.95
-55.74
-67.94
-78.93
-87.68
-94.20
-99.58
-105.59
-114.15
-126.62
-143.34
-163.06
-182.82
-198.05
-203.56
-194.90
-170.05
-130.48
-81.02
-28.63
19.62
58.51
85.64
101.44
108.18
108.78
105.84
101.24
96.19
91.56
88.03
86.22
86.45
88.57
91.83
95.09
97.20
97.38
95.55
92.20
88.08
83.74
79.17
73.81
66.87
57.77
46.43
33.52
20.23
7.95
-2.19
-9.69
-14.91
-18.93
-23.21
-29.06
-37.11
-47.18
-58.31
-69.21
-78.82
-86.73
-93.39
-99.93
-107.89
-118.74
-133.41
-151.79
-172.21
-191.26
-204.19
-205.90
-192.60
-163.18
-120.06
-68.76
-16.41
30.27
66.69
91.16
104.61
109.58
108.97
105.27
100.21
95.00
90.52
87.51
86.49
87.59
90.37
93.90
97.05
98.81
98.70
96.86
93.86
90.31
86.52
82.28
76.98
69.88
60.51
48.98
36.04
22.88
10.83
0.90
-6.54
-11.88
-16.22
-20.97
-27.34
-35.84
-46.06
-56.87
-66.88
-75.12
-81.48
-86.82
-92.67
-100.79
-112.54
-128.47
-147.77
-168.07
-185.45
-195.09
-192.40
-174.50
-141.42
-96.57
-45.94
3.53
45.79
77.16
96.80
106.17
107.96
105.01
99.65
93.56
87.93
83.64
81.27
80.96
82.34
84.58
86.69
87.94
88.06
87.22
85.73
83.67
80.65
75.96
68.88
59.12
47.10
33.85
20.68
8.68
-1.71
-10.76
-19.31
-28.21
-37.88
-48.06
-57.82
-66.11
-72.28
-76.52
-79.99
-84.55
-92.17
-104.20
-120.69
-139.87
-158.13
-170.65
-172.61
-160.67
-134.27
-96.00
-51.10
-5.89
33.89
64.49
84.63
95.07
97.72
94.67
87.72
78.35
67.95
58.01
50.04
45.27
44.15
46.16
49.93
53.75
56.23
56.73
55.45
53.03
49.99
46.28
41.16
33.52
22.53
8.13
-8.73
-26.24
-42.32
-55.29
-64.48
-70.44
-74.80
-79.71
-87.26
-98.75
-114.10
-131.58
-147.77
-158.28
-158.76
-146.30
-120.48
-83.80
-41.07
1.87
39.78
69.22
88.98
99.71
103.07
100.97
95.06
86.78
77.52
68.74
61.82
57.74
56.73
58.13
60.64
62.81
63.57
62.54
60.02
56.57
52.53
47.67
41.25
32.31
20.21
5.04
-12.25
-30.00
-46.36
-59.88
-69.95
-77.07
-82.79
-89.31
-98.83
-112.72
-130.68
-150.28
-167.17
-176.09
-172.37
-153.66
-120.91
-78.32
-32.14
11.23
46.93
72.70
88.84
97.32
100.72
101.29
100.53
99.25
97.77
96.24
94.73
93.37
92.23
91.31
90.48
89.44
87.78
85.05
80.95
75.40
68.61
60.90
52.61
43.85
34.53
24.30
12.84
0.03
-13.83
-28.00
-41.47
-53.30
-62.89
-70.29
-76.22
-81.97
-89.13
-99.20
-113.07
-130.42
-149.27
-165.89
-175.40
-173.10
-156.06
-124.44
-81.85
-34.42
11.04
48.98
76.54
93.79
102.98
107.19
109.11
110.37
111.46
112.23
112.36
111.70
110.42
108.77
106.99
105.10
102.98
100.45
97.48
94.14
90.63
87.01
83.16
78.61
72.73
64.85
54.65
42.33
28.73
15.20
3.18
-6.32
-13.12
-17.94
-22.15
-27.24
-34.19
-43.17
-53.52
-64.02
-73.45
-81.09
-86.97
-91.95
-97.52
-105.44
-117.27
-133.68
-153.89
-175.12
-192.81
-201.40
-196.01
-174.19
-137.05
-89.32
-37.99
9.73
48.45
75.71
92.02
99.81
102.19
101.90
100.84
100.09
100.06
100.84
102.26
103.99
105.58
106.56
106.59
105.54
103.62
101.21
98.69
96.21
93.51
90.01
85.09
78.37
69.89
60.10
49.65
39.14
28.96
19.33
10.38
2.24
-4.90
-10.95
-16.06
-20.75
-25.79
-32.03
-40.00
-49.70
-60.53
-71.48
-81.59
-90.27
-97.67
-104.64
-112.64
-123.23
-137.50
-155.36
-174.94
-192.49
-202.96
-201.31
-184.21
-151.42
-106.29
-54.97
-4.71
38.17
69.76
89.15
97.86
98.82
95.17
89.47
83.41
77.93
73.54
70.47
68.89
68.85
70.17
72.49
75.17
77.47
78.68
78.28
75.97
71.79
65.86
58.40
49.61
39.65
28.71
17.01
4.87
-7.36
-19.28
-30.54
-40.80
-49.73
-57.08
-62.88
-67.50
-71.85
-77.26
-85.27
-97.02
-112.66
-130.67
-147.72
-159.13
-160.06
-147.16
-119.92
-81.10
-36.19
8.29
46.56
75.09
92.99
101.50
102.93
99.67
93.53
85.78
77.42
69.43
62.87
58.75
57.62
59.29
62.81
66.69
69.38
69.77
67.44
62.74
56.40
49.13
41.29
32.73
22.95
11.44
-1.94
-16.73
-31.89
-46.04
-57.97
-67.04
-73.48
-78.32
-83.14
-89.70
-99.51
-113.29
-130.52
-149.01
-164.98
-173.65
-170.57
-153.10
-121.57
-79.57
-32.92
11.92
49.69
77.45
94.79
103.23
105.19
103.20
99.34
95.11
91.46
88.84
87.34
86.74
86.64
86.62
86.41
85.94
85.31
84.65
83.92
82.76
80.48
76.22
69.26
59.32
46.81
32.74
18.40
4.87
-7.29
-18.23
-28.57
-38.99
-49.76
-60.58
-70.66
-79.20
-85.81
-90.97
-95.99
-102.82
-113.40
-128.88
-148.75
-170.27
-188.66
-198.11
-193.51
-172.30
-135.64
-88.33
-37.42
9.93
48.42
75.66
92.16
100.25
102.85
102.53
101.08
99.59
98.61
98.41
98.94
99.91
100.73
100.73
99.45
96.86
93.44
90.00
87.27
85.44
83.90
81.37
76.35
67.84
55.84
41.43
26.48
12.83
1.58
-7.30
-14.83
-22.51
-31.54
-42.31
-54.28
-66.20
-76.80
-85.26
-91.61
-96.85
-102.69
-111.16
-123.87
-141.23
-161.62
-181.18
-194.40
-195.60
-180.82
-149.47
-104.86
-53.30
-2.31
41.67
74.74
96.05
107.19
110.99
110.35
107.58
104.19
101.08
98.77
97.49
97.26
97.87
98.88
99.82
100.29
100.12
99.33
98.08
96.46
94.41
91.71
87.90
82.45
74.87
64.91
52.78
39.23
25.47
12.86
2.45
-5.46
-11.44
-16.72
-22.77
-30.62
-40.57
-52.02
-63.85
-74.81
-84.09
-91.58
-97.94
-104.40
-112.51
-123.74
-138.96
-157.88
-178.47
-196.84
-207.79
-206.14
-188.52
-154.81
-108.58
-56.27
-5.32
37.93
69.75
89.41
98.52
99.88
96.39
90.36
83.47
76.90
71.49
67.84
66.26
66.73
68.86
72.04
75.51
78.50
80.29
80.33
78.31
74.15
68.02
60.21
51.10
40.94
29.85
17.90
5.10
-8.32
-21.94
-35.07
-46.94
-56.89
-64.62
-70.40
-75.11
-80.14
-87.13
-97.43
-111.58
-128.63
-145.89
-159.14
-163.58
-155.30
-132.65
-97.17
-53.30
-7.20
35.03
68.80
92.01
104.81
108.88
106.54
99.98
91.04
81.28
72.06
64.56
59.70
57.96
59.16
62.57
67.00
71.13
73.81
74.21
72.02
67.34
60.61
52.33
42.99
32.77
21.62
9.37
-4.06
-18.44
-33.10
-47.12
-59.55
-69.75
-77.64
-83.76
-89.19
-95.40
-103.91
-115.94
-131.78
-150.18
-168.07
-180.81
-183.30
-171.65
-144.67
-104.64
-56.89
-8.19
35.20
69.11
92.10
105.11
110.39
110.50
107.60
103.32
98.84
95.05
92.59
91.79
92.52
94.23
96.03
97.06
96.83
95.30
92.90
90.22
87.59
84.76
80.88
74.76
65.49
52.95
38.12
22.77
8.88
-2.23
-10.42
-16.78
-23.06
-30.83
-40.77
-52.39
-64.36
-75.12
-83.69
-90.04
-95.16
-100.77
-108.89
-121.15
-138.16
-158.80
-179.91
-196.61
-203.28
-195.30
-170.67
-131.01
-81.27
-28.45
20.46
60.23
88.45
105.46
113.46
115.40
113.93
110.96
107.55
104.32
101.64
99.86
99.26
99.84
101.20
102.61
103.28
102.66
100.70
97.71
94.19
90.41
86.23
81.05
74.08
64.76
53.06
39.65
25.78
12.89
2.08
-6.19
-12.32
-17.34
-22.58
-29.16
-37.63
-47.86
-59.11
-70.28
-80.35
-88.70
-95.39
-101.25
-107.69
-116.43
-128.95
-145.77
-165.79
-185.85
-201.05
-205.83
-195.65
-168.72
-126.99
-75.76
-22.28
26.41
65.30
92.27
107.92
114.54
114.94
111.64
106.59
101.19
96.52
93.40
92.32
93.25
95.66
98.54
100.85
101.81
101.18
99.28
96.73
94.07
91.32
87.97
83.04
75.57
65.04
51.70
36.59
21.29
7.39
-3.95
-12.38
-18.48
-23.45
-28.72
-35.42
-43.99
-54.03
-64.58
-74.47
-82.91
-89.78
-95.75
-102.10
-110.42
-122.12
-137.83
-156.83
-176.59
-192.90
-200.63
-195.18
-174.12
-138.22
-91.62
-40.67
7.87
48.58
78.49
97.12
105.87
107.04
103.04
95.98
87.62
79.45
72.71
68.35
66.85
68.10
71.36
75.54
79.53
82.55
84.30
84.85
84.27
82.31
78.27
71.39
61.21
48.07
33.13
18.01
4.13
-7.85
-18.18
-27.82
-37.81
-48.72
-60.31
-71.65
-81.45
-88.63
-92.79
-94.45
-95.09
-96.90
-102.23
-112.72
-128.37
-146.79
-163.29
-171.86
-167.09
-146.13
-110.00
-63.41
-13.33
33.26
71.27
98.43
115.04
122.89
124.20
120.94
114.70
106.86
98.84
91.96
87.29
85.31
85.83
88.06
90.89
93.28
94.51
94.40
93.13
91.02
88.25
84.58
79.43
72.06
61.94
49.08
34.22
18.71
4.23
-7.83
-16.81
-23.06
-27.84
-32.77
-39.25
-47.83
-58.05
-68.75
-78.53
-86.48
-92.47
-97.27
-102.30
-109.36
-120.07
-135.39
-154.91
-176.33
-195.40
-206.62
-204.69
-186.28
-151.46
-104.06
-50.64
1.37
45.73
78.78
99.74
110.05
112.31
109.28
103.32
96.30
89.65
84.50
81.62
81.31
83.29
86.78
90.68
93.92
95.81
96.21
95.42
93.96
92.12
89.75
86.18
80.50
71.92
60.22
45.97
30.50
15.54
2.69
-7.15
-14.09
-19.24
-24.25
-30.58
-38.99
-49.23
-60.27
-70.77
-79.71
-86.80
-92.60
-98.34
-105.58
-115.88
-130.24
-148.53
-168.95
-187.77
-199.84
-199.86
-184.14
-152.12
-106.97
-54.82
-2.99
42.15
76.71
99.72
112.46
117.30
116.61
112.30
105.79
98.40
91.49
86.39
84.01
84.56
87.39
91.28
94.94
97.45
98.50
98.30
97.26
95.63
93.20
89.42
83.51
74.92
63.52
49.86
35.08
20.66
8.04
-1.89
-9.06
-14.30
-19.04
-24.77
-32.40
-41.96
-52.59
-62.94
-71.86
-78.85
-84.38
-89.74
-96.64
-106.75
-121.14
-139.75
-160.93
-181.25
-195.77
-199.22
-187.50
-159.29
-116.85
-65.70
-13.04
34.27
71.42
96.46
110.00
114.28
112.09
105.98
98.03
89.83
82.68
77.61
75.29
75.87
78.85
83.17
87.51
90.76
92.36
92.46
91.60
90.26
88.46
85.57
80.58
72.61
61.41
47.54
32.35
17.51
4.50
-5.84
-13.63
-19.81
-25.82
-32.96
-41.81
-52.06
-62.60
-72.12
-79.78
-85.63
-90.63
-96.37
-104.52
-116.37
-132.28
-151.25
-170.61
-186.12
-192.73
-186.00
-163.66
-126.87
-80.11
-30.04
16.52
54.47
81.40
97.40
104.16
103.81
98.24
89.03
77.74
66.12
56.07
49.26
46.64
48.11
52.64
58.57
64.20
68.18
69.82
69.05
66.22
61.78
56.01
48.85
39.95
28.87
15.45
0.04
-16.30
-32.07
-45.73
-56.23
-63.38
-67.97
-71.43
-75.52
-81.88
-91.65
-105.04
-121.00
-136.96
-149.05
-152.87
-144.74
-123.10
-89.33
-47.58
-3.65
36.65
68.98
91.31
103.71
107.72
105.40
98.70
89.30
78.67
68.24
59.41
53.42
50.96
52.07
55.99
61.36
66.62
70.35
71.62
70.09
65.93
59.54
51.43
42.01
31.52
20.05
7.63
-5.62
-19.41
-33.18
-46.17
-57.63
-67.08
-74.53
-80.56
-86.29
-93.16
-102.61
-115.67
-132.35
-151.11
-168.65
-180.25
-181.03
-167.47
-138.93
-98.12
-50.54
-2.85
39.01
71.23
92.62
104.21
108.27
107.41
103.94
99.59
95.54
92.54
90.92
90.65
91.37
92.52
93.56
94.15
94.23
93.96
93.45
92.51
90.53
86.69
80.25
70.94
59.13
45.79
32.08
19.03
7.18
-3.52
-13.58
-23.65
-34.09
-44.81
-55.23
-64.56
-72.22
-78.30
-83.73
-90.17
-99.55
-113.34
-131.67
-152.72
-172.60
-186.01
-187.59
-173.73
-143.99
-101.58
-52.54
-3.98
38.00
69.74
90.50
101.80
106.32
106.71
104.96
102.32
99.48
96.94
95.16
94.44
94.81
95.97
97.27
98.10
98.08
97.30
96.17
95.14
94.30
93.15
90.73
85.93
77.95
66.69
52.82
37.71
23.02
10.24
0.22
-7.09
-12.66
-17.95
-24.43
-32.93
-43.40
-54.88
-66.01
-75.55
-82.93
-88.47
-93.31
-99.16
-107.87
-120.86
-138.45
-159.16
-179.45
-194.02
-197.26
-184.98
-156.07
-113.28
-62.56
-11.20
34.23
69.52
93.34
106.70
111.85
111.26
107.10
101.13
94.85
89.61
86.44
85.89
87.80
91.39
95.50
98.93
100.89
101.07
99.69
97.27
94.31
91.04
87.22
82.22
75.29
65.94
54.19
40.78
26.91
13.95
2.98
-5.56
-11.95
-17.05
-22.00
-27.81
-35.04
-43.70
-53.23
-62.77
-71.50
-78.99
-85.45
-91.73
-99.15
-109.10
-122.63
-139.77
-159.06
-177.21
-189.63
-191.39
-178.87
-151.20
-110.84
-63.12
-14.66
28.48
62.25
85.17
97.87
102.23
100.44
94.57
86.43
77.66
69.71
63.73
60.38
59.73
61.27
64.22
67.74
71.25
74.40
76.98
78.63
78.72
76.41
70.95
62.11
50.37
36.89
23.09
10.10
-1.57
-12.15
-22.25
-32.44
-42.82
-52.96
-62.05
-69.39
-74.79
-78.75
-82.50
-87.74
-96.19
-108.99
-126.02
-145.28
-162.92
-173.84
-173.17
-157.88
-128.04
-87.08
-40.80
4.34
42.99
72.02
90.72
100.18
102.34
99.30
92.97
85.04
77.10
70.58
66.57
65.54
67.26
70.85
75.12
78.99
81.81
83.45
84.06
83.74
82.27
79.02
73.19
64.17
51.97
37.39
21.84
6.92
-6.10
-16.76
-25.53
-33.53
-41.99
-51.60
-62.25
-73.06
-82.87
-90.83
-96.88
-101.87
-107.40
-115.39
-127.39
-143.82
-163.34
-182.56
-196.49
-199.81
-188.56
-161.65
-121.54
-73.59
-24.54
19.50
54.49
78.97
93.70
100.72
102.41
100.84
97.65
94.00
90.70
88.35
87.28
87.57
89.03
91.18
93.44
95.24
96.29
96.56
96.25
95.49
94.12
91.55
86.92
79.41
68.68
55.15
40.02
24.94
11.51
0.75
-7.27
-13.37
-18.88
-25.20
-33.19
-42.95
-53.80
-64.60
-74.22
-81.98
-87.99
-93.20
-99.18
-107.77
-120.46
-137.75
-158.50
-179.59
-196.21
-202.94
-195.26
-171.27
-132.52
-83.93
-32.34
15.37
54.14
81.68
98.36
106.34
108.37
106.98
104.04
100.78
97.98
96.17
95.62
96.37
98.13
100.34
102.33
103.56
103.74
102.95
101.49
99.62
97.34
94.22
89.61
82.76
73.27
61.34
47.76
33.80
20.78
9.74
1.09
-5.52
-11.07
-16.82
-23.86
-32.72
-43.12
-54.16
-64.62
-73.50
-80.43
-85.87
-91.04
-97.63
-107.37
-121.46
-139.89
-160.82
-180.49
-193.71
-195.18
-181.30
-151.56
-109.10
-59.79
-10.58
32.55
65.96
88.63
101.61
107.01
107.09
103.78
98.69
93.14
88.36
85.26
84.37
85.57
88.18
91.14
93.40
94.28
93.68
92.02
89.92
87.81
85.55
82.42
77.42
69.73
59.23
46.57
33.12
20.41
9.60
1.00
-6.01
-12.65
-20.22
-29.39
-39.98
-50.94
-60.90
-68.85
-74.58
-78.94
-83.48
-90.01
-100.05
-114.31
-132.22
-151.64
-168.93
-179.43
-178.64
-163.65
-134.38
-93.92
-47.89
-2.79
35.82
64.61
82.86
91.81
93.64
90.52
84.10
75.67
66.41
57.69
50.96
47.41
47.50
50.72
55.75
60.90
64.72
66.49
66.24
64.54
61.93
58.54
53.88
47.05
37.24
24.22
8.63
-8.04
-23.94
-37.42
-47.62
-54.70
-59.76
-64.44
-70.48
-79.31
-91.69
-107.25
-124.30
-139.66
-149.23
-148.89
-135.93
-110.05
-73.84
-32.13
9.27
45.22
72.38
89.74
98.23
99.99
97.37
92.35
86.32
80.09
74.17
68.99
65.01
62.61
61.97
62.98
65.17
67.85
70.23
71.53
71.03
68.17
62.63
54.50
44.23
32.58
20.35
8.16
-3.74
-15.32
-26.67
-37.78
-48.47
-58.39
-67.18
-74.62
-80.81
-86.34
-92.31
-100.17
-111.36
-126.52
-144.77
-163.27
-177.49
-182.37
-173.89
-150.61
-114.38
-69.92
-23.47
19.07
53.56
78.23
93.50
101.11
103.28
102.04
99.05
95.64
92.79
91.18
91.08
92.26
94.08
95.70
96.35
95.70
93.84
91.27
88.50
85.82
82.99
79.32
73.90
66.01
55.48
42.85
29.29
16.29
5.09
-3.73
-10.53
-16.44
-22.90
-30.99
-40.95
-52.08
-63.03
-72.48
-79.68
-84.91
-89.35
-94.78
-103.07
-115.50
-132.30
-152.07
-171.59
-186.14
-190.57
-180.82
-155.49
-116.64
-69.42
-20.64
23.33
58.06
81.98
95.95
102.27
103.60
102.17
99.47
96.38
93.51
91.26
90.00
89.92
90.94
92.64
94.39
95.54
95.70
94.86
93.29
91.31
88.92
85.72
81.01
74.10
64.71
53.12
40.20
27.10
15.02
4.83
-3.13
-9.06
-13.69
-18.00
-23.01
-29.36
-37.21
-46.08
-55.14
-63.49
-70.54
-76.36
-81.71
-87.94
-96.64
-109.15
-125.93
-145.91
-166.21
-182.37
-189.29
-182.73
-160.82
-124.98
-79.69
-31.32
13.73
50.64
77.13
93.31
100.95
102.48
100.18
95.89
91.00
86.53
83.23
81.52
81.41
82.49
84.02
85.17
85.40
84.55
82.97
81.18
79.51
77.83
75.42
71.18
64.18
54.06
41.33
27.32
13.74
2.13
-6.67
-12.83
-17.40
-21.88
-27.63
-35.34
-44.75
-54.83
-64.23
-71.88
-77.56
-82.07
-87.06
-94.47
-105.85
-121.60
-140.39
-159.09
-173.18
-177.85
-169.41
-146.55
-111.04
-67.37
-21.57
20.43
54.29
77.95
91.56
96.70
95.52
90.12
82.39
73.98
66.39
60.90
58.29
58.65
61.38
65.37
69.41
72.67
74.84
76.06
76.55
76.23
74.51
70.42
63.09
52.32
38.81
24.12
10.10
-1.82
-11.06
-18.12
-24.21
-30.61
-38.14
-46.80
-55.90
-64.42
-71.58
-77.22
-81.98
-87.19
-94.56
-105.62
-121.03
-139.93
-159.48
-175.12
-181.53
-174.23
-151.29
-114.26
-68.06
-19.51
24.70
59.85
84.08
98.11
104.26
105.16
103.01
99.28
94.97
90.90
87.82
86.34
86.66
88.46
90.96
93.18
94.35
94.09
92.57
90.25
87.55
84.63
81.21
76.67
70.29
61.56
50.44
37.51
23.93
11.11
0.26
-8.07
-14.17
-19.10
-24.28
-30.93
-39.56
-49.83
-60.73
-71.06
-79.92
-87.08
-93.01
-98.82
-105.90
-115.62
-128.90
-145.62
-164.12
-181.09
-191.87
-191.67
-177.10
-147.56
-105.86
-57.56
-9.39
32.72
65.07
86.68
98.72
103.46
103.29
100.17
95.55
90.54
86.13
83.11
81.96
82.72
84.94
87.88
90.77
93.01
94.34
94.75
94.37
93.30
91.40
88.31
83.60
76.82
67.86
56.95
44.74
32.11
20.07
9.45
0.74
-6.05
-11.42
-16.26
-21.59
-28.22
-36.47
-46.05
-56.16
-65.85
-74.38
-81.57
-87.88
-94.30
-102.22
-112.98
-127.50
-145.52
-165.15
-182.65
-193.06
-191.48
-174.78
-142.94
-99.39
-50.12
-1.93
39.47
70.77
91.26
102.23
105.99
104.94
101.04
95.78
90.31
85.60
82.40
81.24
82.18
84.81
88.32
91.76
94.31
95.57
95.52
94.45
92.58
89.86
85.90
80.10
71.99
61.48
49.05
35.70
22.70
11.16
1.69
-5.78
-11.97
-17.95
-24.75
-32.98
-42.61
-53.00
-63.10
-71.97
-79.09
-84.68
-89.76
-95.88
-104.74
-117.55
-134.40
-153.67
-171.99
-184.68
-186.91
-175.24
-148.91
-110.37
-64.71
-18.20
23.40
56.20
78.67
91.28
95.68
93.89
87.78
79.00
69.04
59.39
51.41
46.23
44.45
45.99
50.07
55.42
60.58
64.37
66.11
65.70
63.43
59.63
54.48
47.86
39.47
29.08
16.69
2.73
-12.00
-26.43
-39.50
-50.43
-58.93
-65.28
-70.34
-75.36
-81.81
-90.92
-103.31
-118.35
-133.88
-146.32
-151.41
-145.50
-126.78
-96.18
-57.28
-15.30
24.28
57.18
81.04
95.48
101.62
101.29
96.48
88.96
80.18
71.38
63.59
57.65
54.18
53.43
55.19
58.84
63.40
67.79
70.95
72.07
70.66
66.57
60.02
51.50
41.62
31.00
20.10
9.19
-1.70
-12.63
-23.65
-34.68
-45.46
-55.57
-64.55
-72.11
-78.36
-84.01
-90.38
-99.16
-111.78
-128.59
-148.07
-166.64
-179.23
-180.64
-167.36
-138.88
-98.14
-50.78
-3.47
37.92
69.64
90.42
101.25
104.39
102.54
98.16
93.17
88.84
85.87
84.52
84.67
85.94
87.74
89.41
90.43
90.61
90.10
89.32
88.56
87.63
85.68
81.49
73.99
62.85
48.85
33.66
19.18
6.81
-3.04
-11.01
-18.35
-26.24
-35.25
-45.18
-55.27
-64.58
-72.47
-78.88
-84.42
-90.35
-98.35
-110.01
-126.17
-146.08
-166.87
-183.83
-191.40
-184.99
-162.63
-125.94
-79.76
-30.76
14.55
51.44
77.78
93.79
101.31
102.76
100.52
96.57
92.41
89.12
87.32
87.16
88.36
90.33
92.31
93.68
94.11
93.62
92.52
91.16
89.70
87.88
84.96
79.95
72.03
61.02
47.56
33.13
19.48
7.97
-0.93
-7.93
-14.41
-21.86
-31.07
-41.85
-53.15
-63.59
-72.16
-78.65
-83.89
-89.47
-97.26
-108.84
-124.71
-143.76
-162.98
-177.81
-183.21
-175.14
-152.14
-115.98
-71.40
-24.76
17.79
51.89
75.65
89.53
95.38
95.52
92.02
86.46
80.00
73.66
68.34
64.84
63.65
64.73
67.46
70.79
73.49
74.62
73.77
71.10
67.15
62.40
56.99
50.56
42.43
31.93
18.87
3.72
-12.37
-27.88
-41.34
-51.84
-59.26
-64.39
-68.64
-73.76
-81.29
-92.23
-106.48
-122.52
-137.40
-147.12
-147.60
-135.97
-111.67
-77.01
-36.69
3.52
38.40
64.64
81.30
89.48
91.31
88.94
84.02
77.58
70.39
63.31
57.42
53.80
53.16
55.47
59.82
64.69
68.48
70.01
68.79
65.08
59.49
52.64
44.85
36.08
26.06
14.54
1.46
-12.84
-27.63
-41.87
-54.50
-64.71
-72.30
-77.80
-82.43
-87.80
-95.57
-106.91
-122.00
-139.58
-156.78
-169.43
-172.96
-163.75
-140.48
-104.89
-61.50
-16.40
24.52
57.04
79.40
92.22
97.61
98.23
96.41
93.83
91.42
89.62
88.49
87.96
87.78
87.66
87.32
86.58
85.45
84.11
82.71
81.19
79.09
75.60
69.86
61.30
50.09
37.13
23.78
11.36
0.63
-8.52
-16.85
-25.39
-34.81
-45.16
-55.76
-65.60
-73.84
-80.26
-85.46
-90.79
-98.04
-108.85
-123.98
-142.64
-162.03
-177.60
-184.06
-177.04
-154.70
-118.68
-73.82
-26.79
15.95
49.87
73.21
86.79
93.00
94.60
93.88
92.36
90.90
90.00
89.98
90.99
92.90
95.18
97.02
97.67
96.74
94.45
91.52
88.75
86.52
84.45
81.48
76.29
68.00
56.70
43.44
29.98
17.99
8.44
1.23
-4.64
-10.59
-17.80
-26.72
-36.98
-47.61
-57.54
-66.03
-73.03
-79.26
-86.13
-95.34
-108.21
-124.92
-143.82
-161.28
-172.40
-172.37
-158.14
-129.71
-90.33
-45.64
-1.95
35.45
63.50
81.59
91.04
94.19
93.51
91.07
88.18
85.59
83.52
81.95
80.79
79.93
79.32
78.93
78.74
78.71
78.77
78.71
78.08
76.24
72.42
66.05
57.05
45.98
33.90
22.01
11.21
1.75
-6.72
-14.96
-23.64
-33.03
-42.79
-52.17
-60.35
-66.94
-72.25
-77.41
-84.07
-93.83
-107.47
-124.33
-141.90
-156.11
-162.27
-156.48
-136.95
-104.96
-64.61
-21.76
17.61
49.06
70.59
82.57
86.99
86.37
82.81
77.75
71.94
65.95
60.35
55.94
53.49
53.47
55.74
59.56
63.76
67.12
68.72
68.07
65.13
60.09
53.24
44.85
35.13
24.29
12.61
0.43
-11.86
-23.85
-35.11
-45.27
-54.06
-61.43
-67.68
-73.47
-79.80
-87.85
-98.69
-112.81
-129.69
-147.27
-162.09
-169.84
-166.59
-150.18
-121.18
-82.99
-40.91
-0.55
33.70
59.62
77.19
87.81
93.41
95.68
95.82
94.68
92.90
91.11
89.67
88.69
87.89
86.82
85.14
82.84
80.38
78.37
77.24
76.88
76.45
74.68
70.19
62.18
50.75
36.94
22.48
9.16
-1.76
-10.02
-16.35
-22.15
-28.84
-37.26
-47.35
-58.26
-68.69
-77.59
-84.58
-90.17
-95.72
-103.05
-113.86
-128.97
-147.59
-166.90
-182.35
-188.69
-181.62
-159.38
-123.60
-78.97
-31.84
11.66
47.16
72.77
88.87
97.22
100.08
99.56
97.38
94.81
92.80
91.95
92.46
94.13
96.44
98.63
100.04
100.23
99.13
97.02
94.41
91.71
89.07
86.20
82.43
76.92
68.97
58.46
45.98
32.75
20.25
9.66
1.46
-4.78
-10.15
-15.99
-23.29
-32.37
-42.75
-53.42
-63.27
-71.58
-78.32
-84.18
-90.54
-99.00
-110.97
-126.98
-146.11
-165.66
-181.30
-188.05
-181.65
-160.18
-124.97
-80.50
-33.05
11.02
47.05
72.88
88.76
96.45
98.29
96.41
92.53
87.97
83.83
80.98
79.99
80.90
83.26
86.19
88.73
90.15
90.21
89.20
87.71
86.18
84.61
82.42
78.62
72.29
63.03
51.22
37.99
24.87
13.24
3.83
-3.48
-9.57
-15.71
-23.00
-31.92
-42.13
-52.57
-61.99
-69.48
-74.93
-79.16
-83.76
-90.53
-101.01
-115.72
-133.64
-151.96
-166.37
-171.99
-164.83
-143.22
-108.68
-65.67
-20.30
21.38
55.05
78.75
92.82
98.99
99.44
96.21
90.89
84.77
78.97
74.51
72.14
72.22
74.45
77.99
81.66
84.35
85.41
84.81
82.99
80.52
77.65
74.10
69.21
62.19
52.65
40.87
27.82
14.93
3.56
-5.44
-12.02
-16.99
-21.66
-27.33
-34.74
-43.76
-53.55
-62.91
-70.85
-77.07
-82.01
-86.82
-92.99
-101.90
-114.41
-130.37
-148.11
-164.40
-174.81
-174.78
-161.11
-133.26
-93.85
-48.13
-2.42
37.57
68.14
88.04
98.09
100.36
97.28
91.07
83.59
76.30
70.35
66.49
64.98
65.56
67.48
69.80
71.68
72.71
72.93
72.69
72.22
71.31
69.24
64.93
57.60
47.14
34.40
20.95
8.48
-1.86
-9.92
-16.48
-22.77
-29.85
-38.06
-46.92
-55.45
-62.70
-68.26
-72.49
-76.46
-81.71
-89.77
-101.66
-117.24
-134.77
-150.74
-160.56
-159.76
-145.53
-117.89
-79.98
-37.15
4.56
40.15
66.71
83.56
91.63
92.61
88.21
79.99
69.42
58.12
47.85
40.31
36.66
37.13
40.84
46.20
51.39
55.07
56.68
56.48
55.00
52.57
48.96
43.33
34.74
22.65
7.42
-9.66
-26.65
-41.64
-53.35
-61.56
-67.21
-72.05
-78.15
-87.18
-99.89
-115.55
-131.86
-145.21
-151.42
-146.89
-129.81
-100.93
-63.61
-22.87
15.94
48.51
72.41
87.15
93.66
93.56
88.64
80.58
70.99
61.45
53.38
47.85
45.30
45.41
47.24
49.56
51.24
51.59
50.54
48.37
45.40
41.55
36.19
28.35
17.24
2.79
-14.03
-31.39
-47.28
-60.17
-69.68
-76.72
-83.14
-91.15
-102.46
-117.48
-134.85
-151.37
-162.55
-163.80
-151.92
-126.37
-89.69
-46.93
-4.14
33.37
62.28
81.74
92.82
97.56
98.03
95.83
92.05
87.55
83.14
79.66
77.80
77.83
79.43
81.71
83.49
83.69
81.73
77.70
72.20
66.03
59.67
53.01
45.42
35.97
23.93
9.29
-7.15
-23.91
-39.30
-52.06
-61.77
-69.00
-75.13
-81.97
-91.25
-104.13
-120.65
-139.34
-157.09
-169.55
-172.13
-161.41
-136.46
-99.45
-55.27
-10.15
30.10
61.54
82.75
94.64
99.42
99.71
97.71
94.91
92.12
89.75
87.97
86.84
86.36
86.47
87.00
87.71
88.30
88.44
87.80
86.09
83.01
78.33
71.91
63.76
54.06
43.15
31.45
19.34
7.11
-5.04
-16.97
-28.45
-39.14
-48.63
-56.65
-63.25
-69.02
-75.04
-82.78
-93.66
-108.41
-126.42
-145.28
-160.83
-168.19
-163.10
-143.57
-110.77
-68.90
-23.99
17.83
52.02
76.42
91.21
98.13
99.48
97.46
93.73
89.46
85.47
82.31
80.35
79.67
80.07
81.13
82.33
83.30
83.81
83.77
83.03
81.27
77.89
72.25
63.96
53.14
40.51
27.16
14.19
2.30
-8.36
-18.14
-27.54
-36.89
-46.13
-54.82
-62.47
-68.73
-73.81
-78.44
-83.93
-91.76
-103.19
-118.50
-136.34
-153.53
-165.45
-167.22
-155.37
-129.28
-91.63
-47.80
-4.20
33.57
62.08
80.53
90.10
92.91
91.07
86.14
79.26
71.43
63.84
57.83
54.58
54.70
57.87
62.92
68.19
72.11
73.69
72.72
69.58
64.88
59.06
52.15
43.90
33.92
21.98
8.25
-6.65
-21.70
-35.75
-47.77
-57.14
-63.90
-68.80
-73.14
-78.57
-86.68
-98.46
-113.73
-130.69
-145.92
-154.97
-153.59
-139.17
-111.79
-74.44
-32.27
8.91
44.20
70.63
87.47
95.73
97.42
94.74
89.69
83.87
78.45
74.28
71.83
71.29
72.46
74.88
77.84
80.64
82.76
83.86
83.77
82.24
78.89
73.20
64.79
53.77
40.83
27.17
14.04
2.29
-7.89
-17.06
-26.01
-35.42
-45.43
-55.58
-65.09
-73.21
-79.72
-85.12
-90.64
-97.97
-108.77
-123.85
-142.50
-161.99
-177.82
-184.70
-178.19
-156.30
-120.54
-75.67
-28.33
14.89
49.35
73.20
87.20
93.73
95.52
94.81
92.99
90.86
88.96
87.74
87.58
88.59
90.42
92.33
93.44
93.16
91.47
88.93
86.28
84.01
81.93
79.15
74.43
66.79
56.01
42.86
28.86
15.75
4.81
-3.58
-9.97
-15.62
-21.84
-29.46
-38.49
-48.21
-57.52
-65.48
-71.76
-76.84
-81.93
-88.64
-98.58
-112.77
-131.00
-151.35
-170.07
-182.21
-182.85
-168.80
-139.89
-99.34
-52.96
-7.35
31.88
61.44
80.70
90.99
94.70
94.27
91.76
88.64
85.95
84.31
84.01
84.95
86.72
88.70
90.30
91.15
91.13
90.46
89.36
87.82
85.50
81.74
75.78
67.21
56.17
43.46
30.26
17.73
6.60
-3.13
-12.04
-20.99
-30.62
-41.04
-51.72
-61.75
-70.22
-76.80
-81.90
-86.80
-93.25
-102.96
-116.75
-133.89
-151.66
-165.75
-171.24
-164.19
-143.13
-109.71
-68.42
-25.28
13.96
45.23
66.85
79.29
84.33
84.06
80.29
74.31
67.19
59.98
53.84
49.85
48.64
50.03
53.10
56.45
58.79
59.41
58.31
55.97
52.85
48.95
43.67
36.08
25.47
11.82
-3.88
-19.86
-34.10
-45.10
-52.38
-56.75
-59.98
-64.23
-71.49
-82.79
-97.84
-114.67
-129.81
-138.91
-137.89
-124.22
-98.08
-62.45
-22.49
16.07
48.48
72.13
86.67
93.51
94.83
92.66
88.55
83.51
78.24
73.35
69.44
67.03
66.39
67.43
69.62
72.14
74.08
74.63
73.23
69.68
64.04
56.58
47.65
37.64
26.84
15.39
3.36
-9.21
-22.10
-34.84
-46.73
-57.07
-65.45
-71.99
-77.39
-82.75
-89.36
-98.40
-110.61
-125.93
-143.00
-158.94
-169.66
-170.75
-158.95
-133.48
-96.65
-53.40
-9.85
28.43
57.83
77.25
87.73
91.57
91.37
89.31
86.94
85.06
83.96
83.61
83.76
84.14
84.43
84.40
83.90
82.99
81.84
80.61
79.28
77.38
74.15
68.68
60.44
49.52
36.76
23.43
10.83
-0.25
-9.80
-18.40
-26.88
-35.84
-45.36
-54.95
-63.78
-71.19
-76.97
-81.72
-86.76
-93.85
-104.57
-119.53
-137.66
-155.86
-169.43
-173.23
-163.36
-138.65
-101.35
-56.66
-11.15
29.17
60.35
81.19
92.72
97.31
97.51
95.36
92.27
89.08
86.39
84.60
83.98
84.47
85.67
86.87
87.39
86.83
85.26
83.13
80.99
79.05
76.91
73.62
68.03
59.43
47.98
34.79
21.57
9.96
0.81
-6.11
-12.00
-18.37
-26.30
-35.93
-46.44
-56.45
-64.77
-70.95
-75.53
-79.85
-85.66
-94.66
-107.86
-125.10
-144.47
-162.29
-173.65
-173.65
-159.20
-130.29
-90.40
-45.54
-2.37
33.78
60.11
76.42
84.34
86.11
83.78
78.91
72.69
66.16
60.37
56.22
54.31
54.74
57.00
60.12
62.94
64.42
63.96
61.56
57.70
53.03
47.94
42.28
35.40
26.52
15.19
1.66
-13.04
-27.43
-40.02
-49.85
-56.79
-61.60
-65.67
-70.73
-78.37
-89.54
-104.07
-120.33
-135.26
-144.83
-145.08
-133.36
-109.34
-75.43
-36.22
2.84
36.86
62.76
79.66
88.44
90.92
88.94
83.95
77.04
69.14
61.35
54.95
51.07
50.34
52.58
56.80
61.51
65.17
66.66
65.54
62.05
56.79
50.41
43.22
35.07
25.55
14.27
1.18
-13.16
-27.70
-41.22
-52.70
-61.67
-68.34
-73.54
-78.45
-84.52
-93.11
-105.14
-120.52
-137.66
-153.32
-163.03
-162.31
-148.19
-120.45
-82.06
-38.42
4.24
40.64
67.74
85.01
93.90
96.75
95.90
93.15
89.70
86.34
83.63
81.90
81.22
81.40
81.99
82.56
82.83
82.72
82.22
81.16
79.18
75.70
70.21
62.48
52.71
41.51
29.65
17.79
6.35
-4.60
-15.16
-25.46
-35.54
-45.29
-54.45
-62.77
-70.14
-76.74
-83.17
-90.44
-99.85
-112.48
-128.44
-146.24
-162.51
-172.51
-171.47
-156.33
-127.05
-86.94
-41.73
2.17
39.49
67.33
85.29
94.82
98.18
97.65
94.99
91.52
88.15
85.53
84.03
83.70
84.22
85.02
85.52
85.29
84.22
82.49
80.30
77.75
74.51
69.98
63.42
54.42
43.11
30.27
17.01
4.34
-7.25
-17.93
-28.35
-39.20
-50.84
-63.04
-75.14
-86.35
-96.21
-104.84
-113.07
-122.29
-134.13
-149.82
-169.46
-191.42
-212.16
-226.83
-230.61
-220.48
-196.41
-161.81
-122.52
-85.03
-54.69
-34.36
-24.34
-23.08
-28.30
-37.87
-50.17
-63.83
-77.48
-89.47
-97.93
-101.11
-97.80
-87.63
-71.13
-49.48
-24.14
3.52
32.47
61.92
91.05
118.66
143.12
162.45
174.90
179.49
176.45
167.24
154.10
139.40
124.92
111.42
98.62
85.49
70.67
53.02
32.14
8.73
-15.14
-36.19
-50.50
-54.58
-46.45
-26.53
2.31
35.39
67.55
94.50
113.70
124.49
127.61
124.45
116.49
105.15
91.86
78.27
66.19
57.25
52.39
51.54
53.57
56.68
59.06
59.52
57.78
54.31
49.90
44.98
39.38
32.33
22.92
10.66
-4.04
-19.91
-35.13
-48.04
-57.73
-64.38
-69.23
-74.22
-81.34
-92.06
-106.68
-123.94
-140.86
-153.19
-156.38
-146.96
-123.83
-88.87
-46.63
-3.02
36.32
67.49
88.94
101.26
106.31
106.31
103.17
98.33
92.87
87.63
83.35
80.46
79.07
78.86
79.36
80.02
80.59
80.94
81.01
80.49
78.74
74.97
68.56
59.43
48.11
35.61
22.98
10.97
-0.23
-10.83
-21.23
-31.67
-42.09
-52.08
-61.11
-68.75
-74.99
-80.40
-86.10
-93.62
-104.40
-119.17
-137.19
-155.85
-170.83
-177.17
-170.65
-149.41
-114.84
-71.35
-25.16
17.55
52.27
76.99
92.02
99.22
100.90
99.12
95.48
91.16
87.17
84.36
83.26
83.90
85.76
87.95
89.47
89.67
88.39
85.96
82.96
79.83
76.62
72.87
67.75
60.49
50.69
38.67
25.46
12.53
1.31
-7.35
-13.55
-18.24
-22.92
-28.95
-36.99
-46.79
-57.34
-67.35
-75.88
-82.75
-88.58
-94.62
-102.44
-113.35
-128.03
-145.88
-164.59
-180.18
-187.71
-182.66
-162.55
-128.15
-83.55
-35.04
10.74
48.72
76.37
93.73
102.49
104.97
103.24
98.94
93.32
87.62
82.94
80.16
79.65
81.08
83.58
86.04
87.59
87.87
87.05
85.65
84.04
82.21
79.54
75.10
68.07
58.18
45.90
32.41
19.21
7.59
-1.75
-8.99
-15.04
-21.17
-28.46
-37.37
-47.59
-58.17
-67.91
-75.96
-82.15
-87.17
-92.49
-99.87
-110.79
-125.77
-143.71
-161.62
-175.00
-178.92
-169.56
-145.69
-109.32
-65.27
-19.76
21.45
54.42
77.54
91.22
96.90
96.24
90.75
81.78
70.82
59.62
50.09
43.84
41.79
43.75
48.46
54.05
58.66
61.05
60.93
58.85
55.61
51.76
47.09
40.80
31.90
19.84
5.03
-11.18
-26.86
-40.18
-50.09
-56.64
-60.93
-64.75
-70.00
-78.20
-90.03
-104.97
-121.13
-135.28
-143.44
-141.86
-128.27
-102.83
-68.36
-29.61
8.09
40.36
64.67
80.48
88.69
90.66
87.73
80.99
71.57
60.89
50.76
42.96
38.81
38.68
41.88
46.90
51.93
55.44
56.58
55.23
51.87
47.13
41.45
34.77
26.59
16.27
3.49
-11.38
-27.16
-42.20
-54.92
-64.43
-70.89
-75.43
-79.80
-85.87
-95.13
-108.23
-124.63
-142.25
-157.52
-166.00
-163.47
-147.33
-117.75
-77.91
-33.26
10.09
47.00
74.48
92.00
100.86
103.33
101.70
97.82
92.98
88.09
83.80
80.68
79.05
79.01
80.28
82.29
84.23
85.32
84.94
82.77
78.85
73.41
66.76
59.11
50.45
40.62
29.42
16.83
3.12
-11.05
-24.85
-37.41
-48.11
-56.75
-63.60
-69.37
-75.17
-82.34
-92.17
-105.42
-121.75
-139.29
-154.55
-163.04
-160.52
-144.45
-115.07
-75.58
-31.31
11.76
48.68
76.53
94.67
104.18
107.08
105.51
101.31
95.94
90.53
85.89
82.52
80.59
79.91
80.05
80.51
80.95
81.19
81.21
80.88
79.86
77.50
73.03
65.86
55.97
43.97
31.05
18.52
7.34
-2.19
-10.50
-18.45
-26.90
-36.26
-46.33
-56.36
-65.36
-72.61
-77.97
-82.14
-86.58
-93.12
-103.37
-117.93
-135.65
-153.32
-166.18
-169.06
-158.11
-132.27
-93.92
-48.32
-2.04
38.91
70.64
91.86
103.48
107.65
106.75
102.91
97.76
92.60
88.47
86.09
85.75
87.17
89.54
91.78
92.94
92.44
90.33
87.02
83.00
78.43
73.02
66.09
57.04
45.75
32.86
19.59
7.30
-3.12
-11.59
-18.83
-25.96
-33.88
-42.89
-52.49
-61.74
-69.69
-75.90
-80.73
-85.22
-90.96
-99.53
-112.04
-128.44
-146.95
-163.98
-174.66
-174.19
-159.42
-130.30
-90.17
-44.90
-1.09
35.83
62.93
79.91
88.32
90.38
88.03
82.65
75.26
66.95
59.10
53.19
50.37
51.01
54.47
59.31
63.81
66.56
66.88
64.89
61.19
56.49
51.13
44.93
37.34
27.73
15.84
2.03
-12.68
-26.87
-39.16
-48.67
-55.31
-59.78
-63.38
-67.59
-73.84
-83.07
-95.49
-110.14
-124.67
-135.53
-138.68
-130.75
-110.37
-78.91
-40.33
-0.10
36.40
65.24
84.74
95.21
98.24
95.82
89.77
81.53
72.40
63.57
56.24
51.34
49.35
50.18
53.15
57.26
61.39
64.55
65.95
65.10
61.77
56.01
48.14
38.67
28.14
17.00
5.49
-6.32
-18.36
-30.47
-42.25
-53.11
-62.45
-69.89
-75.44
-79.64
-83.54
-88.58
-96.21
-107.52
-122.52
-139.63
-155.56
-165.77
-165.73
-152.35
-125.29
-87.31
-43.59
-0.20
37.63
66.64
85.94
96.51
100.36
99.73
96.57
92.43
88.42
85.32
83.49
82.93
83.25
83.86
84.21
83.94
83.01
81.67
80.21
78.70
76.84
73.90
68.97
61.39
51.06
38.69
25.51
12.93
1.93
-7.20
-14.96
-22.28
-30.08
-38.86
-48.50
-58.32
-67.47
-75.24
-81.54
-87.04
-93.19
-101.79
-114.29
-130.95
-150.13
-168.13
-179.86
-180.26
-166.04
-136.97
-96.27
-49.70
-3.88
35.63
65.56
85.23
95.94
99.94
99.52
96.54
92.40
88.25
85.02
83.39
83.61
85.38
87.92
90.18
91.35
91.06
89.57
87.44
85.21
82.91
79.96
75.34
68.15
58.10
45.74
32.39
19.62
8.60
-0.26
-7.47
-14.16
-21.52
-30.22
-40.19
-50.60
-60.27
-68.23
-74.20
-78.78
-83.33
-89.64
-99.32
-113.19
-130.71
-149.46
-165.39
-173.59
-169.66
-151.28
-119.29
-77.68
-32.53
9.86
44.63
69.37
84.20
90.81
91.53
88.51
83.34
77.20
71.04
65.69
61.87
60.04
60.29
62.32
65.44
68.83
71.60
73.05
72.75
70.53
66.48
60.84
53.85
45.68
36.39
25.98
14.48
2.12
-10.61
-23.03
-34.36
-44.00
-51.71
-57.73
-62.75
-67.77
-73.94
-82.35
-93.66
-107.79
-123.39
-137.76
-147.07
-147.36
-135.80
-111.91
-77.97
-38.58
0.75
35.12
61.48
78.90
88.05
90.38
87.41
80.47
70.89
60.24
50.32
42.87
39.03
38.96
41.73
45.74
49.33
51.32
51.39
49.93
47.57
44.66
40.88
35.33
27.00
15.30
0.58
-15.79
-31.86
-45.74
-56.30
-63.53
-68.49
-72.90
-78.71
-87.53
-100.10
-115.92
-132.88
-147.38
-155.03
-151.82
-135.52
-106.64
-68.50
-26.41
13.90
47.82
72.82
88.59
96.45
98.46
96.64
92.56
87.32
81.75
76.51
72.22
69.39
68.31
68.95
70.95
73.72
76.52
78.61
79.28
77.91
74.08
67.65
58.85
48.25
36.62
24.64
12.74
1.06
-10.47
-21.89
-33.09
-43.77
-53.52
-62.05
-69.31
-75.60
-81.65
-88.48
-97.38
-109.47
-125.07
-143.08
-160.51
-172.85
-175.16
-163.68
-137.41
-98.78
-53.06
-6.85
33.94
65.52
86.77
98.66
103.31
103.05
99.82
95.19
90.39
86.47
84.15
83.71
84.90
87.01
89.13
90.48
90.63
89.57
87.63
85.23
82.56
79.44
75.21
69.03
60.28
48.96
35.90
22.53
10.40
0.54
-6.96
-12.98
-18.92
-26.06
-34.95
-45.21
-55.78
-65.40
-73.23
-79.20
-84.11
-89.42
-96.82
-107.79
-122.93
-141.40
-160.54
-176.08
-182.94
-176.78
-155.57
-120.55
-76.17
-28.77
15.22
51.01
76.37
91.52
98.39
99.46
97.09
93.07
88.66
84.72
81.84
80.45
80.68
82.42
85.25
88.58
91.74
94.17
95.50
95.56
94.30
91.69
87.63
81.99
74.72
65.86
55.69
44.64
33.31
22.36
12.48
4.18
-2.34
-7.37
-11.69
-16.35
-22.34
-30.16
-39.58
-49.77
-59.61
-68.20
-75.23
-81.02
-86.49
-92.87
-101.48
-113.34
-128.84
-147.02
-165.23
-179.28
-184.26
-176.09
-153.05
-116.67
-71.52
-23.89
19.97
55.48
80.41
94.78
100.09
98.50
92.25
83.42
73.90
65.41
59.37
56.64
57.36
60.94
66.16
71.63
76.21
79.30
80.86
81.24
80.68
79.11
75.99
70.56
62.31
51.33
38.41
24.94
12.41
1.86
-6.44
-13.11
-19.35
-26.34
-34.78
-44.51
-54.64
-63.90
-71.30
-76.54
-80.26
-83.90
-89.27
-98.02
-110.96
-127.53
-145.43
-160.87
-169.22
-166.36
-149.95
-120.44
-81.17
-37.49
4.68
40.48
67.07
83.84
91.88
93.02
89.14
81.90
72.70
62.97
54.22
47.84
44.84
45.44
49.10
54.71
60.99
66.76
71.18
73.66
73.75
71.14
65.69
57.58
47.40
35.98
24.26
12.91
2.23
-7.91
-17.89
-27.96
-38.13
-48.03
-57.07
-64.82
-71.22
-76.85
-82.87
-90.78
-101.86
-116.53
-133.74
-150.64
-163.03
-166.30
-156.93
-133.76
-98.60
-55.90
-11.51
28.93
61.35
83.86
96.61
101.13
99.57
94.15
86.79
79.13
72.46
67.72
65.38
65.45
67.39
70.33
73.32
75.67
77.09
77.64
77.39
76.20
73.55
68.69
61.05
50.68
38.34
25.39
13.18
2.63
-6.20
-13.98
-21.74
-30.35
-40.07
-50.47
-60.58
-69.39
-76.29
-81.44
-85.88
-91.34
-99.71
-112.27
-128.91
-147.55
-164.16
-173.65
-171.33
-154.49
-123.58
-82.29
-36.49
7.50
44.59
71.98
89.30
97.88
99.86
97.40
92.30
86.05
79.90
74.97
72.06
71.53
73.12
76.01
79.14
81.54
82.79
82.97
82.54
81.88
80.92
79.00
75.13
68.42
58.63
46.43
33.22
20.64
9.93
1.43
-5.51
-12.15
-19.72
-28.81
-39.09
-49.54
-58.89
-66.28
-71.68
-75.93
-80.60
-87.50
-98.09
-112.86
-130.77
-148.99
-163.20
-168.60
-161.30
-139.75
-105.47
-62.79
-17.68
24.04
58.04
82.24
96.65
102.66
102.28
97.52
90.24
82.14
74.74
69.29
66.54
66.58
68.83
72.34
76.05
79.14
81.18
82.03
81.68
79.98
76.62
71.15
63.25
52.95
40.86
28.03
15.76
5.09
-3.60
-10.70
-17.17
-24.06
-31.97
-40.79
-49.72
-57.77
-64.22
-69.01
-72.85
-77.10
-83.39
-93.16
-107.03
-124.20
-142.03
-156.29
-162.13
-155.53
-134.84
-101.61
-60.25
-16.77
22.98
54.87
77.05
89.81
94.65
93.45
87.95
79.59
69.76
59.93
51.61
46.14
44.34
46.16
50.79
56.83
62.77
67.32
69.65
69.46
66.82
62.00
55.39
47.32
38.08
27.85
16.76
4.96
-7.32
-19.64
-31.34
-41.74
-50.31
-56.90
-61.95
-66.41
-71.66
-79.09
-89.74
-103.77
-120.00
-135.73
-147.08
-149.85
-140.80
-118.85
-85.68
-45.48
-3.76
34.15
64.41
85.34
97.25
101.72
100.76
96.27
89.83
82.76
76.24
71.28
68.57
68.27
69.98
72.81
75.74
77.96
79.11
79.24
78.59
77.30
75.05
71.17
64.85
55.64
43.82
30.52
17.36
5.84
-3.29
-10.40
-16.74
-23.79
-32.52
-42.89
-53.93
-64.22
-72.67
-78.98
-83.85
-88.68
-95.20
-104.87
-118.43
-135.39
-153.69
-169.67
-178.72
-176.42
-160.06
-129.84
-89.08
-43.45
0.77
38.48
66.83
85.42
95.60
99.39
98.76
95.30
90.30
84.96
80.41
77.59
76.99
78.41
81.13
84.12
86.44
87.56
87.43
86.35
84.65
82.40
79.31
74.71
67.92
58.58
46.96
34.00
21.08
9.52
0.16
-7.01
-12.84
-18.58
-25.34
-33.64
-43.17
-53.04
-62.12
-69.62
-75.35
-79.85
-84.31
-90.29
-99.28
-112.21
-128.77
-146.91
-162.91
-172.05
-169.90
-153.88
-124.29
-84.45
-39.80
3.73
41.17
69.64
88.41
98.44
101.51
99.65
94.71
88.33
81.96
76.79
73.69
72.98
74.40
77.12
80.09
82.37
83.41
83.17
81.98
80.25
78.09
75.19
70.86
64.36
55.28
43.86
30.94
17.78
5.62
-4.73
-13.12
-20.06
-26.45
-33.17
-40.80
-49.33
-58.24
-66.66
-73.77
-79.17
-83.14
-86.67
-91.31
-98.71
-109.98
-124.95
-141.76
-156.82
-165.58
-163.76
-148.80
-120.85
-82.93
-40.16
1.78
38.04
65.68
83.79
93.11
95.26
92.14
85.59
77.30
68.80
61.40
56.05
53.17
52.65
53.97
56.43
59.37
62.29
64.84
66.68
67.39
66.41
63.18
57.36
49.03
38.79
27.57
16.32
5.75
-3.92
-12.96
-21.84
-30.93
-40.27
-49.45
-57.77
-64.63
-69.82
-73.83
-77.83
-83.51
-92.53
-105.73
-122.33
-139.65
-153.37
-158.69
-151.79
-131.32
-98.91
-58.81
-16.60
22.41
54.43
77.71
92.28
99.36
100.57
97.57
91.83
84.79
77.75
71.91
68.16
66.85
67.71
69.96
72.64
74.95
76.46
77.15
77.16
76.45
74.64
70.98
64.72
55.45
43.53
30.07
16.64
4.72
-4.82
-12.08
-18.01
-23.96
-31.08
-39.83
-49.83
-60.10
-69.50
-77.32
-83.52
-88.83
-94.64
-102.59
-114.06
-129.47
-147.63
-165.42
-178.25
-181.16
-170.49
-145.27
-107.79
-63.07
-17.32
23.79
56.50
79.40
93.12
99.41
100.43
98.15
94.22
89.98
86.44
84.31
83.88
85.04
87.26
89.84
92.05
93.33
93.48
92.60
91.01
88.98
86.55
83.42
78.96
72.47
63.52
52.25
39.44
26.41
14.49
4.62
-3.04
-9.18
-14.93
-21.49
-29.56
-39.15
-49.61
-59.90
-69.03
-76.44
-82.22
-87.12
-92.49
-99.92
-110.84
-125.82
-144.01
-162.72
-177.64
-183.80
-177.02
-155.49
-120.61
-76.80
-30.22
12.94
48.16
73.32
88.63
95.83
97.23
94.95
90.71
85.77
81.19
77.80
76.24
76.70
78.91
82.14
85.41
87.84
88.95
88.79
87.80
86.50
85.08
83.20
80.12
74.92
67.05
56.51
44.05
30.91
18.46
7.71
-0.88
-7.58
-13.19
-18.78
-25.23
-32.94
-41.72
-50.83
-59.33
-66.50
-72.21
-77.01
-82.03
-88.70
-98.35
-111.75
-128.63
-147.23
-164.26
-175.35
-176.08
-163.36
-136.68
-98.58
-54.07
-9.26
30.33
61.10
81.76
93.03
96.76
95.09
89.98
83.08
75.81
69.37
64.75
62.49
62.58
64.44
67.19
69.93
72.09
73.52
74.27
74.37
73.53
71.19
66.68
59.62
50.22
39.23
27.73
16.68
6.58
-2.62
-11.40
-20.34
-29.76
-39.58
-49.28
-58.09
-65.42
-71.03
-75.41
-79.72
-85.60
-94.62
-107.57
-123.75
-140.58
-153.94
-159.12
-152.29
-131.94
-99.55
-59.32
-16.98
21.89
53.27
75.38
88.44
93.83
93.26
88.27
80.14
70.17
59.87
50.93
44.83
42.44
43.69
47.53
52.32
56.35
58.46
58.28
56.16
52.79
48.66
43.75
37.50
29.08
17.97
4.30
-10.94
-26.23
-39.89
-50.69
-58.25
-63.10
-66.60
-70.59
-76.95
-86.98
-100.90
-117.36
-133.37
-144.77
-147.20
-137.55
-115.01
-81.67
-41.99
-1.52
34.64
63.07
82.46
93.40
97.48
96.55
92.19
85.68
78.06
70.42
63.90
59.52
57.99
59.29
62.68
66.79
70.06
71.20
69.67
65.74
60.18
53.79
46.94
39.35
30.29
19.12
5.70
-9.35
-24.81
-39.25
-51.52
-61.12
-68.26
-73.79
-79.00
-85.36
-94.24
-106.54
-122.13
-139.42
-155.16
-165.02
-164.63
-151.10
-124.17
-86.57
-43.43
-0.72
36.37
64.69
83.49
93.92
98.15
98.34
96.18
92.75
88.77
84.79
81.38
79.04
78.02
78.20
79.03
79.74
79.57
78.04
75.07
70.91
65.96
60.49
54.49
47.65
39.43
29.35
17.22
3.35
-11.43
-25.93
-38.97
-49.69
-57.90
-64.14
-69.56
-75.72
-84.08
-95.66
-110.42
-126.91
-142.17
-152.18
-152.82
-141.21
-116.83
-82.02
-41.40
-0.62
35.27
63.08
81.85
92.51
97.05
97.53
95.68
92.67
89.30
86.13
83.60
81.99
81.35
81.50
82.09
82.73
83.07
82.84
81.83
79.82
76.62
72.01
65.85
58.06
48.71
38.01
26.26
13.83
1.19
-11.22
-22.93
-33.57
-42.87
-50.78
-57.43
-63.33
-69.21
-76.09
-85.08
-97.06
-112.08
-128.89
-144.72
-155.60
-157.34
-146.94
-123.72
-89.86
-49.90
-9.40
26.60
54.80
74.10
85.19
89.82
89.92
87.13
82.66
77.41
72.13
67.52
64.20
62.55
62.59
63.99
66.08
68.06
69.18
68.87
66.78
62.87
57.30
50.38
42.40
33.61
24.09
13.84
2.86
-8.69
-20.34
-31.40
-41.08
-48.88
-54.78
-59.32
-63.54
-68.70
-76.06
-86.46
-100.03
-115.82
-131.51
-143.66
-148.35
-142.34
-124.18
-95.00
-58.37
-19.39
16.77
46.22
67.07
79.35
84.41
84.03
79.85
73.20
65.24
57.14
50.17
45.48
43.71
44.69
47.45
50.61
52.84
53.34
52.03
49.30
45.64
41.21
35.70
28.51
19.04
7.17
-6.56
-21.00
-34.64
-46.09
-54.63
-60.42
-64.60
-68.98
-75.48
-85.49
-99.25
-115.40
-130.98
-141.98
-144.30
-135.03
-113.58
-82.00
-44.57
-6.53
27.32
53.92
72.30
83.30
88.64
90.13
89.12
86.43
82.59
78.14
73.77
70.18
67.95
67.28
67.91
69.23
70.46
70.87
69.98
67.55
63.60
58.24
51.59
43.70
34.58
24.22
12.62
-0.01
-13.29
-26.61
-39.19
-50.26
-59.34
-66.38
-71.99
-77.30
-83.77
-92.83
-105.30
-120.96
-138.12
-153.65
-163.41
-163.31
-150.58
-124.86
-88.67
-46.80
-5.02
31.50
59.51
78.08
88.29
92.34
92.58
90.95
88.71
86.60
85.00
84.05
83.72
83.78
83.88
83.64
82.83
81.48
79.76
77.91
75.89
73.36
69.67
64.20
56.66
47.30
36.84
26.15
15.91
6.26
-3.13
-12.83
-23.18
-34.06
-44.82
-54.60
-62.73
-69.07
-74.19
-79.31
-85.95
-95.48
-108.52
-124.42
-140.84
-153.96
-159.29
-152.95
-133.17
-101.13
-60.85
-18.02
21.62
53.90
76.93
91.02
97.90
99.69
98.34
95.34
91.73
88.30
85.55
83.69
82.62
81.92
81.13
79.90
78.17
76.16
74.23
72.56
71.00
68.90
65.34
59.42
50.70
39.47
26.79
14.13
2.83
-6.41
-13.81
-20.33
-27.21
-35.32
-44.75
-54.78
-64.24
-72.13
-78.11
-82.72
-87.31
-93.55
-102.93
-116.06
-132.17
-148.79
-162.04
-167.47
-161.34
-142.02
-110.75
-71.53
-29.97
8.31
39.25
61.07
74.15
80.20
81.23
78.98
74.62
69.05
63.07
57.61
53.56
51.61
51.89
53.97
56.94
59.68
61.23
61.02
58.94
55.21
50.24
44.24
37.23
29.00
19.24
7.77
-5.27
-19.31
-33.40
-46.42
-57.37
-65.67
-71.41
-75.37
-78.82
-83.27
-90.07
-99.95
-112.59
-126.37
-138.30
-144.60
-141.62
-127.06
-100.93
-65.80
-26.25
12.52
46.04
71.63
88.59
97.74
100.67
99.04
94.36
87.94
81.04
74.81
70.16
67.61
67.17
68.42
70.69
73.24
75.39
76.60
76.40
74.42
70.42
64.27
56.09
46.23
35.20
23.59
11.85
0.26
-11.16
-22.50
-33.81
-44.96
-55.54
-65.11
-73.25
-79.91
-85.50
-90.94
-97.57
-106.83
-119.62
-135.56
-152.44
-166.26
-172.16
-165.97
-145.75
-112.81
-71.35
-27.23
13.82
47.69
72.44
88.18
96.22
98.47
96.82
93.03
88.57
84.59
81.78
80.35
80.05
80.37
80.76
80.85
80.53
79.90
79.17
78.39
77.30
75.24
71.40
65.03
55.91
44.49
31.84
19.27
7.81
-2.14
-10.93
-19.31
-28.06
-37.49
-47.35
-56.94
-65.52
-72.72
-78.80
-84.63
-91.56
-100.99
-113.81
-129.80
-147.09
-162.17
-170.42
-167.48
-150.69
-120.31
-79.73
-34.58
8.95
45.75
73.01
90.30
98.96
101.12
98.91
94.01
87.81
81.45
75.99
72.23
70.59
70.92
72.62
74.84
76.86
78.24
78.83
78.55
77.20
74.42
69.76
62.97
54.20
44.08
33.45
23.06
13.28
4.00
-5.22
-14.87
-25.10
-35.69
-46.02
-55.44
-63.54
-70.39
-76.62
-83.33
-91.82
-103.14
-117.50
-133.75
-149.10
-159.52
-160.71
-149.44
-124.87
-89.10
-46.69
-3.49
35.09
65.34
85.84
97.21
101.26
100.11
95.54
88.86
81.11
73.25
66.34
61.36
58.97
59.24
61.56
64.87
67.94
69.77
69.73
67.64
63.68
58.19
51.52
43.89
35.29
25.55
14.48
2.11
-11.11
-24.38
-36.73
-47.40
-56.10
-63.13
-69.18
-75.18
-82.10
-90.82
-101.90
-115.32
-130.00
-143.54
-152.43
-152.86
-141.95
-118.96
-85.79
-46.61
-6.63
29.31
57.89
77.69
88.90
92.64
90.40
83.68
74.06
63.23
52.99
44.97
40.25
39.06
40.73
43.99
47.48
50.23
51.84
52.32
51.72
49.75
45.70
38.70
28.22
14.56
-1.12
-17.07
-31.56
-43.54
-53.01
-60.96
-68.96
-78.63
-91.01
-105.96
-121.93
-135.92
-144.05
-142.53
-128.94
-103.21
-67.93
-27.78
11.82
46.20
72.49
89.88
99.09
101.51
98.57
91.48
81.46
70.07
59.22
50.87
46.39
46.09
49.05
53.47
57.41
59.53
59.45
57.57
54.61
50.96
46.32
39.90
30.81
18.61
3.68
-12.75
-29.04
-43.61
-55.54
-64.74
-72.03
-78.87
-86.96
-97.74
-111.75
-128.23
-144.71
-157.28
-161.57
-153.94
-132.92
-99.90
-58.96
-15.75
24.11
56.48
79.42
93.14
99.27
99.98
97.29
92.78
87.63
82.69
78.61
75.80
74.43
74.42
75.48
77.16
78.97
80.45
81.13
80.55
78.31
74.06
67.67
59.28
49.27
38.21
26.69
15.09
3.57
-7.92
-19.43
-30.88
-41.96
-52.20
-61.17
-68.71
-75.18
-81.44
-88.78
-98.56
-111.68
-127.94
-145.51
-160.86
-169.42
-166.88
-150.67
-121.12
-81.58
-37.52
5.03
41.20
68.27
85.80
95.07
98.11
96.96
93.31
88.50
83.58
79.42
76.65
75.55
75.92
77.22
78.73
79.86
80.37
80.35
80.03
79.46
78.29
75.75
70.93
63.17
52.54
39.93
26.79
14.67
4.56
-3.43
-10.08
-16.63
-24.17
-33.18
-43.24
-53.31
-62.20
-69.17
-74.34
-78.79
-84.23
-92.51
-104.86
-121.21
-139.74
-156.98
-168.39
-169.54
-157.52
-131.90
-95.17
-52.17
-8.74
29.86
60.14
80.87
92.76
97.65
97.69
94.77
90.36
85.60
81.41
78.49
77.27
77.77
79.54
81.81
83.73
84.67
84.44
83.28
81.60
79.65
77.22
73.61
67.95
59.63
48.75
36.27
23.66
12.37
3.21
-3.92
-9.98
-16.26
-23.78
-32.84
-42.91
-52.92
-61.73
-68.66
-73.73
-77.74
-82.08
-88.34
-97.86
-111.17
-127.44
-144.17
-157.45
-162.79
-156.44
-136.74
-104.85
-64.65
-21.59
18.79
52.31
76.83
92.23
99.73
101.18
98.38
92.95
86.33
79.78
74.38
70.88
69.51
69.91
71.36
73.02
74.29
74.87
74.83
74.27
73.18
71.15
67.54
61.63
53.08
42.12
29.71
17.24
6.05
-3.07
-10.20
-16.22
-22.38
-29.68
-38.43
-48.16
-57.76
-66.11
-72.50
-77.02
-80.57
-84.66
-90.99
-100.83
-114.40
-130.36
-145.72
-156.31
-157.83
-147.20
-123.75
-89.62
-49.37
-8.62
27.46
55.41
74.01
83.95
87.00
85.15
80.11
73.16
65.35
57.72
51.35
47.19
45.81
47.11
50.34
54.41
58.14
60.62
61.33
60.06
56.80
51.69
44.89
36.69
27.43
17.39
6.83
-4.15
-15.39
-26.66
-37.54
-47.54
-56.17
-63.19
-68.78
-73.44
-78.07
-83.75
-91.54
-102.13
-115.36
-129.75
-142.41
-149.44
-146.98
-132.52
-106.03
-70.17
-29.68
9.98
44.16
70.02
86.76
95.24
97.16
94.40
88.67
81.43
73.98
67.40
62.56
59.95
59.61
61.17
63.97
67.21
70.10
71.96
72.34
70.94
67.59
62.25
54.96
45.96
35.66
24.66
13.54
2.72
-7.67
-17.86
-28.13
-38.65
-49.23
-59.36
-68.43
-76.11
-82.55
-88.54
-95.38
-104.52
-116.98
-132.71
-150.01
-165.43
-174.45
-172.64
-157.28
-128.43
-89.27
-45.18
-2.20
34.63
62.42
80.56
90.25
93.53
92.52
89.04
84.50
79.97
76.30
74.03
73.33
73.99
75.45
77.14
78.63
79.75
80.52
80.87
80.45
78.60
74.53
67.74
58.28
46.84
34.56
22.53
11.46
1.39
-8.14
-17.82
-28.05
-38.74
-49.29
-58.87
-66.85
-73.13
-78.36
-83.76
-90.91
-101.17
-115.17
-132.17
-149.84
-164.34
-171.13
-166.27
-147.78
-116.56
-76.33
-32.63
8.77
43.35
68.75
84.79
92.88
95.14
93.73
90.44
86.61
83.19
80.87
80.02
80.68
82.51
84.89
87.10
88.58
89.16
88.98
88.31
87.18
85.13
81.31
74.80
65.14
52.71
38.73
24.83
12.39
2.08
-6.43
-14.13
-22.15
-31.19
-41.21
-51.43
-60.80
-68.48
-74.33
-79.07
-84.17
-91.45
-102.37
-117.41
-135.41
-153.38
-166.97
-171.51
-163.40
-141.45
-107.47
-65.88
-22.43
17.36
49.58
72.53
86.49
93.00
94.00
91.24
86.15
79.89
73.53
68.12
64.55
63.40
64.65
67.69
71.41
74.56
76.07
75.39
72.59
68.08
62.44
55.98
48.63
40.02
29.75
17.67
4.13
-9.98
-23.55
-35.57
-45.38
-52.93
-58.69
-63.58
-68.74
-75.38
-84.55
-96.81
-111.80
-127.82
-141.78
-149.74
-147.94
-134.12
-108.49
-73.88
-35.04
2.81
35.34
60.04
76.38
85.23
88.10
86.50
81.72
74.90
67.26
60.15
54.91
52.50
53.19
56.34
60.65
64.52
66.64
66.36
63.84
59.73
54.74
49.19
42.78
34.81
24.62
11.98
-2.47
-17.42
-31.30
-42.85
-51.55
-57.76
-62.50
-67.13
-73.07
-81.53
-93.17
-107.72
-123.53
-137.44
-145.32
-143.15
-128.49
-101.60
-65.59
-25.58
12.85
45.25
69.27
84.70
92.86
95.69
95.07
92.50
89.05
85.49
82.42
80.21
79.00
78.70
79.05
79.68
80.27
80.58
80.37
79.32
77.07
73.18
67.35
59.55
50.11
39.58
28.58
17.54
6.59
-4.34
-15.44
-26.67
-37.75
-48.16
-57.35
-65.01
-71.24
-76.67
-82.41
-89.85
-100.30
-114.37
-131.42
-149.06
-163.30
-169.47
-163.59
-143.85
-111.51
-70.71
-27.25
13.11
46.19
70.12
85.17
93.00
95.73
95.27
93.13
90.36
87.71
85.66
84.39
83.77
83.45
83.03
82.21
80.90
79.23
77.38
75.38
72.95
69.51
64.33
56.96
47.40
36.27
24.60
13.44
3.44
-5.30
-13.23
-20.92
-28.78
-36.77
-44.47
-51.32
-56.99
-61.68
-66.15
-71.66
-79.62
-91.07
-106.12
-123.38
-139.83
-151.24
-153.21
-142.62
-118.83
-84.19
-43.46
-2.43
33.73
61.70
80.54
91.18
95.65
96.13
94.38
91.65
88.70
86.07
84.12
83.04
82.83
83.32
84.17
85.00
85.46
85.26
84.11
81.71
77.72
71.83
63.91
54.09
42.84
30.74
18.39
6.18
-5.76
-17.40
-28.73
-39.55
-49.51
-58.22
-65.49
-71.47
-76.71
-82.11
-88.78
-97.80
-109.85
-124.74
-140.91
-155.34
-163.96
-162.76
-149.16
-123.10
-87.31
-46.67
-6.78
27.58
53.57
70.43
79.12
81.37
79.05
73.77
66.90
59.66
53.22
48.60
46.36
46.43
48.13
50.40
52.18
52.85
52.28
50.72
48.40
45.17
40.38
33.14
22.81
9.43
-6.00
-21.79
-36.06
-47.42
-55.51
-61.14
-66.04
-72.22
-81.27
-93.64
-108.20
-122.26
-132.07
-133.80
-124.71
-104.14
-73.90
-37.86
-0.85
32.56
59.16
77.59
88.11
92.03
91.05
86.77
80.50
73.28
65.95
59.28
53.88
50.14
48.13
47.58
47.98
48.71
49.17
48.79
46.98
43.13
36.64
27.19
14.97
0.82
-13.94
-27.90
-40.14
-50.62
-60.24
-70.55
-83.03
-98.27
-115.42
-131.87
-143.79
-147.02
-138.51
-117.41
-85.64
-47.44
-8.19
27.08
54.98
74.22
85.38
90.11
90.33
87.64
83.21
77.90
72.47
67.64
64.00
61.88
61.10
61.05
60.91
59.94
57.83
54.77
51.22
47.57
43.67
38.77
31.77
21.75
8.54
-6.97
-23.10
-37.96
-50.12
-59.20
-65.90
-71.78
-78.68
-88.17
-100.93
-116.30
-132.03
-144.55
-149.65
-143.77
-125.26
-95.20
-57.37
-17.16
19.99
50.11
71.53
84.72
91.55
94.17
94.30
92.94
90.53
87.29
83.51
79.64
76.21
73.58
71.79
70.52
69.24
67.37
64.55
60.72
56.13
51.11
45.84
40.19
33.66
25.62
15.55
3.48
-9.94
-23.53
-35.95
-46.18
-53.97
-59.83
-64.93
-70.70
-78.43
-89.00
-102.56
-118.22
-133.81
-145.92
-150.53
-144.13
-125.07
-94.41
-55.93
-15.08
22.68
53.36
75.20
88.60
95.24
97.13
96.03
93.18
89.43
85.36
81.42
77.94
75.07
72.86
71.33
70.49
70.28
70.56
70.96
70.87
69.65
66.69
61.59
54.33
45.23
34.85
23.82
12.64
1.58
-9.34
-20.20
-31.02
-41.61
-51.58
-60.49
-68.08
-74.43
-80.12
-86.10
-93.64
-103.79
-116.95
-132.23
-147.17
-157.90
-160.14
-150.58
-128.19
-94.94
-55.27
-14.84
21.17
49.43
68.79
79.97
84.59
84.42
80.88
75.11
68.18
61.18
55.26
51.33
49.84
50.62
52.85
55.39
57.13
57.37
56.04
53.57
50.59
47.40
43.77
38.88
31.75
21.75
9.07
-5.20
-19.40
-31.93
-41.76
-48.88
-54.17
-59.13
-65.37
-74.19
-86.16
-100.82
-116.51
-130.46
-139.15
-139.20
-128.34
-106.33
-75.22
-38.96
-2.34
30.23
55.75
72.98
82.23
84.73
82.09
75.96
67.87
59.31
51.55
45.51
41.57
39.52
38.75
38.56
38.41
38.12
37.70
37.18
36.34
34.58
31.02
24.85
15.68
3.80
-9.78
-23.60
-36.17
-46.57
-54.76
-61.69
-69.07
-78.70
-91.65
-107.50
-123.96
-137.14
-142.55
-136.57
-117.79
-87.72
-50.44
-11.42
24.13
52.62
72.60
84.49
89.75
90.05
86.79
81.01
73.69
65.93
58.97
53.98
51.63
51.87
53.83
56.17
57.57
57.20
54.92
51.24
46.90
42.37
37.57
31.85
24.26
14.13
1.42
-13.09
-28.02
-41.84
-53.44
-62.51
-69.63
-76.13
-83.64
-93.61
-106.80
-122.78
-139.67
-154.16
-162.07
-159.50
-144.14
-116.26
-78.93
-37.23
3.19
37.60
63.35
79.96
88.69
91.58
90.72
87.68
83.55
79.01
74.65
71.01
68.56
67.55
67.94
69.33
71.12
72.62
73.28
72.67
70.54
66.74
61.21
54.04
45.43
35.71
25.21
14.18
2.78
-8.92
-20.78
-32.55
-43.83
-54.14
-63.05
-70.35
-76.24
-81.44
-87.17
-94.87
-105.84
-120.46
-137.63
-154.40
-166.38
-168.84
-158.22
-133.58
-97.12
-53.73
-9.55
29.82
60.72
81.89
94.16
99.46
99.93
97.39
93.22
88.51
84.19
80.94
79.17
78.89
79.71
81.02
82.21
82.93
83.07
82.67
81.71
79.90
76.67
71.37
63.58
53.42
41.65
29.41
17.91
7.84
-0.83
-8.78
-16.98
-26.11
-36.30
-46.97
-57.22
-66.16
-73.42
-79.30
-84.76
-91.27
-100.30
-112.87
-128.88
-146.60
-162.54
-172.09
-170.70
-155.46
-126.30
-86.29
-40.87
3.78
42.41
71.98
91.79
102.93
107.32
106.91
103.30
97.86
91.84
86.47
82.68
80.94
81.02
82.16
83.41
84.08
83.92
83.12
82.00
80.59
78.49
74.94
69.15
60.72
49.93
37.71
25.35
13.97
4.11
-4.44
-12.50
-21.04
-30.65
-41.23
-52.00
-61.85
-69.84
-75.68
-79.96
-84.10
-89.96
-99.25
-112.75
-129.61
-147.09
-160.89
-166.24
-159.38
-138.96
-106.63
-66.71
-24.83
13.63
44.92
67.34
81.03
87.20
87.35
82.95
75.35
65.96
56.38
48.23
42.79
40.70
41.64
44.50
47.84
50.37
51.45
51.13
49.89
48.12
45.69
41.94
35.91
26.87
14.74
0.30
-14.97
-29.41
-41.63
-51.05
-58.07
-63.99
-70.60
-79.59
-91.85
-106.94
-122.79
-135.95
-142.30
-138.30
-122.10
-94.41
-58.42
-19.03
18.63
50.47
74.28
89.63
97.38
98.75
94.97
87.18
76.76
65.46
55.34
48.24
45.15
45.90
49.23
53.32
56.57
58.09
57.86
56.35
53.97
50.63
45.60
37.93
26.92
12.72
-3.62
-20.40
-35.83
-48.68
-58.63
-66.31
-73.12
-80.81
-90.95
-104.42
-120.77
-137.90
-152.14
-159.05
-154.73
-137.24
-107.50
-69.22
-27.78
11.37
44.16
68.63
84.75
93.68
96.89
95.72
91.30
84.78
77.48
70.81
65.99
63.65
63.63
65.06
66.73
67.53
66.83
64.69
61.55
57.97
54.13
49.65
43.72
35.40
24.18
10.30
-5.15
-20.51
-34.05
-44.65
-52.13
-57.40
-62.16
-68.44
-77.87
-91.21
-107.79
-125.40
-140.39
-148.53
-146.03
-130.82
-103.39
-66.85
-26.14
13.36
47.27
73.07
90.27
99.78
103.15
101.93
97.42
90.75
83.11
75.79
70.00
66.55
65.55
66.39
67.94
69.00
68.80
67.17
64.52
61.38
58.04
54.17
48.94
41.32
30.67
17.13
1.71
-13.91
-28.05
-39.47
-47.93
-54.23
-59.96
-67.00
-76.97
-90.55
-107.10
-124.42
-138.98
-146.63
-143.77
-128.50
-101.48
-65.95
-26.83
10.64
42.37
66.17
81.76
90.12
92.63
90.54
84.98
77.12
68.46
60.64
55.05
52.36
52.29
53.72
55.29
55.91
55.19
53.42
51.22
48.97
46.53
43.09
37.56
29.05
17.34
3.18
-11.93
-26.18
-38.11
-47.11
-53.58
-58.85
-64.71
-72.85
-84.33
-98.99
-115.19
-129.83
-138.93
-138.68
-126.69
-102.91
-69.91
-32.19
4.99
37.06
61.11
76.20
82.96
83.00
78.19
70.26
60.71
50.83
41.73
34.31
29.19
26.61
26.36
27.90
30.46
33.19
35.26
35.92
34.47
30.31
23.17
13.20
1.10
-11.98
-24.76
-36.23
-45.98
-54.36
-62.44
-71.60
-82.97
-96.70
-111.43
-124.16
-130.88
-127.76
-112.55
-85.62
-50.07
-10.91
26.48
57.85
80.91
95.37
102.31
103.29
99.79
93.04
84.22
74.67
65.89
59.30
55.74
55.23
56.87
59.20
60.82
60.82
59.08
56.01
52.17
47.74
42.31
35.04
25.10
12.16
-3.17
-19.52
-35.04
-48.14
-58.02
-65.03
-70.55
-76.60
-85.16
-97.48
-113.50
-131.50
-148.17
-159.17
-160.24
-148.50
-123.55
-87.86
-46.28
-4.65
31.79
59.72
78.22
88.40
92.47
92.75
91.04
88.35
85.14
81.64
78.13
75.04
72.86
71.89
72.06
72.91
73.70
73.70
72.38
69.55
65.27
59.77
53.23
45.77
37.38
27.96
17.45
5.86
-6.57
-19.30
-31.66
-42.90
-52.52
-60.43
-67.00
-73.00
-79.47
-87.56
-98.25
-112.02
-128.20
-144.69
-157.83
-163.20
-156.93
-137.21
-105.16
-64.82
-21.89
17.88
50.36
73.72
88.34
95.99
98.82
98.70
96.93
94.33
91.43
88.64
86.30
84.66
83.80
83.59
83.77
84.03
84.00
83.37
81.88
79.22
75.13
69.33
61.76
52.60
42.32
31.60
21.07
11.12
1.71
-7.51
-16.99
-26.97
-37.30
-47.42
-56.65
-64.54
-71.11
-77.07
-83.72
-92.52
-104.60
-120.06
-137.38
-153.32
-163.39
-163.13
-149.64
-122.83
-85.72
-43.63
-2.55
32.60
59.10
76.54
86.19
89.87
89.27
85.61
79.89
73.17
66.65
61.56
58.71
58.22
59.45
61.26
62.46
62.20
60.29
57.07
53.17
49.08
44.84
39.90
33.31
24.17
12.11
-2.38
-17.97
-32.90
-45.52
-54.95
-61.31
-65.66
-69.63
-75.01
-83.21
-94.88
-109.50
-125.19
-138.81
-146.50
-144.71
-131.36
-106.71
-73.44
-36.09
0.30
31.48
54.89
69.81
76.94
77.74
73.84
66.81
58.15
49.32
41.64
36.13
33.19
32.61
33.69
35.57
37.54
39.12
39.96
39.71
37.78
33.54
26.47
16.52
4.27
-9.15
-22.36
-34.20
-44.06
-52.18
-59.54
-67.62
-77.83
-90.83
-105.90
-120.66
-131.36
-133.83
-124.90
-103.63
-71.95
-34.18
4.24
38.34
64.93
82.91
92.95
96.60
95.50
90.98
84.10
75.90
67.64
60.64
56.06
54.43
55.44
57.99
60.61
62.02
61.58
59.39
56.06
52.12
47.56
41.72
33.57
22.33
8.03
-8.31
-24.94
-39.99
-52.13
-61.04
-67.45
-72.98
-79.66
-89.34
-103.03
-120.19
-138.43
-153.72
-161.34
-157.30
-139.83
-110.13
-72.14
-31.38
6.76
38.39
61.75
77.07
85.80
89.70
90.27
88.57
85.28
81.12
76.83
73.26
71.07
70.51
71.18
72.26
72.70
71.74
69.13
65.21
60.58
55.73
50.72
45.09
38.02
28.79
17.11
3.41
-11.29
-25.61
-38.28
-48.55
-56.39
-62.55
-68.31
-75.20
-84.57
-97.15
-112.58
-129.06
-143.36
-151.34
-149.05
-134.13
-106.80
-70.13
-29.24
10.21
43.69
68.77
85.24
94.47
98.41
98.72
96.61
92.85
88.14
83.26
78.97
75.87
74.18
73.73
74.01
74.33
74.03
72.63
69.88
65.84
60.85
55.23
49.16
42.52
34.87
25.71
14.76
2.24
-11.12
-24.30
-36.27
-46.43
-54.71
-61.58
-67.94
-74.88
-83.56
-94.86
-108.94
-124.82
-140.12
-151.22
-154.11
-145.61
-124.67
-92.97
-54.61
-14.98
20.88
49.55
69.72
81.89
87.47
87.98
84.69
78.68
71.13
63.44
57.10
53.21
52.08
53.09
54.95
56.27
56.11
54.27
51.26
47.82
44.45
41.02
36.72
30.40
21.11
8.73
-5.92
-21.15
-35.12
-46.42
-54.63
-60.50
-65.56
-71.68
-80.38
-92.34
-106.95
-122.18
-134.79
-140.95
-137.30
-122.06
-95.82
-61.59
-24.07
11.64
41.43
62.99
75.97
81.53
81.51
77.73
71.65
64.32
56.59
49.27
43.16
39.00
37.17
37.65
39.86
42.90
45.69
47.26
46.81
43.82
38.06
29.56
18.74
6.34
-6.65
-19.15
-30.38
-40.14
-48.95
-58.03
-68.79
-82.15
-97.77
-113.60
-126.05
-130.90
-124.68
-106.05
-76.47
-39.90
-1.66
33.15
60.98
80.33
91.52
95.87
94.92
89.97
82.16
72.66
62.96
54.61
48.90
46.33
46.46
48.09
49.79
50.51
49.91
48.30
46.14
43.56
40.04
34.62
26.36
14.87
0.67
-14.91
-30.20
-43.79
-55.02
-64.18
-72.38
-81.18
-92.07
-105.85
-122.07
-138.72
-152.31
-158.59
-153.86
-136.22
-106.52
-68.30
-26.85
12.35
45.13
69.42
85.23
93.86
97.05
96.32
92.78
87.34
80.97
74.73
69.67
66.47
65.16
65.14
65.38
64.91
63.18
60.27
56.74
53.21
49.87
46.30
41.52
34.42
24.30
11.24
-3.83
-19.37
-33.81
-46.06
-55.81
-63.68
-70.96
-79.22
-89.88
-103.60
-119.82
-136.37
-149.69
-155.52
-150.19
-131.86
-101.49
-62.79
-21.16
17.84
50.08
73.59
88.54
96.44
99.19
98.37
95.04
89.88
83.54
76.84
70.80
66.36
64.12
64.07
65.61
67.66
69.08
68.96
66.94
63.18
58.14
52.29
45.80
38.48
29.90
19.65
7.65
-5.70
-19.53
-32.73
-44.34
-53.81
-61.14
-66.90
-72.07
-77.85
-85.42
-95.72
-108.99
-124.35
-139.45
-150.58
-153.49
-144.69
-122.85
-89.55
-49.04
-7.00
31.19
61.77
83.28
96.24
102.28
103.30
100.89
96.26
90.31
83.93
77.94
73.14
70.07
68.87
69.25
70.53
71.79
72.19
71.13
68.40
64.13
58.69
52.40
45.44
37.79
29.22
19.52
8.63
-3.21
-15.50
-27.49
-38.46
-47.92
-55.78
-62.38
-68.44
-74.96
-83.05
-93.62
-106.95
-122.26
-137.31
-148.57
-151.98
-144.14
-123.69
-91.99
-52.98
-12.09
25.39
55.61
76.79
89.06
93.67
92.20
86.23
77.23
66.78
56.62
48.37
43.13
41.07
41.41
42.79
43.89
43.91
42.85
41.23
39.60
38.00
35.76
31.71
24.74
14.39
1.21
-13.36
-27.46
-39.52
-48.82
-55.66
-61.34
-67.61
-76.09
-87.74
-102.17
-117.46
-130.29
-136.63
-132.92
-117.33
-90.58
-55.94
-18.31
17.21
46.65
67.96
80.93
86.55
86.26
81.49
73.43
63.28
52.28
41.75
32.88
26.48
22.86
21.82
22.76
24.82
27.08
28.55
28.37
25.79
20.41
12.28
1.89
-9.86
-21.97
-33.58
-44.29
-54.23
-64.14
-75.10
-88.12
-103.56
-120.43
-136.20
-146.99
-148.67
-138.21
-114.96
-81.17
-41.48
-1.58
33.38
60.03
77.16
85.44
86.59
82.66
75.56
66.86
57.92
49.90
43.72
39.93
38.56
39.13
40.82
42.80
44.46
45.56
46.03
45.76
44.27
40.79
34.53
25.04
12.62
-1.63
-16.14
-29.38
-40.47
-49.51
-57.63
-66.63
-78.31
-93.48
-111.29
-128.82
-141.65
-144.98
-135.33
-111.94
-77.22
-36.13
5.29
41.78
70.02
89.03
99.63
103.52
102.48
97.96
91.20
83.36
75.67
69.28
64.94
62.76
62.12
62.03
61.56
60.22
58.16
55.83
53.60
51.29
48.05
42.66
34.09
22.07
7.26
-8.85
-24.47
-38.11
-49.07
-57.64
-65.00
-72.87
-82.97
-96.37
-112.85
-130.48
-145.73
-154.15
-151.64
-135.89
-107.37
-69.45
-27.47
12.85
47.03
72.74
89.84
99.54
103.50
103.11
99.35
93.10
85.40
77.62
71.11
66.81
64.86
64.58
64.81
64.41
62.78
60.04
56.82
53.79
51.09
48.10
43.54
36.14
25.23
11.31
-4.14
-19.08
-31.77
-41.39
-48.26
-53.63
-59.30
-66.99
-77.91
-92.28
-108.96
-125.24
-137.22
-140.64
-132.18
-110.70
-77.96
-38.25
2.81
39.91
69.39
89.79
101.58
106.35
105.88
101.69
94.92
86.57
77.72
69.64
63.44
59.80
58.62
59.06
59.84
59.78
58.27
55.42
51.90
48.31
44.75
40.50
34.32
25.08
12.45
-2.78
-18.84
-33.63
-45.59
-54.17
-60.13
-65.08
-70.95
-79.40
-91.24
-106.10
-122.19
-136.44
-144.93
-143.91
-131.02
-106.19
-72.05
-33.24
4.83
37.51
61.94
77.35
84.55
85.22
81.11
73.80
64.65
54.99
46.07
39.01
34.43
32.40
32.41
33.64
35.27
36.70
37.46
37.19
35.45
31.73
25.57
16.86
5.96
-6.31
-18.88
-30.79
-41.52
-51.16
-60.51
-70.72
-82.85
-97.19
-112.62
-126.42
-134.71
-133.55
-120.32
-94.90
-60.05
-20.70
17.41
49.43
72.45
85.89
90.96
89.72
84.25
76.16
66.55
56.27
46.24
37.44
30.85
27.14
26.33
27.80
30.34
32.58
33.24
31.47
26.96
19.88
10.73
0.22
-10.94
-22.16
-33.05
-43.55
-53.96
-64.94
-77.31
-91.66
-107.72
-123.81
-136.85
-142.86
-138.15
-120.79
-91.50
-53.76
-12.83
25.77
57.76
80.90
94.98
101.21
101.36
97.26
90.50
82.51
74.56
67.71
62.60
59.33
57.48
56.31
55.08
53.40
51.23
48.79
46.24
43.35
39.43
33.43
24.46
12.26
-2.56
-18.55
-33.88
-47.00
-57.22
-64.94
-71.63
-79.28
-89.78
-103.96
-121.03
-138.22
-151.18
-155.13
-146.39
-123.82
-89.52
-48.33
-6.40
30.72
59.49
78.92
90.07
94.94
95.50
93.12
88.65
82.82
76.55
70.96
67.04
65.28
65.29
66.03
66.18
64.83
61.78
57.54
53.04
48.92
45.17
41.04
35.35
27.08
15.87
2.28
-12.39
-26.55
-38.85
-48.61
-56.04
-62.15
-68.48
-76.66
-87.96
-102.68
-119.67
-136.18
-148.17
-151.30
-142.33
-120.32
-87.25
-47.58
-6.95
29.47
58.28
78.37
90.54
96.58
98.38
97.35
94.37
90.06
85.06
80.12
76.03
73.37
72.36
72.71
73.83
74.98
75.44
74.69
72.39
68.47
63.01
56.23
48.46
39.96
30.88
21.27
11.13
0.46
-10.55
-21.57
-32.21
-42.11
-51.05
-59.01
-66.21
-73.10
-80.45
-89.27
-100.54
-114.66
-130.78
-146.37
-157.48
-159.63
-149.40
-125.80
-90.91
-49.47
-7.40
29.89
58.86
78.36
89.21
93.25
92.50
88.62
82.83
76.08
69.30
63.40
59.17
57.01
56.87
58.21
60.20
61.95
62.77
62.31
60.51
57.47
53.34
48.17
41.89
34.36
25.43
15.10
3.62
-8.50
-20.53
-31.70
-41.37
-49.27
-55.62
-61.05
-66.54
-73.21
-82.07
-93.71
-107.87
-123.10
-136.64
-144.82
-143.93
-131.51
-107.35
-73.81
-35.33
2.89
36.22
61.69
78.21
86.22
87.02
82.26
73.67
62.97
51.88
41.96
34.41
29.76
27.94
28.31
29.95
32.00
33.77
34.85
34.87
33.51
30.28
24.65
16.22
5.03
-8.26
-22.41
-35.95
-47.65
-57.10
-64.85
-72.34
-81.35
-93.21
-108.01
-124.10
-138.18
-146.00
-143.58
-128.61
-101.41
-65.03
-24.47
14.78
48.19
73.19
89.21
97.24
98.91
95.87
89.48
80.93
71.52
62.66
55.68
51.46
50.09
50.84
52.46
53.73
53.91
52.91
51.11
48.93
46.36
42.77
37.17
28.58
16.66
1.91
-14.26
-30.00
-43.68
-54.42
-62.43
-68.90
-75.69
-84.67
-97.13
-113.12
-131.14
-148.03
-159.47
-161.07
-149.73
-124.87
-88.92
-46.78
-4.36
33.12
62.38
82.48
94.28
99.49
99.81
96.63
91.03
84.13
77.20
71.53
68.04
66.91
67.55
68.71
69.12
67.91
65.01
61.06
56.99
53.51
50.55
47.25
42.26
34.34
22.96
8.62
-7.23
-22.73
-36.28
-47.10
-55.49
-62.71
-70.50
-80.54
-93.85
-110.39
-128.60
-145.50
-157.03
-158.98
-148.30
-124.24
-88.92
-46.96
-4.17
34.05
64.15
84.92
97.16
102.70
103.48
100.95
96.06
89.63
82.54
75.88
70.78
67.99
67.66
69.23
71.65
73.70
74.47
73.53
70.99
67.23
62.64
57.31
51.01
43.23
33.49
21.62
7.95
-6.76
-21.38
-34.82
-46.27
-55.46
-62.76
-69.15
-75.94
-84.59
-96.15
-110.86
-127.64
-143.99
-156.13
-159.92
-152.01
-131.11
-98.67
-58.70
-16.69
21.96
53.33
75.59
88.93
94.72
94.66
90.28
82.88
73.73
64.32
56.22
50.74
48.40
48.78
50.67
52.56
53.37
52.77
51.14
49.19
47.34
45.26
41.89
35.87
26.18
12.83
-3.07
-19.53
-34.44
-46.35
-54.96
-61.17
-66.69
-73.39
-82.80
-95.52
-110.89
-126.81
-139.96
-146.33
-142.32
-125.94
-97.70
-60.70
-20.01
18.83
51.23
74.53
88.26
93.57
92.37
86.63
77.95
67.60
56.69
46.31
37.52
31.14
27.64
26.89
28.31
30.95
33.71
35.52
35.42
32.69
27.00
18.40
7.41
-5.06
-17.96
-30.24
-41.26
-50.95
-60.01
-69.66
-81.18
-95.17
-110.81
-125.50
-135.33
-136.05
-124.64
-100.56
-66.14
-26.05
14.09
49.33
76.49
94.50
103.94
106.26
103.11
96.05
86.55
76.18
66.58
59.19
54.90
53.69
54.74
56.68
58.21
58.49
57.40
55.29
52.61
49.39
45.02
38.47
28.75
15.56
-0.41
-17.52
-33.71
-47.30
-57.58
-65.07
-71.35
-78.56
-88.67
-102.62
-119.76
-137.48
-151.58
-157.30
-150.77
-130.46
-97.94
-57.52
-14.97
24.21
56.16
79.30
94.00
101.67
103.95
102.16
97.34
90.50
82.85
75.73
70.36
67.41
66.77
67.56
68.54
68.60
67.19
64.49
61.16
57.83
54.64
50.99
45.75
37.72
26.29
11.78
-4.56
-20.85
-35.33
-46.88
-55.43
-61.94
-68.03
-75.52
-85.93
-99.87
-116.61
-133.83
-147.83
-154.23
-149.27
-131.12
-100.71
-61.72
-19.51
20.37
53.71
78.44
94.53
103.28
106.45
105.57
101.79
95.97
88.98
81.82
75.60
71.28
69.32
69.50
70.93
72.37
72.67
71.16
67.83
63.19
57.84
52.09
45.79
38.37
29.15
17.75
4.35
-10.28
-24.96
-38.44
-49.79
-58.72
-65.63
-71.57
-77.94
-86.18
-97.30
-111.43
-127.39
-142.55
-153.12
-155.05
-145.31
-123.02
-90.08
-50.72
-10.31
26.13
55.15
75.35
86.99
91.29
89.79
84.00
75.39
65.58
56.19
48.71
44.09
42.44
43.05
44.65
45.96
46.17
45.20
43.59
41.98
40.59
38.90
35.74
29.88
20.63
8.36
-5.60
-19.45
-31.63
-41.39
-49.05
-55.71
-62.96
-72.27
-84.54
-99.64
-116.12
-131.12
-140.85
-141.48
-130.39
-107.22
-74.27
-35.99
2.24
35.61
61.00
77.36
85.37
86.59
82.81
75.56
66.13
55.66
45.32
36.24
29.39
25.31
24.04
25.09
27.59
30.52
32.83
33.56
31.94
27.48
19.99
9.75
-2.55
-15.84
-28.98
-40.97
-51.34
-60.38
-69.12
-79.04
-91.43
-106.57
-123.13
-138.00
-146.97
-145.98
-132.52
-106.70
-71.43
-31.58
7.39
40.92
66.27
82.70
90.94
92.49
88.96
81.86
72.63
62.79
53.93
47.42
44.08
43.89
45.99
49.06
51.85
53.63
54.27
53.98
52.91
50.71
46.58
39.64
29.48
16.50
2.00
-12.27
-24.75
-34.58
-41.96
-48.10
-54.84
-64.04
-76.94
-93.41
-111.58
-127.88
-137.75
-136.94
-122.98
-96.13
-59.61
-18.64
21.05
54.82
80.12
96.53
105.16
107.78
106.02
101.19
94.36
86.60
79.10
72.91
68.73
66.48
65.42
64.43
62.58
59.54
55.65
51.63
48.01
44.68
40.76
34.94
26.12
13.95
-0.82
-16.56
-31.40
-43.83
-53.29
-60.31
-66.29
-73.11
-82.54
-95.62
-112.11
-130.06
-145.89
-155.03
-153.23
-138.03
-109.86
-72.16
-30.42
9.48
42.99
67.84
84.13
93.44
97.74
98.59
96.85
92.97
87.47
81.23
75.40
71.10
68.93
68.77
69.86
71.12
71.58
70.74
68.54
65.22
61.06
56.13
50.23
42.95
33.85
22.67
9.60
-4.72
-19.18
-32.60
-44.00
-53.02
-60.06
-66.20
-72.91
-81.65
-93.38
-108.11
-124.50
-139.80
-150.21
-151.79
-141.68
-119.14
-86.15
-46.96
-6.89
29.15
57.86
77.99
90.06
95.45
95.68
92.00
85.33
76.59
66.93
57.74
50.41
45.89
44.38
45.22
47.15
48.80
49.21
48.09
45.79
42.87
39.66
35.97
31.08
24.14
14.60
2.58
-11.06
-24.92
-37.57
-47.96
-55.74
-61.33
-65.73
-70.37
-76.71
-85.98
-98.67
-114.05
-129.92
-142.69
-148.16
-142.75
-124.78
-95.33
-58.12
-18.42
18.43
48.44
69.71
82.25
87.35
86.71
81.92
74.32
65.15
55.63
46.97
40.15
35.72
33.73
33.73
35.06
37.04
39.04
40.49
40.82
39.37
35.51
28.81
19.31
7.57
-5.32
-18.05
-29.55
-39.29
-47.61
-55.64
-64.91
-76.67
-91.01
-106.35
-119.43
-126.05
-122.47
-106.75
-79.66
-44.58
-6.51
29.36
59.00
80.27
92.80
97.56
96.05
89.96
80.88
70.30
59.61
50.01
42.41
37.24
34.46
33.63
34.06
35.01
35.83
35.93
34.80
31.89
26.69
18.83
8.35
-4.26
-18.02
-31.77
-44.48
-55.64
-65.41
-74.67
-84.75
-96.96
-111.73
-128.03
-143.10
-152.83
-152.95
-140.52
-115.16
-79.47
-38.29
2.70
38.65
66.57
85.55
96.27
100.14
98.68
93.30
85.34
76.22
67.42
60.20
55.31
52.73
51.82
51.54
51.02
49.88
48.17
46.17
43.97
41.15
36.82
29.93
19.80
6.60
-8.64
-24.17
-38.22
-49.55
-58.00
-64.56
-71.04
-79.52
-91.50
-107.08
-124.45
-139.91
-148.74
-146.64
-131.19
-102.94
-65.40
-23.97
15.64
49.02
73.88
90.07
98.77
101.65
100.22
95.64
88.94
81.23
73.73
67.63
63.71
62.07
62.10
62.68
62.66
61.30
58.56
54.98
51.32
47.97
44.66
40.35
33.74
23.86
10.68
-4.74
-20.52
-34.73
-46.06
-54.38
-60.69
-66.74
-74.45
-85.29
-99.72
-116.82
-134.15
-147.96
-153.97
-148.58
-130.11
-99.58
-60.61
-18.52
21.32
54.79
79.80
96.17
104.97
107.70
105.70
100.09
91.99
82.70
73.75
66.69
62.56
61.60
63.11
65.68
67.78
68.27
66.79
63.71
59.79
55.63
51.32
46.29
39.59
30.38
18.34
3.93
-11.65
-26.86
-40.28
-51.10
-59.32
-65.72
-71.56
-78.31
-87.20
-98.91
-113.16
-128.36
-141.64
-149.28
-147.60
-134.23
-109.08
-74.66
-35.50
3.15
36.80
62.65
79.83
88.90
91.16
88.05
80.96
71.34
60.78
50.95
43.27
38.53
36.72
37.11
38.63
40.34
41.69
42.48
42.67
42.05
40.08
36.01
29.15
19.31
6.98
-6.65
-20.04
-31.84
-41.43
-49.15
-56.24
-64.42
-75.22
-89.20
-105.48
-121.50
-133.44
-137.15
-129.46
-109.31
-78.34
-40.59
-1.36
34.25
62.58
81.93
92.41
95.21
91.97
84.32
73.89
62.36
51.46
42.67
36.94
34.44
34.57
36.31
38.61
40.72
42.30
43.21
43.26
41.99
38.66
32.47
22.98
10.43
-4.15
-19.16
-32.93
-44.29
-53.08
-60.23
-67.56
-77.10
-90.15
-106.46
-123.72
-137.90
-144.21
-138.73
-119.79
-88.81
-49.93
-8.84
28.97
59.62
81.47
94.89
101.35
102.53
99.78
94.10
86.43
77.88
69.81
63.52
59.88
58.95
60.02
61.82
63.02
62.64
60.36
56.49
51.72
46.67
41.57
36.01
29.16
20.16
8.61
-5.08
-19.69
-33.64
-45.56
-54.84
-61.83
-67.73
-74.08
-82.38
-93.64
-107.95
-124.24
-140.04
-151.80
-155.51
-147.90
-127.67
-96.13
-57.13
-16.01
21.93
52.78
74.76
88.09
94.32
95.39
92.96
88.23
82.02
75.10
68.37
62.89
59.62
58.94
60.53
63.32
65.89
67.00
65.99
62.96
58.53
53.42
48.00
42.10
35.18
26.62
16.10
3.86
-9.34
-22.40
-34.27
-44.23
-52.05
-58.07
-63.12
-68.36
-75.13
-84.56
-97.10
-112.02
-126.99
-138.37
-142.02
-134.60
-114.86
-84.29
-46.84
-7.72
28.13
57.24
78.16
91.13
97.36
98.31
95.27
89.27
81.36
72.69
64.53
58.12
54.27
53.20
54.39
56.78
59.09
60.25
59.70
57.46
53.95
49.63
44.73
39.05
32.09
23.32
12.54
0.06
-13.27
-26.34
-38.06
-47.78
-55.40
-61.49
-67.06
-73.37
-81.61
-92.53
-106.05
-120.91
-134.53
-143.44
-144.11
-134.03
-112.69
-81.90
-45.49
-8.24
25.34
52.05
70.35
80.27
82.86
79.67
72.42
62.79
52.47
42.96
35.52
30.87
29.08
29.67
31.74
34.35
36.80
38.68
39.74
39.69
38.01
34.02
27.20
17.51
5.51
-7.64
-20.62
-32.35
-42.30
-50.67
-58.30
-66.48
-76.50
-89.07
-103.67
-118.17
-129.02
-132.14
-124.28
-104.34
-74.01
-37.41
0.18
33.93
60.61
79.00
89.53
93.34
91.74
85.81
76.59
65.38
53.88
43.96
37.22
34.40
35.09
37.94
41.18
43.32
43.72
42.58
40.59
38.30
35.59
31.62
25.22
15.60
2.82
-11.99
-27.04
-40.55
-51.39
-59.51
-65.86
-72.08
-79.93
-90.78
-104.96
-121.34
-137.16
-148.42
-150.86
-141.30
-118.87
-85.55
-45.71
-4.84
32.00
61.36
81.91
94.05
99.23
99.18
95.44
89.26
81.77
74.01
67.02
61.76
58.88
58.52
60.21
62.97
65.55
66.84
66.23
63.69
59.66
54.68
49.10
42.82
35.41
26.30
15.21
2.32
-11.63
-25.55
-38.36
-49.23
-57.91
-64.76
-70.67
-76.93
-84.94
-95.84
-110.00
-126.57
-143.14
-155.96
-160.73
-153.89
-133.92
-102.10
-62.35
-20.09
19.29
51.77
75.48
90.47
98.10
100.15
98.26
93.75
87.68
81.03
74.74
69.68
66.43
65.21
65.80
67.56
69.57
70.94
71.00
69.45
66.40
62.19
57.17
51.49
44.98
37.29
28.03
17.08
4.71
-8.42
-21.38
-33.29
-43.55
-52.02
-59.08
-65.52
-72.47
-81.08
-92.35
-106.57
-122.93
-139.18
-151.78
-156.60
-150.19
-131.05
-100.44
-62.21
-21.70
15.81
46.48
68.58
82.24
88.72
89.54
86.04
79.33
70.61
61.29
52.95
46.97
44.08
44.07
45.95
48.36
50.12
50.73
50.35
49.51
48.60
47.38
44.90
39.91
31.39
19.19
4.23
-11.74
-26.78
-39.40
-49.11
-56.43
-62.69
-69.58
-78.62
-90.70
-105.59
-121.68
-135.91
-144.39
-143.36
-130.47
-105.72
-71.72
-33.04
5.07
38.11
63.26
79.58
87.64
88.79
84.62
76.66
66.42
55.46
45.30
37.27
32.15
30.05
30.43
32.39
35.04
37.68
39.80
40.92
40.39
37.43
31.37
22.01
9.83
-4.01
-18.02
-30.90
-41.95
-51.30
-59.91
-69.28
-80.87
-95.39
-112.10
-128.49
-140.54
-143.78
-134.79
-112.56
-79.09
-38.97
2.04
38.70
67.50
87.25
98.50
102.79
101.79
96.91
89.30
80.13
70.74
62.58
56.89
54.30
54.50
56.44
58.69
60.07
60.03
58.71
56.63
54.10
50.90
46.15
38.71
27.78
13.40
-3.31
-20.44
-35.93
-48.38
-57.50
-64.25
-70.53
-78.54
-90.00
-105.44
-123.67
-141.64
-154.99
-159.12
-150.66
-128.67
-95.19
-54.79
-13.15
24.54
54.93
76.82
90.80
98.24
100.54
98.82
94.06
87.39
80.21
74.04
69.99
68.43
68.73
69.69
70.01
68.88
66.29
62.90
59.51
56.54
53.66
49.88
43.90
34.78
22.39
7.53
-8.24
-23.17
-35.86
-45.73
-53.15
-59.30
-65.84
-74.44
-86.27
-101.34
-118.16
-133.60
-143.45
-143.55
-131.12
-105.95
-70.73
-30.25
9.88
44.95
72.13
90.72
101.59
106.27
106.22
102.52
96.09
87.94
79.44
72.08
67.17
65.27
65.98
68.07
69.98
70.49
69.12
66.18
62.42
58.41
54.18
49.12
42.25
32.76
20.42
5.82
-9.80
-24.92
-38.25
-49.08
-57.46
-64.22
-70.66
-78.25
-88.18
-100.99
-116.05
-131.44
-143.97
-149.86
-145.71
-129.66
-102.17
-66.14
-26.17
12.71
46.36
72.32
89.89
99.70
102.97
101.01
95.14
86.79
77.59
69.25
63.23
60.26
60.13
61.80
63.88
65.22
65.25
64.02
61.84
58.88
54.88
49.20
41.14
30.40
17.28
2.72
-12.07
-25.93
-38.26
-49.10
-59.22
-69.86
-82.23
-96.97
-113.49
-129.71
-142.20
-147.04
-141.05
-122.91
-93.99
-58.03
-20.20
14.42
42.12
61.22
71.92
75.60
73.97
68.50
60.29
50.26
39.47
29.21
20.89
15.61
13.88
15.41
19.14
23.59
27.17
28.60
27.08
22.44
15.04
5.66
-4.80
-15.57
-26.17
-36.55
-47.01
-58.11
-70.50
-84.57
-99.98
-115.30
-127.79
-133.88
-130.16
-114.64
-87.72
-52.45
-13.78
22.92
53.31
75.03
87.86
93.11
92.64
88.16
80.91
71.77
61.62
51.49
42.54
35.78
31.75
30.38
31.04
32.80
34.69
35.84
35.55
33.14
28.06
20.01
9.07
-4.09
-18.35
-32.37
-45.11
-56.11
-65.77
-75.23
-86.02
-99.29
-114.97
-131.28
-144.66
-150.71
-145.52
-127.20
-96.74
-57.91
-16.17
23.05
55.63
79.63
95.03
103.06
105.40
103.61
98.98
92.62
85.68
79.24
74.17
70.90
69.26
68.56
67.87
66.50
64.23
61.36
58.39
55.54
52.49
48.26
41.67
31.85
18.78
3.34
-12.84
-28.02
-40.91
-51.08
-59.10
-66.40
-74.81
-85.96
-100.56
-117.71
-134.71
-147.32
-150.99
-142.28
-120.27
-87.08
-47.38
-6.94
29.08
57.40
77.00
88.63
93.92
94.50
91.69
86.50
79.93
73.15
67.36
63.49
61.89
62.15
63.26
64.00
63.35
60.90
56.95
52.28
47.74
43.75
40.02
35.56
29.12
19.77
7.46
-6.90
-21.66
-35.08
-46.02
-54.26
-60.56
-66.28
-72.97
-81.97
-93.99
-108.81
-124.85
-139.14
-147.70
-146.61
-133.29
-107.68
-72.49
-32.58
6.57
40.36
66.19
83.57
93.56
97.79
97.76
94.53
88.91
81.80
74.37
67.95
63.70
62.18
63.06
65.32
67.59
68.68
68.02
65.67
62.12
57.87
53.14
47.77
41.30
33.26
23.37
11.82
-0.80
-13.62
-25.74
-36.53
-45.74
-53.59
-60.56
-67.31
-74.64
-83.40
-94.30
-107.53
-122.22
-136.04
-145.45
-146.59
-136.54
-114.64
-82.90
-45.54
-7.68
26.12
52.89
71.51
82.30
86.33
84.85
79.15
70.59
60.80
51.52
44.27
39.96
38.58
39.30
40.85
42.08
42.38
41.73
40.44
38.76
36.45
32.85
27.05
18.46
7.21
-5.80
-19.11
-31.18
-40.98
-48.36
-54.12
-59.75
-66.95
-77.00
-90.06
-104.82
-118.46
-127.15
-127.07
-115.72
-92.93
-61.10
-24.71
11.04
41.66
64.45
78.77
85.52
86.30
82.61
75.57
65.98
54.71
42.91
32.05
23.53
18.37
16.83
18.39
21.85
25.68
28.40
28.89
26.59
21.54
14.25
5.47
-4.01
-13.64
-23.17
-32.76
-42.86
-54.20
-67.44
-82.78
-99.47
-115.46
-127.49
-131.80
-125.28
-106.72
-77.45
-41.24
-3.30
31.18
58.34
76.38
85.44
87.06
83.27
76.01
66.85
57.04
47.59
39.42
33.21
29.36
27.82
28.10
29.53
31.35
32.90
33.59
32.82
29.95
24.42
15.90
4.58
-8.85
-23.27
-37.44
-50.47
-62.09
-72.81
-83.81
-96.30
-110.84
-126.53
-140.72
-149.47
-148.68
-135.58
-109.94
-74.43
-33.89
6.13
40.90
67.58
85.40
95.14
98.35
96.71
91.73
84.77
77.19
70.21
64.77
61.28
59.53
58.84
58.42
57.70
56.56
55.14
53.59
51.71
48.79
43.85
36.01
24.99
11.30
-3.77
-18.66
-31.99
-43.11
-52.25
-60.56
-69.63
-81.00
-95.35
-111.95
-128.29
-140.53
-144.39
-136.67
-116.40
-85.46
-48.04
-9.44
25.51
53.63
73.71
86.20
92.40
93.69
91.31
86.29
79.78
73.08
67.50
63.95
62.69
63.13
64.12
64.52
63.68
61.67
59.10
56.61
54.30
51.51
47.03
39.68
28.97
15.36
0.21
-14.79
-28.13
-39.07
-47.79
-55.21
-62.78
-71.96
-83.76
-98.24
-114.05
-128.47
-137.70
-137.97
-126.74
-103.72
-71.25
-33.72
3.72
36.62
62.24
79.84
90.25
94.98
95.50
92.94
88.12
81.86
75.23
69.42
65.51
64.07
64.88
67.02
69.15
70.05
69.03
66.13
61.87
56.93
51.71
46.02
39.23
30.52
19.46
6.25
-8.20
-22.56
-35.52
-46.31
-54.91
-61.97
-68.55
-75.83
-84.84
-96.19
-109.77
-124.51
-138.10
-147.25
-148.38
-138.81
-117.81
-87.15
-50.72
-13.41
20.33
47.53
66.99
78.95
84.37
84.36
80.01
72.53
63.43
54.45
47.29
43.07
41.99
43.29
45.57
47.37
47.74
46.50
44.08
41.13
37.95
34.26
29.24
22.02
12.11
-0.19
-13.79
-27.12
-38.71
-47.65
-53.93
-58.50
-62.95
-69.07
-78.22
-90.72
-105.46
-119.85
-130.24
-132.87
-125.02
-105.93
-77.25
-42.55
-6.43
26.80
53.95
73.44
85.04
89.48
87.94
81.85
72.81
62.58
52.92
45.28
40.54
38.74
39.22
40.92
42.80
44.15
44.71
44.50
43.50
41.44
37.70
31.57
22.61
10.95
-2.56
-16.59
-29.67
-40.72
-49.37
-56.11
-62.22
-69.40
-79.22
-92.44
-108.30
-124.25
-136.32
-140.17
-132.58
-112.72
-82.59
-46.46
-9.45
23.97
50.91
70.32
82.43
88.12
88.39
84.29
77.09
68.41
60.03
53.55
49.95
49.32
50.89
53.38
55.52
56.41
55.85
54.20
51.99
49.46
46.28
41.61
34.43
24.18
11.09
-3.70
-18.52
-31.77
-42.47
-50.58
-57.00
-63.26
-71.06
-81.68
-95.47
-111.30
-126.54
-137.42
-139.99
-131.37
-110.86
-80.38
-43.99
-6.67
27.06
54.25
73.82
86.20
92.62
94.42
92.70
88.32
82.17
75.31
68.95
64.24
61.92
62.01
63.77
65.95
67.21
66.61
63.89
59.45
54.08
48.41
42.58
36.23
28.63
19.14
7.56
-5.65
-19.50
-32.78
-44.48
-54.15
-62.01
-68.86
-75.84
-84.11
-94.60
-107.65
-122.63
-137.66
-149.67
-154.89
-149.94
-133.05
-104.89
-68.68
-29.28
8.24
39.96
63.86
79.78
88.77
92.33
91.84
88.47
83.18
76.98
70.89
65.83
62.51
61.22
61.78
63.57
65.69
67.20
67.33
65.66
62.22
57.33
51.46
44.98
38.06
30.56
22.15
12.49
1.44
-10.74
-23.43
-35.72
-46.71
-55.77
-62.82
-68.36
-73.45
-79.44
-87.71
-99.06
-113.24
-128.48
-141.57
-148.40
-145.22
-129.94
-103.10
-67.91
-29.29
7.54
38.51
61.50
76.28
83.91
85.94
83.79
78.62
71.49
63.53
56.03
50.27
47.16
46.91
48.95
52.11
55.03
56.68
56.61
54.99
52.31
48.99
45.08
40.18
33.65
24.93
13.92
1.16
-12.21
-24.80
-35.40
-43.41
-49.01
-53.10
-57.01
-62.13
-69.56
-79.89
-92.86
-107.22
-120.57
-129.71
-131.33
-122.99
-104.04
-76.02
-42.37
-7.49
24.41
50.27
68.58
79.21
83.00
81.26
75.46
67.12
57.81
49.06
42.20
38.11
36.99
38.31
41.01
43.82
45.77
46.39
45.68
43.87
40.99
36.74
30.56
21.96
10.95
-1.81
-15.13
-27.66
-38.39
-47.05
-54.15
-60.89
-68.81
-79.23
-92.70
-108.36
-123.75
-135.15
-138.48
-130.64
-110.68
-80.37
-43.78
-6.07
28.02
55.32
74.69
86.56
92.22
93.02
90.07
84.26
76.54
68.12
60.42
54.78
52.11
52.56
55.43
59.49
63.28
65.60
65.80
63.83
59.99
54.73
48.33
40.85
32.23
22.45
11.63
0.10
-11.73
-23.37
-34.33
-44.17
-52.58
-59.56
-65.51
-71.35
-78.35
-87.79
-100.37
-115.62
-131.49
-144.47
-150.45
-145.83
-128.91
-100.58
-64.20
-24.71
12.88
44.67
68.66
84.63
93.59
97.10
96.70
93.81
89.63
85.24
81.47
78.88
77.59
77.34
77.62
77.90
77.85
77.44
76.86
76.23
75.37
73.70
70.36
64.65
56.28
45.69
33.90
22.10
11.21
1.52
-7.28
-15.86
-24.79
-34.23
-43.85
-52.99
-61.05
-67.72
-73.30
-78.60
-84.91
-93.58
-105.57
-120.76
-137.44
-152.27
-160.90
-159.21
-144.74
-117.78
-81.39
-40.56
-0.68
33.85
60.57
78.99
89.96
94.95
95.46
92.78
88.06
82.39
76.90
72.57
70.09
69.62
70.77
72.72
74.61
75.82
76.18
75.84
75.01
73.63
71.20
66.95
60.26
51.00
39.80
27.87
16.53
6.76
-1.21
-7.92
-14.36
-21.50
-29.86
-39.27
-48.96
-57.97
-65.53
-71.45
-76.26
-81.07
-87.31
-96.24
-108.46
-123.35
-138.76
-151.12
-156.21
-150.38
-131.90
-101.70
-63.35
-22.06
16.86
49.33
73.27
88.54
96.31
98.22
95.92
90.78
83.98
76.61
69.67
64.04
60.37
58.88
59.39
61.41
64.24
67.20
69.64
71.02
70.79
68.44
63.60
56.20
46.65
35.76
24.48
13.57
3.32
-6.46
-16.16
-26.08
-36.17
-45.99
-54.96
-62.68
-69.19
-75.05
-81.28
-89.16
-99.75
-113.33
-128.84
-143.67
-153.98
-155.73
-146.06
-124.41
-92.91
-55.83
-18.21
15.55
42.69
62.22
74.49
80.35
80.73
76.51
68.70
58.76
48.59
40.20
35.19
34.25
36.96
41.98
47.56
52.14
54.79
55.33
54.10
51.55
47.89
42.86
35.93
26.62
14.86
1.22
-13.18
-27.00
-39.10
-48.90
-56.58
-62.98
-69.40
-77.24
-87.62
-100.90
-116.28
-131.58
-143.33
-147.61
-141.14
-122.53
-92.90
-55.85
-16.44
20.28
50.49
72.32
85.82
92.28
93.40
90.74
85.48
78.54
70.82
63.33
57.11
53.06
51.62
52.57
55.08
58.00
60.17
60.85
59.80
57.20
53.42
48.75
43.19
36.51
28.39
18.61
7.28
-5.15
-17.95
-30.38
-41.85
-52.03
-60.93
-68.85
-76.42
-84.52
-94.19
-106.27
-120.92
-137.00
-151.85
-161.61
-162.19
-150.72
-126.62
-92.13
-51.74
-10.83
25.76
54.87
75.35
87.74
93.47
94.24
91.54
86.63
80.59
74.45
69.13
65.35
63.50
63.56
65.10
67.41
69.64
71.02
71.03
69.46
66.38
61.96
56.38
49.69
41.81
32.67
22.28
10.86
-1.18
-13.31
-24.94
-35.60
-44.92
-52.78
-59.42
-65.45
-71.89
-80.00
-90.88
-104.88
-121.04
-136.77
-148.12
-150.85
-141.70
-119.72
-86.81
-47.29
-6.59
30.30
59.96
81.05
93.89
99.74
100.12
96.41
89.86
81.74
73.43
66.33
61.62
59.94
61.11
64.20
67.81
70.54
71.42
70.20
67.25
63.19
58.43
52.90
46.06
37.21
25.93
12.41
-2.51
-17.56
-31.45
-43.24
-52.63
-59.97
-66.14
-72.29
-79.62
-89.11
-101.14
-115.11
-129.13
-140.16
-144.53
-139.02
-121.98
-94.13
-58.50
-19.74
17.23
48.44
71.57
86.14
92.92
93.36
89.01
81.35
71.78
61.70
52.48
45.24
40.63
38.66
38.84
40.37
42.44
44.45
45.90
46.30
45.01
41.30
34.63
24.94
12.81
-0.67
-14.24
-26.88
-38.16
-48.37
-58.44
-69.56
-82.67
-97.84
-113.75
-127.59
-135.56
-133.91
-120.30
-94.86
-60.44
-21.92
15.24
46.46
69.14
82.80
88.59
88.39
84.05
76.94
68.03
58.16
48.26
39.47
32.83
29.13
28.46
30.21
33.15
35.80
36.78
35.25
30.91
24.03
15.20
5.07
-5.81
-17.00
-28.21
-39.29
-50.33
-61.82
-74.53
-89.13
-105.52
-122.12
-135.80
-142.39
-138.12
-121.01
-91.88
-54.36
-13.78
24.28
55.57
77.83
90.87
95.91
94.87
89.71
82.17
73.71
65.50
58.43
53.05
49.55
47.77
47.33
47.81
48.82
50.03
50.98
51.02
49.23
44.67
36.75
25.49
11.74
-3.13
-17.59
-30.54
-41.58
-51.20
-60.64
-71.44
-84.86
-101.14
-118.89
-134.95
-144.96
-144.61
-131.16
-104.67
-68.20
-27.00
13.12
47.41
73.26
90.24
99.51
102.85
101.96
98.17
92.53
86.04
79.79
74.77
71.64
70.46
70.66
71.23
71.11
69.69
66.91
63.26
59.32
55.38
51.12
45.71
38.10
27.66
14.48
-0.43
-15.55
-29.25
-40.46
-48.99
-55.63
-61.93
-69.74
-80.65
-95.25
-112.63
-130.17
-143.86
-149.22
-142.76
-123.22
-92.18
-53.81
-13.59
23.22
52.97
74.13
87.15
93.57
95.23
93.63
89.82
84.50
78.36
72.22
66.96
63.37
61.83
62.19
63.78
65.60
66.72
66.43
64.50
61.09
56.56
51.26
45.29
38.47
30.42
20.82
9.64
-2.75
-15.57
-27.87
-38.86
-48.09
-55.60
-61.85
-67.57
-73.68
-81.19
-91.04
-103.74
-118.86
-134.49
-147.30
-153.06
-147.96
-130.09
-100.30
-62.27
-21.35
17.01
48.78
72.04
86.81
94.32
96.18
93.86
88.59
81.57
73.97
67.05
61.86
59.06
58.72
60.35
63.10
65.98
68.18
69.14
68.59
66.38
62.43
56.71
49.30
40.53
30.95
21.14
11.48
1.99
-7.61
-17.67
-28.29
-39.11
-49.44
-58.49
-65.78
-71.40
-76.06
-80.95
-87.48
-96.80
-109.24
-123.79
-137.90
-147.74
-149.21
-139.23
-116.95
-84.26
-45.37
-5.56
30.27
58.76
78.51
89.80
93.92
92.54
87.28
79.66
71.08
62.88
56.24
52.04
50.63
51.82
54.87
58.73
62.33
64.83
65.78
65.02
62.58
58.52
52.85
45.58
36.87
27.09
16.73
6.31
-3.89
-13.82
-23.57
-33.20
-42.54
-51.25
-58.92
-65.42
-71.00
-76.40
-82.73
-91.09
-102.14
-115.47
-129.28
-140.41
-145.00
-139.58
-122.42
-94.32
-58.59
-20.09
16.19
46.42
68.69
82.81
89.82
91.16
88.24
82.27
74.43
65.92
58.03
52.00
48.72
48.50
50.98
55.20
59.89
63.80
66.06
66.23
64.37
60.78
55.84
49.86
43.03
35.42
27.02
17.78
7.75
-2.95
-14.01
-24.98
-35.37
-44.73
-52.84
-59.79
-66.05
-72.38
-79.82
-89.36
-101.55
-115.95
-130.73
-142.73
-148.12
-143.54
-127.33
-100.30
-65.68
-28.22
7.25
36.99
59.03
73.14
80.13
81.20
77.57
70.41
61.08
51.22
42.59
36.68
34.26
35.09
38.09
41.73
44.67
46.21
46.38
45.66
44.50
42.91
40.32
35.81
28.54
18.29
5.69
-7.97
-21.07
-32.33
-41.21
-48.09
-54.04
-60.51
-68.83
-79.82
-93.37
-108.22
-121.97
-131.40
-133.24
-125.12
-106.45
-78.79
-45.60
-11.31
19.84
44.74
61.89
71.27
73.83
70.93
64.00
54.38
43.45
32.60
23.27
16.58
13.20
13.10
15.63
19.73
24.28
28.27
30.97
31.83
30.45
26.55
20.03
11.13
0.42
-11.20
-22.81
-33.71
-43.72
-53.30
-63.37
-75.01
-88.78
-104.16
-119.19
-130.59
-134.59
-128.11
-109.95
-81.39
-46.01
-8.68
25.81
53.94
73.91
85.60
89.93
88.23
81.99
72.67
61.86
51.17
42.09
35.66
32.25
31.49
32.49
34.17
35.67
36.42
36.22
34.94
32.27
27.74
20.75
11.00
-1.32
-15.34
-29.73
-43.07
-54.38
-63.56
-71.46
-79.72
-90.06
-103.50
-119.57
-135.89
-148.60
-153.35
-146.73
-127.48
-97.12
-59.43
-19.41
18.18
49.83
73.81
89.88
98.76
101.58
99.56
94.04
86.51
78.62
71.95
67.71
66.36
67.54
70.18
72.91
74.57
74.61
73.12
70.63
67.56
63.93
59.14
52.22
42.32
29.30
13.91
-2.30
-17.53
-30.40
-40.50
-48.46
-55.73
-64.10
-75.07
-89.27
-106.09
-123.42
-137.85
-145.31
-142.14
-126.34
-98.47
-61.71
-21.05
18.08
51.37
76.44
92.96
102.05
105.48
104.85
101.36
95.92
89.31
82.45
76.36
72.03
70.02
70.30
72.20
74.60
76.32
76.43
74.54
70.71
65.40
59.06
52.07
44.51
36.25
27.06
16.77
5.46
-6.52
-18.51
-29.78
-39.73
-48.09
-55.05
-61.17
-67.37
-74.69
-84.20
-96.52
-111.43
-127.34
-141.20
-149.00
-146.88
-132.49
-106.02
-70.40
-30.39
8.71
42.64
68.91
86.92
97.34
101.41
100.51
96.00
89.38
82.25
76.15
72.17
70.69
71.26
72.92
74.61
75.70
76.02
75.80
75.29
74.38
72.55
69.05
63.27
55.09
45.02
34.06
23.33
13.67
5.35
-1.95
-8.99
-16.54
-25.03
-34.37
-43.91
-52.82
-60.40
-66.52
-71.83
-77.60
-85.40
-96.48
-111.11
-128.01
-144.30
-155.89
-158.53
-149.13
-126.88
-93.73
-54.01
-13.14
23.81
53.36
74.09
86.37
91.63
91.60
87.88
81.90
74.93
68.19
62.72
59.21
57.87
58.41
60.19
62.45
64.57
66.10
66.79
66.41
64.71
61.34
55.95
48.44
39.06
28.51
17.73
7.59
-1.47
-9.58
-17.27
-25.09
-33.30
-41.66
-49.56
-56.39
-61.80
-66.02
-69.86
-74.56
-81.50
-91.64
-104.97
-119.97
-133.55
-141.66
-140.41
-127.44
-102.93
-69.71
-32.53
3.48
34.18
57.32
72.49
80.56
82.84
80.51
74.56
65.99
56.13
46.61
39.13
34.96
34.47
37.04
41.29
45.62
48.74
50.05
49.64
47.99
45.52
42.30
37.97
31.93
23.71
13.27
1.12
-11.79
-24.36
-35.71
-45.40
-53.53
-60.67
-67.71
-75.70
-85.57
-97.74
-111.76
-125.91
-137.27
-142.27
-137.77
-122.16
-96.10
-62.56
-25.94
9.22
39.33
62.46
78.21
87.18
90.37
88.84
83.58
75.70
66.53
57.60
50.42
46.13
45.23
47.35
51.39
55.85
59.31
60.77
59.93
57.03
52.57
47.03
40.64
33.32
24.89
15.23
4.43
-7.16
-18.98
-30.39
-40.87
-50.06
-57.92
-64.72
-71.05
-77.76
-85.88
-96.29
-109.20
-123.63
-137.12
-146.01
-146.40
-135.48
-112.68
-80.16
-42.25
-4.17
29.47
55.72
73.65
83.92
88.04
87.63
84.10
78.60
72.17
65.82
60.46
56.85
55.31
55.75
57.65
60.26
62.77
64.45
64.76
63.40
60.33
55.70
49.79
42.87
35.13
26.66
17.49
7.64
-2.73
-13.40
-24.01
-34.15
-43.45
-51.63
-58.64
-64.78
-70.74
-77.62
-86.60
-98.48
-112.99
-128.37
-141.38
-147.94
-144.46
-129.04
-102.40
-67.80
-30.06
5.89
36.29
59.25
74.62
83.36
86.82
86.30
82.89
77.61
71.50
65.62
60.95
58.20
57.62
58.97
61.55
64.43
66.67
67.56
66.73
64.18
60.17
54.99
48.86
41.81
33.68
24.33
13.73
2.13
-9.92
-21.72
-32.55
-41.93
-49.74
-56.26
-62.12
-68.21
-75.51
-84.88
-96.61
-109.98
-122.94
-132.33
-134.52
-126.66
-107.73
-79.16
-44.48
-8.35
24.79
51.80
71.33
83.47
89.31
90.16
87.30
81.89
75.08
68.05
62.00
57.88
56.22
56.97
59.59
63.19
66.76
69.41
70.51
69.72
67.00
62.51
56.57
49.50
41.57
32.87
23.39
13.01
1.80
-9.97
-21.73
-32.79
-42.52
-50.58
-57.11
-62.65
-68.11
-74.61
-83.17
-94.38
-107.82
-121.80
-133.30
-138.66
-134.59
-119.37
-93.67
-60.50
-24.43
9.82
38.57
59.88
73.55
80.49
82.03
79.43
73.76
66.12
57.75
50.02
44.18
40.90
40.09
40.93
42.27
43.13
43.10
42.41
41.51
40.65
39.52
37.22
32.69
25.22
14.93
2.79
-9.64
-20.87
-29.94
-36.76
-42.11
-47.29
-53.76
-62.64
-74.31
-88.05
-101.91
-112.87
-117.56
-113.30
-98.99
-75.68
-46.37
-15.14
13.97
37.93
55.18
65.52
69.68
68.81
64.15
56.98
48.58
40.24
33.13
28.06
25.31
24.65
25.44
26.95
28.54
29.80
30.46
30.21
28.59
24.99
18.91
10.25
-0.53
-12.42
-24.14
-34.63
-43.35
-50.60
-57.41
-65.19
-75.11
-87.45
-101.09
-113.48
-121.19
-120.87
-110.40
-89.77
-61.16
-28.35
4.32
33.12
55.66
71.00
79.44
81.92
79.70
74.09
66.50
58.37
51.11
45.83
43.08
42.68
43.87
45.55
46.72
46.87
46.00
44.39
42.29
39.48
35.33
28.97
19.85
8.05
-5.44
-19.11
-31.36
-41.17
-48.45
-54.13
-59.87
-67.48
-78.22
-92.18
-107.91
-122.48
-132.06
-132.93
-122.66
-101.03
-70.28
-34.61
1.12
32.63
57.30
74.43
84.81
89.87
91.04
89.37
85.52
80.17
74.19
68.57
64.30
61.91
61.34
61.91
62.60
62.47
61.00
58.21
54.52
50.46
46.25
41.67
36.13
28.92
19.58
8.21
-4.57
-17.72
-30.03
-40.54
-48.75
-54.82
-59.53
-64.17
-70.18
-78.79
-90.51
-104.69
-119.35
-131.32
-136.91
-132.97
-117.99
-92.69
-60.06
-24.54
9.22
37.66
58.93
72.96
80.85
84.11
84.12
81.92
78.36
74.23
70.30
67.26
65.50
65.00
65.41
66.18
66.82
66.99
66.56
65.43
63.43
60.32
55.80
49.75
42.34
34.00
25.28
16.67
8.35
0.19
-8.04
-16.54
-25.27
-33.88
-41.92
-49.01
-55.05
-60.30
-65.45
-71.48
-79.50
-90.24
-103.58
-118.09
-130.89
-138.21
-136.42
-123.31
-99.04
-66.31
-29.60
6.18
36.99
60.50
76.20
84.89
88.01
87.13
83.65
78.81
73.71
69.26
66.06
64.34
63.89
64.25
64.93
65.53
65.87
65.92
65.54
64.42
62.00
57.68
51.06
42.24
31.85
20.90
10.42
1.08
-7.07
-14.48
-21.86
-29.76
-38.27
-46.99
-55.19
-62.23
-67.84
-72.30
-76.44
-81.45
-88.49
-98.30
-110.71
-124.23
-136.08
-142.68
-140.53
-127.45
-103.46
-70.96
-34.19
2.08
33.83
58.66
75.95
86.35
91.03
91.07
87.32
80.56
71.83
62.58
54.45
48.87
46.57
47.31
50.02
53.21
55.56
56.32
55.40
53.14
49.95
45.99
41.00
34.43
25.78
14.85
1.98
-11.91
-25.60
-37.90
-48.00
-55.74
-61.62
-66.57
-71.73
-78.19
-86.73
-97.60
-110.27
-123.20
-133.86
-139.08
-135.96
-122.81
-99.93
-69.72
-36.06
-3.24
25.16
47.00
61.62
69.51
71.71
69.46
64.00
56.61
48.55
41.01
34.95
30.95
29.16
29.31
30.89
33.30
35.98
38.36
39.89
39.94
37.89
33.23
25.81
15.99
4.67
-6.93
-17.70
-26.98
-34.90
-42.29
-50.44
-60.54
-73.05
-87.21
-100.82
-110.63
-113.10
-105.59
-87.31
-59.80
-26.52
8.03
39.61
65.23
83.48
94.37
98.81
98.02
93.34
86.10
77.63
69.22
61.85
56.10
52.03
49.31
47.46
46.08
44.99
44.08
43.19
41.90
39.49
35.13
28.13
18.29
6.03
-7.62
-21.39
-34.12
-45.16
-54.63
-63.37
-72.71
-84.03
-98.09
-114.49
-131.27
-145.10
-151.99
-148.54
-133.08
-106.45
-71.80
-33.77
2.87
34.34
58.53
75.00
84.40
88.03
87.28
83.50
78.01
72.06
66.77
62.83
60.43
59.13
58.21
56.97
55.13
52.93
50.92
49.49
48.48
47.09
44.08
38.35
29.38
17.50
3.76
-10.44
-23.81
-35.56
-45.56
-54.34
-63.00
-72.82
-84.84
-99.19
-114.64
-128.44
-136.83
-136.10
-123.88
-100.20
-67.60
-30.57
5.87
37.53
61.93
78.48
87.94
91.69
91.07
87.20
81.08
73.83
66.68
60.86
57.15
55.61
55.57
55.92
55.64
54.25
51.88
49.09
46.39
43.85
40.90
36.54
29.72
19.93
7.37
-6.91
-21.47
-34.85
-46.13
-55.16
-62.60
-69.70
-77.90
-88.40
-101.63
-116.72
-131.33
-141.90
-144.49
-136.00
-115.37
-84.17
-46.34
-6.99
29.02
58.36
79.67
93.25
100.29
102.14
99.90
94.53
87.03
78.68
70.89
64.94
61.55
60.75
61.84
63.76
65.46
66.17
65.54
63.59
60.49
56.45
51.51
45.57
38.35
29.56
19.07
7.04
-5.97
-19.11
-31.40
-42.06
-50.76
-57.75
-63.82
-70.10
-77.82
-87.96
-100.76
-115.37
-129.60
-140.16
-143.37
-136.28
-117.77
-89.14
-53.85
-16.59
18.06
46.69
67.66
80.89
87.28
88.07
84.49
77.70
68.96
59.75
51.69
46.09
43.60
44.00
46.21
48.86
50.75
51.28
50.52
48.89
46.80
44.18
40.53
35.06
27.17
16.77
4.39
-8.86
-21.73
-33.06
-42.23
-49.34
-55.14
-60.94
-68.21
-78.11
-90.86
-105.35
-119.04
-128.45
-130.08
-121.49
-102.24
-74.11
-40.66
-6.20
25.28
50.95
69.43
80.58
85.04
83.83
78.19
69.49
59.30
49.21
40.65
34.56
31.23
30.36
31.22
32.99
34.94
36.57
37.48
37.27
35.42
31.41
24.86
15.76
4.62
-7.59
-19.69
-30.65
-39.93
-47.67
-54.74
-62.41
-72.00
-84.24
-98.64
-113.17
-124.44
-128.52
-122.25
-104.43
-76.47
-42.07
-6.10
26.86
53.59
72.72
84.39
89.55
89.38
85.00
77.53
68.27
58.73
50.43
44.59
41.74
41.58
43.17
45.30
46.93
47.53
47.04
45.58
43.16
39.40
33.67
25.41
14.59
1.91
-11.39
-23.82
-34.32
-42.62
-49.37
-56.06
-64.45
-75.91
-90.67
-107.34
-122.82
-133.04
-134.06
-123.45
-101.16
-69.74
-33.54
2.53
34.35
59.37
76.76
86.96
91.04
90.16
85.42
77.94
69.02
60.18
52.86
48.09
46.11
46.36
47.75
49.12
49.69
49.30
48.20
46.73
44.85
42.06
37.55
30.54
20.75
8.53
-5.13
-18.92
-31.54
-42.17
-50.67
-57.68
-64.48
-72.61
-83.25
-96.69
-111.76
-125.82
-135.26
-136.46
-126.97
-106.42
-76.76
-41.82
-6.23
25.73
51.17
68.90
79.21
83.29
82.55
78.26
71.49
63.27
54.79
47.37
42.28
40.31
41.43
44.79
48.91
52.21
53.62
52.83
50.29
46.82
43.05
39.09
34.41
28.16
19.65
8.73
-3.99
-17.33
-29.97
-40.84
-49.55
-56.41
-62.30
-68.41
-75.88
-85.50
-97.43
-110.83
-123.78
-133.38
-136.25
-129.57
-111.98
-84.34
-49.72
-12.61
22.25
51.17
72.17
85.02
90.74
90.84
86.83
80.03
71.63
62.82
54.86
48.94
45.89
45.96
48.64
52.89
57.31
60.68
62.16
61.44
58.69
54.33
48.76
42.19
34.71
26.23
16.71
6.25
-4.84
-16.07
-26.86
-36.66
-45.15
-52.26
-58.30
-63.87
-69.82
-77.08
-86.47
-98.29
-111.88
-125.34
-135.57
-138.96
-132.46
-114.76
-86.93
-52.37
-15.73
18.37
46.53
67.17
80.25
86.73
87.86
84.76
78.48
70.11
61.02
52.74
46.70
43.86
44.37
47.59
52.28
57.00
60.58
62.30
61.93
59.57
55.48
49.90
43.06
35.17
26.49
17.24
7.55
-2.51
-12.83
-23.25
-33.40
-42.85
-51.20
-58.31
-64.36
-69.92
-75.89
-83.27
-92.92
-105.00
-118.53
-131.12
-139.23
-139.13
-128.18
-105.92
-74.49
-38.07
-1.60
30.64
55.94
73.38
83.32
86.82
85.05
79.19
70.50
60.45
50.73
42.92
38.26
37.26
39.56
44.05
49.20
53.48
55.85
55.98
54.10
50.87
46.78
42.01
36.28
29.12
20.10
9.26
-2.85
-15.21
-26.69
-36.46
-44.25
-50.41
-55.80
-61.50
-68.54
-77.64
-88.97
-101.91
-114.89
-125.32
-130.09
-126.30
-112.31
-88.52
-57.46
-23.20
9.85
38.02
59.16
72.59
78.70
78.47
73.09
63.94
52.63
40.96
30.75
23.40
19.57
19.12
21.20
24.60
28.18
31.13
33.06
33.91
33.59
31.86
28.20
22.04
13.15
1.94
-10.54
-22.79
-33.47
-41.92
-48.39
-54.00
-60.32
-68.72
-79.81
-92.92
-105.95
-115.73
-118.72
-112.12
-94.90
-68.33
-35.75
-1.61
29.78
55.36
73.71
84.85
89.54
88.77
83.54
74.96
64.49
53.95
45.24
39.78
38.11
39.66
43.10
46.80
49.55
50.77
50.54
49.28
47.25
44.36
40.05
33.60
24.48
12.72
-0.92
-15.08
-28.23
-39.14
-47.36
-53.35
-58.33
-63.95
-71.75
-82.70
-96.69
-112.25
-126.55
-135.86
-136.48
-125.97
-104.10
-73.16
-37.37
-1.63
29.98
54.96
72.63
83.54
88.72
89.16
85.78
79.60
71.87
64.12
57.83
53.99
52.90
54.12
56.65
59.34
61.20
61.62
60.46
57.93
54.33
49.80
44.25
37.30
28.57
17.96
5.82
-6.94
-19.23
-30.02
-38.75
-45.52
-51.00
-56.19
-62.25
-70.22
-80.74
-93.81
-108.26
-121.68
-130.66
-131.57
-121.82
-100.89
-70.82
-35.66
-0.31
30.96
55.53
72.64
82.91
87.57
87.78
84.42
78.34
70.59
62.55
55.78
51.57
50.52
52.35
56.05
60.18
63.47
65.09
64.85
62.99
59.91
55.96
51.16
45.31
38.10
29.30
18.97
7.51
-4.34
-15.66
-25.64
-33.84
-40.29
-45.60
-50.79
-57.07
-65.55
-76.86
-90.78
-105.90
-119.58
-128.37
-128.88
-118.84
-98.03
-68.52
-34.19
0.42
31.29
55.79
72.93
82.99
86.89
85.76
80.76
73.14
64.40
56.12
49.73
46.12
45.36
46.73
49.01
50.95
51.66
50.88
48.86
46.11
42.98
39.40
34.84
28.56
20.02
9.26
-2.97
-15.42
-26.75
-36.04
-43.12
-48.54
-53.45
-59.19
-66.98
-77.49
-90.49
-104.55
-117.08
-124.76
-124.40
-113.98
-93.47
-64.99
-32.29
0.26
28.81
50.80
65.23
72.36
73.26
69.30
61.94
52.61
42.73
33.66
26.54
22.06
20.35
21.00
23.26
26.26
29.20
31.42
32.37
31.47
28.24
22.38
14.04
3.78
-7.40
-18.45
-28.51
-37.27
-45.02
-52.62
-61.26
-71.91
-84.81
-98.97
-111.93
-120.26
-120.43
-110.09
-88.99
-59.34
-25.16
8.85
38.65
61.73
77.29
85.79
88.29
85.92
79.76
71.01
61.13
51.82
44.67
40.60
39.62
40.83
42.87
44.49
45.02
44.41
43.01
41.16
38.76
35.30
30.00
22.26
12.02
-0.12
-13.00
-25.25
-35.76
-44.08
-50.64
-56.65
-63.75
-73.42
-86.24
-101.39
-116.44
-127.74
-131.41
-124.46
-106.01
-77.67
-43.16
-7.30
25.41
51.89
70.88
82.74
88.74
90.37
88.82
85.03
79.78
73.96
68.61
64.64
62.62
62.47
63.47
64.55
64.74
63.46
60.74
57.06
52.94
48.57
43.55
37.11
28.42
17.16
3.80
-10.47
-24.05
-35.63
-44.64
-51.43
-57.24
-63.65
-72.16
-83.58
-97.65
-112.80
-126.19
-134.29
-133.77
-122.61
-100.89
-71.04
-37.16
-3.85
25.05
47.40
62.82
72.29
77.21
78.86
78.00
75.14
70.85
65.95
61.55
58.67
57.86
58.88
60.76
62.29
62.44
60.87
57.91
54.32
50.78
47.42
43.70
38.64
31.29
21.32
9.28
-3.60
-15.76
-25.98
-33.77
-39.53
-44.27
-49.31
-55.81
-64.58
-75.89
-89.14
-102.80
-114.27
-120.39
-118.19
-105.99
-84.15
-55.16
-22.98
8.17
34.88
55.31
69.15
77.17
80.57
80.48
77.86
73.45
68.07
62.64
58.10
55.23
54.40
55.40
57.50
59.69
60.99
60.77
58.85
55.48
51.05
45.86
40.01
33.32
25.52
16.34
5.82
-5.66
-17.35
-28.39
-37.95
-45.58
-51.36
-55.94
-60.39
-65.99
-73.88
-84.61
-97.75
-111.63
-123.41
-129.72
-127.51
-115.18
-93.17
-64.05
-31.79
-0.64
25.96
46.07
59.20
66.00
67.63
65.29
60.18
53.47
46.45
40.37
36.19
34.33
34.49
35.85
37.44
38.52
38.79
38.26
36.94
34.64
30.83
24.93
16.60
6.06
-5.88
-18.06
-29.28
-38.70
-46.14
-52.10
-57.67
-64.20
-72.79
-83.67
-95.80
-106.76
-113.32
-112.35
-101.94
-82.15
-55.12
-24.46
5.71
31.83
51.64
64.39
70.52
71.30
68.19
62.58
55.69
48.51
41.91
36.55
32.87
30.96
30.56
31.11
31.91
32.32
31.83
30.11
26.95
22.16
15.63
7.38
-2.36
-13.02
-23.85
-34.03
-42.99
-50.73
-57.95
-65.87
-75.74
-88.06
-101.95
-114.93
-123.47
-123.99
-114.21
-94.08
-65.86
-33.44
-1.17
27.37
50.05
66.20
76.25
81.11
81.85
79.46
75.01
69.62
64.45
60.45
58.16
57.55
58.05
58.79
58.91
57.89
55.65
52.45
48.65
44.37
39.33
32.96
24.67
14.17
1.81
-11.48
-24.40
-35.75
-44.87
-51.90
-57.85
-64.30
-72.85
-84.44
-98.79
-114.02
-126.93
-133.72
-131.14
-117.57
-93.72
-62.59
-28.56
3.82
31.06
51.42
64.89
72.60
76.05
76.53
74.92
71.82
67.81
63.66
60.17
57.99
57.32
57.82
58.66
58.97
58.15
56.09
53.22
50.13
47.19
44.22
40.49
35.04
27.09
16.51
3.95
-9.36
-22.04
-32.98
-41.69
-48.39
-53.88
-59.36
-66.13
-75.27
-87.19
-101.23
-115.44
-126.74
-131.64
-127.22
-112.17
-87.44
-56.02
-22.15
9.87
36.86
57.20
70.80
78.54
81.66
81.30
78.44
73.96
68.75
63.82
60.05
58.09
58.06
59.47
61.42
62.85
62.92
61.24
57.98
53.61
48.57
43.04
36.77
29.26
20.06
9.10
-3.15
-15.76
-27.61
-37.76
-45.75
-51.81
-56.73
-61.67
-67.90
-76.40
-87.56
-100.88
-114.75
-126.59
-133.27
-131.87
-120.62
-99.61
-71.00
-38.52
-6.47
21.51
43.12
57.66
65.67
68.30
66.87
62.62
56.77
50.51
45.00
41.08
39.13
38.94
39.85
41.07
41.94
42.16
41.71
40.69
39.07
36.54
32.53
26.42
17.91
7.25
-4.62
-16.40
-26.86
-35.34
-42.00
-47.83
-54.29
-62.74
-73.84
-87.13
-100.74
-111.65
-116.38
-112.01
-97.24
-73.06
-42.56
-10.04
20.21
45.12
63.27
74.78
80.62
81.90
79.57
74.43
67.37
59.56
52.43
47.33
45.11
45.72
48.34
51.59
54.10
54.93
53.87
51.26
47.65
43.42
38.47
32.33
24.39
