1625762492.00
64.000000
-0.00
-0.00
-0.00
-0.00
-0.00
-0.00
-0.00
-0.00
-0.00
-0.00
0.00
0.01
0.01
-0.00
-0.03
-0.05
-0.05
0.00
0.13
0.36
0.66
1.01
1.37
1.72
2.06
2.40
2.79
3.24
3.80
4.42
5.06
5.66
6.20
6.68
7.15
7.68
8.31
9.14
10.09
11.04
11.88
12.56
13.14
13.76
14.65
15.96
17.91
20.32
22.90
25.38
27.58
29.57
31.68
34.32
37.81
42.54
48.15
54.10
59.83
64.97
69.58
74.14
79.34
85.71
93.76
103.00
112.62
121.73
129.77
136.75
143.30
150.75
157.77
166.64
177.95
191.79
206.97
220.57
228.25
225.36
208.53
176.87
132.76
80.05
23.07
-34.94
-92.44
-149.16
-205.23
-260.37
-313.74
-363.88
-409.84
-450.91
-486.50
-515.74
-537.22
-549.21
-549.94
-538.33
-514.15
-478.59
-433.77
-382.30
-326.83
-269.60
-212.34
-156.31
-102.54
-51.90
-5.37
36.18
72.10
102.09
126.31
145.27
159.66
170.20
177.51
181.99
183.93
183.54
181.11
176.99
171.59
165.30
158.49
151.40
144.16
136.85
129.52
122.20
114.96
107.88
101.01
94.43
88.15
82.19
76.57
71.29
66.37
61.81
57.63
53.82
50.39
47.33
44.63
42.28
40.28
38.63
37.33
36.39
35.79
35.52
35.54
35.78
36.17
36.56
36.81
36.76
36.21
35.01
33.02
30.16
26.42
21.86
16.57
10.73
4.58
-1.61
-7.55
-12.99
-17.71
-21.53
-24.35
-26.11
-26.83
-26.60
-25.52
-23.74
-21.42
-18.75
-15.86
-12.90
-9.99
-7.19
-4.60
-2.26
-0.19
1.63
3.24
4.73
6.17
7.70
9.43
11.39
13.67
16.31
19.38
22.89
26.85
31.26
36.08
41.28
46.68
52.08
57.37
62.43
67.20
71.67
75.90
79.97
84.05
88.08
92.04
96.00
100.00
104.10
108.35
112.78
117.47
122.46
127.43
132.14
136.34
139.77
142.14
143.05
141.97
138.15
133.09
127.31
121.18
114.94
108.78
102.81
97.13
91.86
87.09
82.94
79.16
75.57
72.00
68.29
64.36
60.16
55.76
51.30
47.00
42.81
38.72
34.70
30.67
26.61
22.47
18.30
14.21
10.30
6.51
2.71
-1.26
-5.58
-10.36
-15.58
-21.03
-26.33
-31.06
-34.99
-38.10
-40.64
-43.08
-45.81
-49.05
-52.63
-56.08
-58.87
-60.74
-61.99
-63.42
-66.21
-71.36
-79.33
-89.72
-101.47
-113.26
-124.22
-134.32
-144.52
-156.33
-171.07
-189.13
-209.63
-230.77
-250.43
-267.13
-280.55
-291.44
-301.35
-312.12
-325.53
-342.99
-364.89
-389.51
-412.24
-425.92
-422.87
-397.94
-350.98
-287.46
-216.65
-148.15
-88.81
-41.18
-4.30
24.26
46.47
63.08
74.07
79.81
81.79
82.42
84.08
88.18
94.76
102.54
109.79
115.00
117.48
117.45
115.61
112.49
107.85
100.58
89.01
71.77
48.51
20.41
-9.91
-39.02
-63.55
-81.20
-91.36
-95.01
-94.09
-90.39
-84.71
-76.73
-65.57
-50.69
-32.63
-13.11
5.57
21.35
33.10
40.69
44.62
45.46
43.53
39.08
32.69
25.49
18.83
13.78
10.62
8.84
7.45
5.58
2.78
-0.88
-5.16
-10.01
-15.75
-22.95
-32.11
-43.09
-54.91
-65.76
-73.59
-76.73
-74.54
-67.55
-57.12
-44.83
-31.91
-19.17
-7.29
2.81
10.20
14.54
16.67
18.45
21.99
28.40
36.98
45.57
51.76
54.51
54.90
55.50
58.81
65.61
74.42
82.31
86.63
86.41
82.75
77.85
73.64
70.80
68.82
66.83
64.33
61.44
58.35
54.80
50.17
44.08
36.97
30.07
24.70
21.40
19.59
17.85
14.67
9.07
0.85
-9.70
-22.06
-35.59
-49.40
-62.32
-73.10
-80.88
-85.62
-87.97
-88.92
-89.32
-89.78
-90.76
-92.65
-95.64
-99.29
-102.40
-103.30
-100.58
-93.57
-82.61
-68.64
-52.65
-35.37
-17.42
0.29
16.47
29.93
40.60
50.35
62.83
82.33
111.70
150.81
196.01
241.10
279.35
305.77
318.59
319.32
311.62
299.53
285.96
271.77
256.12
237.24
213.53
184.29
149.92
111.87
72.43
34.48
1.20
-24.71
-42.03
-51.91
-57.99
-65.26
-77.91
-97.41
-121.82
-146.69
-167.21
-180.13
-184.85
-183.07
-177.38
-170.03
-162.33
-155.08
-149.13
-145.79
-146.51
-151.92
-161.26
-172.21
-181.20
-184.15
-177.73
-161.00
-136.59
-110.45
-89.55
-78.33
-75.59
-73.91
-62.27
-30.78
24.70
100.58
186.97
271.22
341.92
391.50
416.89
418.88
401.27
369.78
331.04
290.97
253.10
217.67
182.50
144.87
103.43
59.37
15.79
-23.81
-57.19
-83.95
-105.06
-121.63
-134.11
-142.18
-145.57
-144.91
-142.04
-139.52
-139.40
-142.13
-146.19
-148.82
-147.20
-139.80
-126.92
-110.51
-93.17
-76.94
-62.45
-48.93
-34.89
-19.20
-1.82
16.01
32.38
45.48
54.30
58.81
59.73
58.01
54.46
49.55
43.46
36.18
27.71
18.30
8.49
-1.04
-9.67
-17.08
-23.49
-29.39
-35.44
-42.23
-50.30
-60.28
-72.80
-88.30
-106.54
-126.53
-146.57
-164.70
-179.02
-187.67
-188.57
-179.22
-157.12
-120.89
-71.65
-13.57
46.74
102.06
146.65
177.67
195.31
201.78
200.15
193.26
183.49
172.68
162.35
153.60
146.82
141.60
136.67
130.29
120.71
106.77
88.25
66.01
41.92
18.37
-2.36
-18.73
-30.28
-37.56
-41.65
-43.67
-44.31
-43.79
-42.17
-39.66
-36.83
-34.51
-33.24
-32.92
-32.69
-31.35
-27.84
-21.96
-14.45
-6.61
0.25
5.50
9.22
12.09
14.97
18.62
23.48
29.73
37.28
45.65
54.17
61.95
68.15
72.31
74.50
75.35
75.94
77.47
80.94
86.97
95.56
106.17
117.61
128.07
135.24
136.78
131.15
118.27
100.06
79.79
60.87
45.44
33.57
23.69
13.77
2.77
-8.92
-19.99
-29.65
-38.53
-48.63
-62.20
-80.39
-102.54
-126.49
-149.61
-169.68
-185.37
-196.04
-201.55
-202.00
-197.77
-189.73
-178.99
-166.79
-154.08
-141.39
-129.02
-117.22
-106.31
-96.57
-88.09
-80.61
-73.65
-66.65
-59.23
-51.36
-43.47
-36.27
-30.41
-26.13
-23.09
-20.58
-17.94
-15.15
-12.97
-12.60
-15.03
-20.32
-27.36
-34.17
-38.72
-39.64
-36.72
-30.80
-23.30
-15.78
-9.41
-4.88
-2.45
-2.03
-3.30
-5.84
-9.17
-12.72
-16.02
-18.60
-20.18
-20.59
-19.79
-17.80
-14.66
-10.41
-5.15
0.83
6.88
12.11
15.57
16.55
15.04
11.75
8.04
5.54
5.63
9.15
16.05
25.46
36.00
46.12
54.55
60.52
63.82
64.70
63.75
61.69
59.22
56.69
53.86
49.81
43.25
33.04
18.84
1.47
-17.38
-35.60
-51.12
-61.92
-65.93
-61.27
-47.16
-25.10
0.69
24.15
39.49
43.57
37.19
24.73
11.97
3.71
2.09
6.28
13.49
20.45
24.62
24.74
20.95
14.53
7.54
2.37
0.92
3.92
10.58
18.75
25.57
28.69
26.87
20.59
11.59
2.18
-5.68
-10.90
-13.32
-13.35
-11.48
-8.05
-3.32
2.29
7.99
12.68
15.30
15.19
12.54
8.36
4.25
1.73
1.65
3.82
7.21
10.60
13.03
14.37
15.09
15.89
17.21
18.88
20.30
20.76
19.89
17.80
15.07
12.45
10.55
9.48
8.88
8.06
6.28
3.32
-0.40
-3.77
-5.40
-4.14
0.47
7.99
17.13
26.11
33.20
37.24
37.91
35.78
31.89
27.33
22.85
18.69
14.80
11.14
7.80
4.83
1.82
-2.06
-7.79
-15.74
-25.31
-34.88
-42.69
-47.76
-50.35
-51.62
-52.79
-54.17
-54.91
-53.52
-48.76
-40.35
-29.12
-16.54
-3.99
7.49
17.30
24.95
29.90
31.64
29.94
25.11
18.01
9.91
2.12
-4.47
-9.52
-13.34
-16.68
-20.39
-25.13
-31.13
-38.26
-45.91
-53.36
-59.86
-64.80
-67.71
-68.19
-65.92
-60.72
-52.69
-42.45
-31.06
-19.88
-10.22
-3.02
1.42
3.46
3.86
3.52
3.05
2.62
2.00
0.80
-1.23
-3.93
-6.81
-9.27
-10.87
-11.64
-11.99
-12.55
-13.86
-16.21
-19.51
-23.42
-27.35
-30.66
-32.68
-32.90
-31.05
-27.28
-22.09
-16.30
-10.68
-5.89
-2.22
0.35
1.98
2.94
3.44
3.49
2.96
1.66
-0.48
-3.26
-6.18
-8.50
-9.63
-9.34
-8.07
-6.86
-7.00
-9.58
-14.98
-22.70
-31.41
-39.37
-45.04
-47.55
-47.03
-44.40
-41.01
-37.97
-35.67
-33.64
-30.82
-26.19
-19.55
-12.04
-5.97
-3.99
-7.78
-17.13
-29.79
-42.23
-50.97
-53.76
-49.84
-39.84
-25.29
-8.40
7.95
20.59
27.20
27.71
25.05
24.15
29.43
42.36
60.66
79.83
96.29
109.69
123.06
140.28
162.99
188.63
211.44
225.36
227.04
217.11
199.24
177.70
155.43
133.54
112.08
91.24
71.89
55.19
41.88
31.77
23.80
16.60
9.15
0.91
-8.12
-17.73
-27.47
-36.55
-43.79
-47.91
-48.16
-44.80
-39.12
-32.95
-27.72
-23.90
-20.96
-18.01
-14.51
-10.75
-7.66
-6.39
-7.67
-11.64
-17.81
-25.37
-33.44
-41.24
-48.08
-53.48
-57.26
-59.66
-61.34
-63.17
-65.91
-69.92
-75.06
-80.72
-86.06
-90.24
-92.55
-92.49
-89.72
-84.23
-76.37
-66.81
-56.45
-46.16
-36.53
-27.86
-20.18
-13.48
-7.81
-3.26
0.27
3.17
6.12
9.69
14.03
18.72
22.91
25.80
26.97
26.38
24.24
20.69
15.70
9.29
1.78
-6.04
-13.00
-17.91
-19.92
-18.73
-14.53
-7.95
0.10
8.51
16.15
22.05
25.78
27.50
27.95
27.90
27.89
27.93
27.61
26.40
24.03
20.71
16.94
13.30
10.07
7.10
3.89
-0.20
-5.63
-12.48
-20.44
-28.88
-36.96
-43.83
-48.74
-51.17
-50.96
-48.29
-43.60
-37.46
-30.47
-23.02
-15.35
-7.71
-0.30
6.52
12.38
16.99
20.32
22.65
24.44
26.08
27.67
29.02
29.74
29.42
27.94
25.44
22.23
18.63
14.72
10.35
5.32
-0.42
-6.57
-12.42
-17.10
-19.79
-20.07
-17.96
-14.03
-9.06
-3.86
0.99
5.29
9.06
12.43
15.38
17.71
19.15
19.54
18.96
17.66
16.01
14.20
12.17
9.72
6.73
3.33
-0.08
-2.94
-4.90
-6.06
-7.01
-8.56
-11.40
-15.71
-20.96
-25.99
-29.38
-29.94
-27.05
-20.88
-12.22
-2.18
8.24
18.31
27.66
36.22
43.93
50.66
56.16
60.13
62.41
63.04
62.27
60.49
58.00
54.95
51.40
47.43
43.18
38.91
34.79
30.72
26.26
20.74
13.54
4.55
-5.66
-15.83
-24.34
-29.72
-31.21
-29.02
-24.28
-18.57
-13.26
-8.92
-5.15
-0.93
4.65
11.65
18.93
24.65
27.03
25.39
20.61
14.78
10.21
8.36
9.18
11.18
12.26
10.73
5.81
-2.38
-12.98
-24.30
-33.60
-37.02
-30.71
-12.84
14.44
44.54
68.46
78.37
71.16
49.80
21.80
-4.49
-23.40
-33.50
-36.74
-36.04
-33.42
-29.31
-23.64
-16.96
-10.83
-7.26
-7.65
-11.99
-18.79
-25.75
-30.69
-32.42
-31.06
-27.91
-24.83
-23.42
-24.53
-27.86
-32.28
-36.34
-38.83
-39.28
-37.88
-35.25
-31.99
-28.46
-24.61
-20.07
-14.36
-7.01
2.21
13.08
24.93
36.78
47.61
56.64
63.49
68.13
70.66
71.17
69.65
66.07
60.50
53.24
44.80
35.79
26.78
18.13
9.97
2.18
-5.49
-13.38
-21.83
-31.00
-40.76
-50.50
-59.22
-65.61
-68.42
-66.72
-60.28
-49.74
-36.45
-22.14
-8.45
3.56
13.64
22.19
29.83
36.93
43.35
48.65
52.46
54.88
56.39
57.60
58.77
59.74
60.17
59.95
59.40
59.06
59.31
60.00
60.37
59.35
55.97
49.62
40.29
28.49
15.42
2.92
-6.86
-11.89
-10.83
-3.68
7.98
21.35
33.30
41.55
45.25
44.97
41.91
37.03
30.33
20.97
7.91
-9.04
-28.48
-47.26
-61.38
-67.43
-63.94
-52.12
-35.50
-18.68
-5.69
1.15
1.83
-1.93
-7.68
-13.50
-18.55
-22.68
-25.97
-28.05
-28.03
-24.98
-18.52
-9.19
1.55
11.84
19.95
24.90
26.57
25.58
22.88
19.34
15.45
11.47
7.59
4.29
2.20
1.85
3.21
5.53
7.49
7.63
5.03
-0.30
-7.54
-15.36
-22.70
-29.06
-34.67
-40.08
-45.81
-51.92
-58.06
-63.49
-67.42
-69.25
-68.74
-66.04
-61.66
-56.31
-50.76
-45.65
-41.46
-38.46
-36.78
-36.53
-37.68
-40.11
-43.47
-47.14
-50.48
-52.94
-54.25
-54.55
-54.23
-53.81
-53.65
-53.91
-54.46
-54.97
-55.07
-54.31
-52.35
-48.79
-43.18
-34.91
-23.56
-9.00
8.33
27.37
46.90
65.84
83.70
100.28
115.33
128.06
137.17
141.35
140.13
134.50
126.77
119.92
116.09
115.55
116.15
113.99
104.94
86.48
58.94
25.59
-8.41
-37.71
-58.26
-68.00
-66.97
-56.77
-40.15
-20.45
-1.48
13.17
20.89
20.75
13.77
2.39
-10.31
-21.56
-29.41
-32.88
-31.92
-27.48
-21.41
-16.06
-13.47
-14.44
-18.09
-22.22
-24.39
-23.22
-19.02
-13.76
-10.00
-9.75
-13.68
-21.22
-31.10
-42.06
-53.08
-63.21
-71.25
-75.74
-75.08
-68.22
-55.08
-36.75
-15.21
7.19
28.25
46.37
60.68
71.16
78.53
84.12
89.37
95.38
102.39
109.61
115.54
118.35
116.31
108.19
93.46
72.78
48.06
22.35
-0.73
-18.10
-28.44
-32.78
-34.09
-35.87
-40.44
-47.82
-55.63
-60.29
-58.57
-49.13
-33.10
-13.41
6.37
23.71
38.01
50.16
61.37
71.69
79.62
82.81
79.72
70.83
58.89
47.65
40.04
36.64
35.53
33.49
27.69
17.01
2.12
-15.14
-32.86
-49.79
-65.33
-79.21
-91.04
-99.91
-104.52
-103.67
-96.65
-83.50
-64.98
-42.52
-17.96
6.80
30.39
52.18
72.04
89.68
104.07
113.01
113.39
102.30
78.43
43.14
0.41
-44.55
-87.14
-124.92
-157.79
-186.96
-213.28
-236.08
-253.21
-262.11
-261.28
-251.22
-234.61
-215.24
-196.36
-179.48
-164.02
-148.09
-129.69
-107.85
-82.87
-56.13
-29.20
-3.16
21.61
45.20
67.71
88.82
107.70
123.34
134.75
141.11
141.71
135.90
123.21
103.83
79.32
52.80
28.61
11.00
2.70
3.76
11.52
21.69
30.27
35.29
37.73
41.02
49.28
65.69
91.13
123.95
160.89
198.13
232.29
260.73
281.36
292.51
293.04
282.71
262.64
235.34
204.21
172.56
142.75
115.78
91.59
69.71
49.82
31.93
16.26
2.78
-9.00
-20.02
-31.38
-43.83
-57.43
-71.54
-85.03
-96.68
-105.54
-111.04
-112.76
-110.42
-103.99
-94.10
-82.25
-70.77
-62.06
-57.63
-57.43
-59.82
-62.66
-64.39
-64.83
-64.93
-65.99
-68.71
-72.73
-76.99
-80.37
-82.32
-82.94
-82.86
-82.76
-83.09
-84.05
-85.53
-87.25
-88.65
-88.86
-86.72
-81.01
-70.84
-56.04
-37.39
-16.47
4.54
23.56
39.06
50.48
58.24
63.36
66.98
69.89
72.42
74.37
75.43
75.26
73.76
70.94
66.78
61.21
54.04
45.19
34.89
23.63
12.04
0.51
-10.87
-22.34
-34.03
-45.64
-56.09
-63.85
-67.37
-65.85
-59.55
-49.84
-38.64
-27.70
-18.08
-10.10
-3.60
1.64
5.59
8.01
8.73
7.89
6.00
3.76
1.73
0.07
-1.49
-3.47
-6.38
-10.57
-16.10
-23.05
-31.52
-41.65
-53.24
-65.55
-77.07
-85.83
-89.86
-87.85
-79.58
-65.95
-48.63
-29.49
-10.13
8.35
25.30
40.14
52.25
60.91
65.47
65.67
61.84
55.00
46.53
37.77
29.50
21.84
14.27
6.16
-2.82
-12.48
-22.24
-31.56
-40.31
-48.93
-58.10
-68.13
-78.46
-87.68
-93.89
-95.54
-91.99
-83.72
-71.96
-58.12
-43.53
-29.49
-17.48
-9.21
-6.00
-7.76
-12.23
-15.17
-11.72
1.59
25.12
55.71
88.02
117.02
140.17
157.88
172.22
184.51
193.87
197.62
193.38
181.28
164.55
148.35
137.28
133.53
136.42
143.44
151.72
158.85
162.88
161.96
154.44
139.75
119.28
96.32
75.03
58.61
48.09
42.21
38.31
33.76
26.90
17.40
5.89
-6.47
-18.80
-30.78
-42.65
-54.82
-67.29
-79.37
-90.15
-99.06
-106.43
-113.36
-120.91
-129.17
-136.92
-142.08
-142.94
-139.28
-132.76
-126.28
-122.75
-123.75
-128.88
-136.07
-142.50
-145.83
-145.08
-140.84
-134.72
-128.43
-122.67
-116.83
-109.40
-98.82
-84.40
-66.75
-47.35
-27.90
-9.79
6.00
18.70
27.51
31.76
31.36
27.29
21.48
16.25
13.55
14.41
18.90
26.42
35.83
45.69
54.30
60.09
62.18
60.74
56.99
52.74
49.67
48.81
50.37
53.82
57.94
60.87
60.17
53.20
38.16
15.13
-13.36
-42.79
-68.30
-86.59
-96.80
-100.16
-98.70
-93.74
-85.32
-72.61
-55.17
-33.97
-11.63
8.43
23.48
32.70
37.46
40.48
44.41
50.62
58.84
67.57
75.06
80.22
82.80
83.36
82.59
80.93
78.40
74.74
69.69
63.18
55.49
47.13
38.75
30.80
23.39
16.24
8.86
1.01
-7.08
-14.52
-20.18
-23.09
-22.87
-19.90
-15.02
-9.24
-3.33
2.25
7.34
11.85
15.60
18.25
19.37
18.61
15.77
11.06
5.00
-1.59
-7.88
-13.16
-17.02
-19.60
-21.53
-23.97
-28.22
-35.28
-45.27
-57.20
-69.17
-78.93
-84.51
-84.66
-78.90
-67.33
-50.48
-29.52
-6.35
16.41
35.92
50.10
58.28
61.31
60.96
59.15
57.16
55.67
54.94
55.17
56.45
58.45
60.27
60.75
59.20
56.00
52.70
51.27
52.85
56.87
61.01
62.16
57.64
46.28
28.62
6.54
-17.58
-41.40
-62.94
-80.87
-94.60
-104.65
-112.82
-121.96
-135.10
-154.09
-178.62
-206.12
-232.76
-255.00
-270.75
-279.71
-282.74
-281.01
-275.42
-266.47
-254.44
-239.45
-220.86
-196.57
-163.07
-116.63
-55.81
16.08
90.29
154.60
197.47
212.57
201.15
171.01
132.78
95.54
64.07
39.38
21.48
12.21
15.74
36.41
74.99
126.27
179.65
222.78
246.31
247.29
229.34
200.04
167.05
135.22
106.00
78.58
51.90
26.20
3.14
-15.11
-27.12
-33.11
-34.84
-34.75
-34.85
-35.82
-36.79
-35.95
-31.53
-22.84
-10.70
2.82
15.38
25.34
32.38
37.34
41.54
45.92
50.56
54.80
57.67
58.46
57.04
53.71
48.96
43.11
36.27
28.31
19.18
9.06
-1.53
-11.81
-21.00
-28.58
-34.39
-38.65
-41.67
-43.59
-44.14
-42.79
-38.95
-32.45
-23.66
-13.50
-2.99
7.06
16.21
24.37
31.52
37.45
41.71
43.80
43.37
40.43
35.43
29.11
22.27
15.58
9.44
4.05
-0.57
-4.52
-7.96
-11.19
-14.70
-19.05
-24.65
-31.52
-39.08
-46.22
-51.46
-53.50
-51.59
-45.83
-37.11
-26.81
-16.31
-6.60
1.87
9.19
15.59
21.23
25.94
29.34
31.05
30.93
29.22
26.38
22.94
19.25
15.49
11.68
7.77
3.70
-0.60
-5.22
-10.28
-15.91
-22.16
-28.86
-35.46
-41.14
-44.86
-45.67
-43.02
-36.90
-27.89
-16.98
-5.26
6.42
17.40
27.30
35.72
42.22
46.37
47.93
47.00
43.98
39.46
34.06
28.30
22.50
16.81
11.29
5.92
0.63
-4.62
-9.89
-15.29
-20.94
-26.98
-33.45
-40.09
-46.20
-50.69
-52.38
-50.32
-44.24
-34.54
-22.14
-8.17
6.39
20.71
34.11
45.92
55.57
62.65
67.08
69.10
69.14
67.63
64.88
61.11
56.53
51.45
46.18
41.01
36.01
31.04
25.85
20.16
13.73
6.39
-1.94
-11.18
-20.91
-30.27
-37.99
-42.73
-43.49
-40.01
-32.87
-23.27
-12.59
-1.93
8.00
16.85
24.35
30.22
34.16
36.00
35.90
34.26
31.55
28.19
24.37
20.19
15.76
11.33
7.22
3.67
0.68
-2.03
-4.98
-8.79
-14.07
-21.23
-30.32
-40.89
-51.79
-61.37
-67.76
-69.47
-65.87
-57.51
-45.96
-33.20
-21.05
-10.57
-2.12
4.47
9.46
12.98
14.93
15.21
13.86
11.15
7.62
3.79
0.14
-3.06
-5.63
-7.43
-8.40
-8.58
-8.29
-8.16
-9.11
-11.96
-17.07
-24.06
-31.65
-38.08
-41.60
-41.13
-36.51
-28.46
-18.12
-6.64
5.14
16.65
27.38
36.69
43.75
47.85
48.53
45.84
40.30
32.80
24.37
15.97
8.30
1.72
-3.79
-8.55
-12.95
-17.38
-22.08
-27.20
-32.92
-39.42
-46.86
-55.09
-63.52
-71.09
-76.49
-78.51
-76.44
-70.18
-60.29
-47.69
-33.46
-18.66
-4.16
9.28
21.00
30.52
37.49
41.73
43.31
42.47
39.65
35.43
30.45
25.33
20.59
16.57
13.39
11.03
9.30
7.89
6.35
4.16
0.71
-4.45
-11.40
-19.69
-28.27
-35.70
-40.55
-41.73
-38.84
-32.24
-22.87
-11.94
-0.60
10.33
20.32
29.06
36.29
41.68
44.88
45.73
44.33
41.11
36.72
31.85
27.04
22.57
18.54
14.93
11.70
8.87
6.46
4.39
2.50
0.45
-2.30
-6.30
-11.95
-19.25
-27.61
-35.83
-42.38
-45.79
-45.12
-40.21
-31.73
-20.85
-8.87
3.07
14.13
23.73
31.38
36.71
39.47
39.67
37.67
34.07
29.58
24.82
20.23
16.09
12.54
9.69
7.50
5.78
4.22
2.47
0.24
-2.66
-6.38
-11.06
-16.81
-23.56
-30.82
-37.61
-42.65
-44.67
-42.90
-37.26
-28.39
-17.36
-5.37
6.48
17.34
26.59
33.83
38.85
41.64
42.38
41.37
39.04
35.90
32.44
29.06
26.04
23.46
21.26
19.26
17.31
15.20
12.76
9.72
5.82
0.81
-5.48
-12.94
-21.15
-29.27
-36.17
-40.60
-41.55
-38.47
-31.52
-21.51
-9.60
2.93
15.04
25.96
35.17
42.26
46.96
49.16
49.03
47.03
43.87
40.24
36.64
33.25
30.00
26.65
23.08
19.35
15.66
12.23
9.16
6.30
3.23
-0.59
-5.67
-12.19
-19.85
-27.75
-34.58
-38.86
-39.49
-36.05
-28.90
-19.05
-7.66
4.43
16.92
29.81
43.07
56.17
68.14
77.80
84.35
87.79
89.04
89.50
90.45
92.52
95.53
98.68
101.21
102.75
103.54
104.01
104.39
104.49
103.91
102.38
100.00
97.13
93.78
89.27
82.24
71.29
55.93
37.22
17.44
-0.85
-15.89
-27.46
-36.61
-44.78
-52.88
-60.91
-68.31
-74.59
-79.88
-84.68
-89.52
-94.28
-98.09
-99.93
-99.19
-96.37
-92.99
-90.89
-91.35
-94.48
-99.17
-103.74
-106.81
-107.99
-107.87
-107.57
-108.14
-110.08
-112.99
-115.53
-115.45
-109.69
-94.99
-69.15
-32.68
10.04
51.36
82.60
97.44
94.35
77.09
52.55
27.51
6.11
-10.78
-24.03
-34.17
-40.11
-39.64
-31.07
-15.01
5.26
24.82
39.15
45.80
44.95
38.63
29.49
19.39
8.73
-3.26
-17.68
-34.90
-53.95
-72.64
-88.19
-98.34
-101.97
-99.42
-92.01
-81.43
-69.07
-55.79
-41.91
-27.66
-13.53
-0.44
10.48
18.30
22.59
23.66
22.30
19.51
16.10
12.54
8.96
5.34
1.70
-1.83
-5.06
-7.82
-10.20
-12.52
-15.29
-19.01
-24.06
-30.46
-37.84
-45.45
-52.19
-56.84
-58.31
-55.89
-49.53
-39.83
-27.99
-15.38
-3.32
7.27
15.87
22.34
26.68
29.07
29.73
29.03
27.42
25.27
22.85
20.27
17.47
14.42
11.20
8.08
5.35
3.29
1.95
1.16
0.52
-0.50
-2.45
-5.80
-10.79
-17.24
-24.47
-31.26
-36.10
-37.51
-34.59
-27.34
-16.75
-4.48
7.63
18.25
26.74
33.17
37.96
41.38
43.40
43.70
41.97
38.40
33.67
28.82
24.79
22.04
20.31
18.84
16.87
14.07
10.70
7.39
4.76
2.94
1.48
-0.50
-3.83
-8.95
-15.63
-22.98
-29.73
-34.55
-36.35
-34.56
-29.21
-20.92
-10.72
0.19
10.64
19.64
26.47
30.76
32.45
31.88
29.67
26.61
23.38
20.40
17.76
15.29
12.76
10.08
7.36
4.79
2.54
0.64
-1.09
-2.91
-5.15
-8.11
-12.05
-17.12
-23.21
-29.89
-36.23
-41.05
-43.07
-41.46
-36.03
-27.37
-16.61
-5.08
6.00
15.74
23.57
29.18
32.48
33.69
33.22
31.65
29.54
27.27
24.92
22.35
19.45
16.21
12.83
9.70
7.15
5.32
4.05
2.91
1.26
-1.43
-5.59
-11.30
-18.24
-25.67
-32.45
-37.23
-38.75
-36.29
-29.82
-20.13
-8.48
3.77
15.53
26.14
35.26
42.62
47.95
50.99
51.66
50.24
47.30
43.54
39.62
35.95
32.70
29.88
27.41
25.17
23.06
20.97
18.79
16.39
13.59
10.12
5.54
-0.49
-8.05
-16.67
-25.27
-32.40
-36.67
-37.19
-33.81
-27.01
-17.62
-6.56
5.36
17.33
28.43
37.74
44.39
47.95
48.56
46.87
43.76
40.00
36.02
31.97
27.81
23.53
19.20
14.99
11.08
7.56
4.43
1.57
-1.18
-4.06
-7.36
-11.42
-16.54
-22.81
-29.92
-37.18
-43.57
-48.01
-49.59
-47.77
-42.51
-34.15
-23.44
-11.31
1.16
12.89
22.93
30.55
35.39
37.45
37.13
35.04
31.89
28.27
24.57
20.91
17.31
13.77
10.40
7.32
4.68
2.51
0.65
-1.13
-3.13
-5.70
-9.20
-13.95
-20.03
-27.11
-34.32
-40.33
-43.73
-43.43
-39.03
-30.91
-20.02
-7.56
5.31
17.60
28.49
37.29
43.48
46.74
47.08
44.92
40.96
36.02
30.86
25.97
21.56
17.59
13.97
10.60
7.49
4.71
2.25
-0.03
-2.42
-5.36
-9.29
-14.50
-20.97
-28.32
-35.79
-42.33
-46.84
-48.32
-46.17
-40.24
-30.99
-19.30
-6.37
6.59
18.54
28.65
36.40
41.50
43.95
43.98
42.10
38.93
35.10
31.10
27.21
23.55
20.16
17.07
14.30
11.81
9.45
7.00
4.27
1.14
-2.48
-6.71
-11.78
-17.85
-24.85
-32.16
-38.64
-42.89
-43.69
-40.45
-33.40
-23.45
-11.84
0.19
11.61
21.68
29.88
35.81
39.24
40.22
39.02
36.18
32.36
28.15
24.03
20.25
16.84
13.64
10.48
7.21
3.85
0.56
-2.49
-5.19
-7.62
-10.05
-12.86
-16.46
-21.15
-26.88
-33.17
-39.01
-43.09
-44.14
-41.41
-34.88
-25.33
-14.02
-2.22
9.05
19.14
27.64
34.18
38.40
40.06
39.25
36.46
32.51
28.28
24.39
21.07
18.17
15.35
12.38
9.28
6.40
4.17
2.84
2.36
2.24
1.74
0.05
-3.42
-8.76
-15.43
-22.26
-27.61
-29.88
-28.03
-21.93
-12.46
-1.11
10.65
21.96
32.71
43.33
54.14
64.89
74.66
82.22
86.56
87.42
85.42
81.90
78.66
77.75
81.27
90.99
107.80
130.84
156.97
181.00
197.07
200.58
189.97
167.36
137.63
106.45
78.36
55.71
38.88
27.44
21.06
19.83
23.72
31.74
41.70
50.58
55.68
55.47
50.12
40.88
29.08
15.36
-0.64
-19.71
-42.18
-66.96
-91.42
-111.89
-125.01
-129.01
-124.49
-114.34
-102.70
-93.40
-88.72
-88.77
-91.92
-95.84
-98.63
-99.47
-98.46
-96.06
-92.38
-86.89
-78.76
-67.40
-53.05
-36.70
-19.81
-3.73
10.82
23.76
35.44
46.21
56.14
64.94
72.02
76.72
78.48
77.06
72.62
65.67
57.05
47.72
38.57
30.30
23.29
17.55
12.60
7.65
1.74
-5.84
-15.37
-26.49
-38.25
-49.33
-58.30
-63.95
-65.66
-63.54
-58.43
-51.70
-44.88
-39.13
-34.93
-31.97
-29.41
-26.31
-22.16
-17.03
-11.57
-6.65
-2.98
-0.93
-0.50
-1.42
-3.31
-5.88
-9.01
-12.67
-16.86
-21.50
-26.38
-31.21
-35.68
-39.63
-43.10
-46.36
-49.75
-53.42
-57.23
-60.66
-62.96
-63.44
-61.81
-58.29
-53.48
-48.01
-42.24
-36.14
-29.54
-22.39
-15.06
-8.28
-2.87
0.65
2.27
2.38
1.54
0.24
-1.32
-3.14
-5.33
-7.98
-10.96
-13.97
-16.46
-17.82
-17.60
-15.73
-12.73
-9.54
-7.20
-6.39
-7.21
-9.19
-11.73
-14.44
-17.26
-20.22
-23.11
-25.29
-25.83
-24.06
-19.91
-14.11
-7.88
-2.59
0.84
2.03
1.15
-1.28
-4.67
-8.39
-11.84
-14.48
-15.98
-16.30
-15.83
-15.15
-14.85
-15.32
-16.55
-18.31
-20.25
-22.10
-23.83
-25.52
-27.18
-28.71
-29.76
-29.87
-28.61
-25.81
-21.54
-16.04
-9.71
-2.95
3.82
10.23
15.97
20.82
24.66
27.38
28.93
29.28
28.49
26.71
24.17
21.11
17.61
13.62
9.06
3.94
-1.42
-6.58
-11.05
-14.60
-17.35
-19.68
-22.07
-24.86
-28.18
-31.97
-35.99
-39.90
-43.26
-45.51
-46.11
-44.64
-40.91
-35.12
-27.77
-19.57
-11.28
-3.58
3.04
8.25
11.98
14.30
15.44
15.72
15.50
15.07
14.63
14.26
13.93
13.48
12.75
11.52
9.71
7.38
4.75
2.05
-0.57
-3.23
-6.26
-10.06
-14.82
-20.35
-26.05
-31.07
-34.55
-35.96
-35.17
-32.46
-28.27
-23.13
-17.42
-11.48
-5.63
-0.20
4.46
8.00
10.25
11.20
11.03
10.06
8.61
6.93
5.16
3.30
1.29
-0.92
-3.29
-5.70
-8.00
-10.02
-11.76
-13.35
-15.09
-17.32
-20.21
-23.67
-27.32
-30.50
-32.52
-32.84
-31.19
-27.69
-22.70
-16.76
-10.46
-4.32
1.24
5.93
9.62
12.29
13.98
14.76
14.64
13.68
11.94
9.56
6.73
3.70
0.73
-1.96
-4.27
-6.20
-7.91
-9.65
-11.78
-14.69
-18.63
-23.60
-29.20
-34.65
-38.96
-41.15
-40.59
-37.17
-31.32
-23.86
-15.67
-7.46
0.37
7.65
14.25
19.89
24.18
26.73
27.32
26.05
23.32
19.73
15.90
12.33
9.32
6.92
5.02
3.30
1.46
-0.82
-3.68
-7.12
-11.06
-15.49
-20.41
-25.82
-31.45
-36.61
-40.21
-41.11
-38.56
-32.51
-23.70
-13.37
-2.88
6.68
14.52
20.23
23.64
24.87
24.36
22.81
20.99
19.44
18.30
17.28
15.93
13.96
11.40
8.60
5.99
3.85
2.17
0.66
-1.09
-3.45
-6.64
-10.64
-15.23
-20.06
-24.68
-28.61
-31.35
-32.36
-31.08
-27.12
-20.38
-11.25
-0.64
10.24
20.16
28.23
34.03
37.63
39.39
39.69
38.85
37.08
34.55
31.41
27.81
23.81
19.38
14.44
9.00
3.23
-2.48
-7.66
-12.10
-16.01
-20.09
-25.25
-32.13
-40.66
-49.84
-58.12
-63.78
-65.69
-63.51
-57.78
-49.49
-39.78
-29.54
-19.46
-9.99
-1.50
5.62
11.08
14.65
16.30
16.30
15.17
13.57
12.11
11.13
10.58
10.24
9.93
9.77
10.18
11.67
14.39
17.82
20.84
22.04
20.43
15.88
9.29
2.36
-3.05
-5.49
-4.28
0.47
8.11
17.82
28.82
40.42
51.94
62.51
71.20
77.11
79.68
78.83
74.96
68.85
61.42
53.40
45.22
36.95
28.40
19.44
10.26
1.37
-6.55
-13.02
-18.14
-22.57
-27.29
-33.17
-40.57
-49.26
-58.49
-67.23
-74.38
-78.90
-79.98
-77.36
-71.42
-63.30
-54.53
-46.45
-39.68
-33.96
-28.45
-22.43
-15.94
-9.73
-4.95
-2.36
-1.93
-2.80
-3.86
-4.31
-4.09
-3.65
-3.50
-3.73
-3.83
-3.05
-0.87
2.55
6.25
8.79
8.75
5.28
-1.54
-10.57
-19.84
-27.16
-30.75
-29.87
-24.86
-16.83
-6.97
3.93
15.68
28.34
41.69
54.87
66.55
75.44
80.90
83.30
83.71
83.35
82.95
82.35
80.54
76.11
67.81
54.93
37.70
17.19
-4.87
-26.65
-46.83
-65.09
-82.37
-100.45
-121.33
-146.24
-175.21
-206.74
-238.14
-266.02
-286.98
-298.40
-299.29
-290.85
-276.40
-260.42
-246.95
-238.05
-233.15
-229.55
-223.89
-213.56
-197.51
-176.10
-150.61
-122.79
-94.83
-69.24
-48.16
-31.97
-18.04
-0.73
26.52
67.68
120.89
177.76
225.78
253.15
253.60
228.91
188.17
144.29
109.68
92.71
96.10
116.99
148.37
181.10
206.16
216.83
210.32
188.36
156.54
122.54
93.80
75.67
70.41
76.94
91.65
109.61
125.95
137.07
141.34
139.06
131.97
122.35
112.27
103.15
95.66
89.84
85.19
80.89
75.99
69.57
60.87
49.49
35.47
19.34
2.18
-14.50
-29.11
-40.23
-46.98
-49.07
-46.76
-40.68
-31.72
-20.88
-9.22
2.22
12.60
21.42
28.66
34.77
40.49
46.58
53.41
60.76
67.68
72.78
74.68
72.63
66.89
58.76
50.12
42.66
37.17
33.16
29.05
22.70
12.27
-2.98
-22.30
-43.66
-64.35
-81.81
-94.31
-101.19
-102.71
-99.68
-93.11
-83.87
-72.63
-59.70
-45.19
-29.14
-11.73
6.44
24.25
40.21
52.88
61.46
66.08
67.80
68.10
68.23
68.66
69.08
68.68
66.62
62.46
56.19
48.00
37.89
25.50
10.40
-7.43
-27.02
-46.22
-62.11
-71.72
-73.07
-65.74
-50.98
-31.23
-9.29
12.48
32.58
50.33
65.55
78.00
87.15
92.29
92.94
89.29
82.32
73.46
63.99
54.65
45.39
35.66
25.05
13.65
2.19
-8.25
-16.76
-23.05
-27.59
-31.47
-35.94
-42.01
-50.01
-59.45
-69.02
-76.94
-81.46
-81.32
-76.10
-66.32
-53.14
-38.03
-22.39
-7.34
6.36
18.21
27.84
34.92
39.24
40.78
39.84
37.02
33.14
28.91
24.75
20.75
16.83
12.98
9.49
6.94
5.96
6.86
9.37
12.56
15.06
15.38
12.43
5.88
-3.54
-14.11
-23.45
-29.21
-29.78
-24.66
-14.57
-0.95
14.60
30.77
46.64
61.45
74.34
84.25
90.10
91.31
88.04
81.31
72.66
63.64
55.45
48.71
43.57
39.85
37.07
34.31
30.22
23.18
11.80
-4.43
-24.89
-47.89
-71.34
-93.33
-112.50
-128.06
-139.34
-145.57
-145.94
-140.08
-128.46
-112.61
-94.69
-76.88
-60.70
-46.77
-34.93
-24.70
-15.78
-8.29
-2.65
0.67
1.58
0.43
-1.97
-4.71
-6.98
-8.41
-8.99
-8.95
-8.63
-8.28
-8.12
-8.46
-9.75
-12.61
-17.48
-24.30
-32.21
-39.48
-43.98
-43.78
-37.77
-26.12
-10.13
8.23
26.85
43.99
58.46
69.59
77.10
81.11
82.06
80.67
77.79
74.19
70.39
66.60
62.82
58.93
54.86
50.61
46.17
41.61
36.98
32.28
27.40
21.99
15.48
7.29
-2.86
-14.52
-26.35
-36.39
-42.63
-43.68
-39.27
-30.25
-18.16
-4.73
8.61
20.90
31.55
40.15
46.37
49.95
50.80
49.13
45.45
40.43
34.78
29.05
23.59
18.53
13.91
9.76
6.14
3.07
0.50
-1.85
-4.46
-7.86
-12.53
-18.70
-26.18
-34.37
-42.22
-48.38
-51.41
-50.18
-44.16
-33.70
-20.01
-4.77
10.29
23.77
34.82
43.05
48.34
50.71
50.28
47.39
42.63
36.82
30.78
25.20
20.48
16.73
13.84
11.66
10.00
8.68
7.38
5.74
3.34
-0.25
-5.30
-11.78
-19.23
-26.71
-32.82
-35.98
-34.81
-28.58
-17.58
-3.07
12.94
28.37
41.60
51.87
59.20
63.99
66.65
67.25
65.62
61.56
55.20
47.13
38.30
29.81
22.52
16.92
13.04
10.61
9.20
8.33
7.54
6.27
3.92
-0.06
-5.94
-13.56
-22.15
-30.50
-37.23
-41.23
-41.96
-39.59
-34.81
-28.68
-22.19
-16.23
-11.39
-7.95
-5.98
-5.30
-5.64
-6.78
-8.62
-11.25
-14.80
-19.44
-25.26
-32.26
-40.45
-49.71
-59.88
-70.55
-81.01
-90.41
-97.92
-103.06
-105.88
-106.97
-107.23
-107.69
-109.20
-112.25
-116.79
-122.20
-127.47
-131.39
-132.80
-130.71
-124.38
-113.38
-97.88
-78.89
-58.26
-38.38
-21.54
-9.28
-1.97
1.08
1.22
-0.25
-2.30
-4.23
-5.48
-5.48
-3.87
-0.72
3.30
7.10
9.53
9.82
7.82
3.96
-0.98
-6.15
-10.94
-14.99
-18.32
-21.29
-24.44
-28.30
-33.14
-38.66
-43.88
-47.41
-47.90
-44.47
-37.09
-26.42
-13.51
0.65
15.25
29.59
42.91
54.29
62.75
67.60
68.69
66.56
62.26
57.11
52.24
48.48
46.07
44.78
43.98
42.92
41.11
38.60
35.90
33.52
31.54
29.30
25.60
19.29
10.01
-1.55
-13.85
-25.04
-33.67
-38.88
-40.32
-37.87
-31.44
-21.15
-7.66
7.60
22.62
35.24
43.81
47.62
46.90
42.62
36.12
28.74
21.61
15.62
11.46
9.53
9.92
12.29
15.82
19.43
22.01
22.77
21.41
18.11
13.30
7.31
0.22
-8.00
-17.18
-26.63
-35.03
-40.69
-42.18
-38.84
-31.03
-19.90
-7.03
6.18
18.81
30.40
40.80
49.85
57.28
62.75
65.99
66.97
65.92
63.29
59.73
55.98
52.88
51.23
51.66
54.43
59.20
64.94
70.14
73.24
73.17
69.73
63.66
56.31
49.14
43.19
38.77
35.43
32.39
29.02
25.29
21.88
19.95
20.65
24.71
32.04
41.71
52.00
60.67
65.44
64.57
57.44
44.88
29.05
12.82
-1.24
-11.87
-19.41
-25.40
-31.73
-39.58
-49.21
-60.03
-71.24
-82.29
-93.00
-103.29
-112.78
-120.53
-125.28
-125.92
-122.04
-114.20
-103.66
-91.90
-79.96
-68.02
-55.33
-40.59
-22.71
-1.52
21.72
44.46
63.59
76.57
82.48
82.41
79.11
75.74
74.50
75.73
77.98
79.01
77.00
71.58
63.72
55.03
46.84
39.51
32.48
24.75
15.30
3.35
-11.65
-30.05
-51.64
-75.03
-97.39
-114.91
-124.14
-123.80
-116.07
-106.41
-101.24
-105.07
-118.37
-137.44
-156.42
-169.79
-174.09
-168.06
-151.73
-125.80
-91.86
-53.28
-15.60
15.00
34.53
43.86
49.30
59.83
82.34
117.67
159.48
197.12
220.41
224.04
209.20
182.12
150.92
122.37
100.46
86.57
80.64
82.00
89.62
101.78
115.84
128.67
137.33
139.91
135.77
125.44
110.20
91.70
71.53
50.61
28.87
5.39
-20.99
-50.66
-82.23
-112.36
-136.69
-151.43
-155.05
-149.15
-137.92
-126.70
-119.93
-119.71
-125.45
-134.51
-143.41
-149.28
-150.63
-147.51
-140.92
-131.86
-120.76
-107.46
-91.98
-75.25
-59.10
-45.26
-34.10
-23.65
-9.77
12.23
45.10
87.77
134.89
178.20
209.29
222.39
215.93
192.40
156.91
115.14
72.01
31.19
-4.62
-33.23
-52.87
-62.89
-64.18
-59.33
-51.72
-43.86
-35.83
-24.82
-6.41
22.70
61.87
105.12
142.36
162.99
160.18
133.51
88.79
35.40
-17.26
-62.39
-96.39
-118.17
-127.71
-125.58
-113.11
-93.00
-69.82
-49.67
-38.62
-40.55
-55.69
-80.34
-108.03
-132.12
-148.26
-155.97
-158.19
-159.25
-162.06
-166.38
-168.86
-164.81
-150.95
-127.15
-96.57
-63.89
-32.97
-5.38
19.52
43.08
65.83
86.98
104.95
119.00
130.17
140.89
153.20
167.16
180.37
189.17
190.63
184.10
171.13
154.05
134.41
112.20
86.63
57.37
25.57
-6.11
-34.24
-55.51
-67.69
-70.15
-63.93
-51.66
-37.14
-24.72
-18.48
-21.15
-33.01
-51.14
-69.69
-81.61
-81.43
-67.86
-44.74
-19.51
0.13
9.63
9.07
2.28
-6.06
-13.00
-18.39
-23.86
-30.87
-39.56
-48.97
-58.33
-68.00
-79.35
-93.49
-109.93
-126.12
-138.25
-142.81
-137.92
-123.83
-102.67
-77.72
-52.57
-30.44
-13.63
-3.13
1.47
1.68
-0.62
-4.05
-8.34
-14.17
-22.50
-33.77
-47.25
-61.23
-73.50
-82.38
-87.29
-88.96
-89.15
-89.98
-93.38
-100.55
-111.66
-125.90
-141.68
-156.90
-169.29
-176.67
-177.25
-169.78
-153.82
-130.16
-100.99
-69.61
-39.58
-13.63
7.26
23.91
38.27
52.20
66.47
80.50
92.89
102.30
108.19
110.80
110.83
108.83
104.93
98.92
90.53
79.62
66.56
52.33
38.63
27.82
22.35
24.14
33.79
50.29
71.22
93.38
113.79
130.33
141.97
148.59
150.55
148.40
142.67
133.98
123.13
111.25
99.55
89.13
80.67
74.35
69.82
66.50
63.76
61.14
58.33
55.18
51.64
47.59
42.91
37.51
31.59
25.86
21.65
20.63
24.17
32.60
44.79
58.32
70.45
79.26
84.53
87.58
90.32
94.14
99.38
105.62
112.38
119.32
125.76
129.69
127.53
115.33
91.21
57.89
23.11
-2.61
-10.48
2.43
31.67
67.33
98.44
117.16
120.87
111.30
92.24
67.26
38.98
9.45
-19.07
-43.95
-62.76
-74.14
-78.29
-76.81
-72.21
-67.26
-64.44
-65.16
-69.50
-76.26
-83.72
-90.75
-97.29
-103.87
-110.32
-114.57
-112.83
-101.24
-78.43
-46.98
-12.90
16.76
36.98
46.57
47.96
45.26
41.95
39.39
36.82
32.44
24.58
12.63
-2.77
-20.03
-37.10
-51.94
-63.05
-69.62
-71.67
-69.93
-65.59
-60.03
-54.48
-49.86
-46.59
-44.52
-43.04
-41.28
-38.53
-34.58
-29.87
-25.50
-22.76
-22.73
-25.85
-31.58
-38.42
-44.08
-46.05
-42.51
-33.06
-18.99
-2.91
12.37
25.11
35.27
44.31
54.24
66.37
80.68
95.81
109.77
120.50
126.33
126.05
119.06
105.64
87.40
67.31
49.13
36.20
30.33
31.26
36.91
44.32
50.56
53.44
51.59
44.55
32.75
17.70
1.88
-11.66
-20.18
-22.29
-18.63
-11.65
-4.63
-0.26
0.48
-1.50
-4.08
-5.18
-3.72
-0.09
4.34
7.99
9.81
9.45
7.06
2.89
-3.05
-10.81
-20.26
-30.86
-41.75
-52.25
-62.36
-72.96
-85.44
-100.94
-119.42
-139.35
-157.95
-172.13
-179.49
-178.86
-170.47
-155.64
-136.36
-114.77
-92.88
-72.15
-53.28
-36.08
-19.70
-3.25
13.76
31.03
47.52
61.76
72.23
77.75
77.75
72.56
63.47
52.54
42.27
34.78
31.25
31.50
34.30
37.95
41.19
43.99
47.95
55.79
70.04
91.33
116.94
140.66
154.64
152.56
132.66
99.02
60.06
25.11
0.74
-11.40
-14.06
-12.04
-9.42
-7.96
-7.29
-6.26
-4.31
-2.00
-0.53
-0.84
-2.89
-5.67
-7.78
-8.21
-6.75
-4.05
-1.33
0.30
0.49
-0.01
0.64
4.66
13.58
27.39
44.49
62.63
80.25
97.03
113.37
128.77
140.45
143.41
132.30
104.27
61.10
9.27
-42.27
-85.52
-115.98
-133.40
-140.50
-140.76
-136.78
-129.86
-120.52
-109.35
-97.44
-86.05
-76.09
-67.59
-59.63
-50.83
-40.11
-27.26
-13.04
1.18
14.10
24.98
33.76
40.76
46.32
50.45
53.03
54.09
54.06
53.83
54.26
55.78
57.93
59.45
58.75
54.50
46.08
33.66
17.99
0.11
-18.81
-37.55
-54.81
-69.30
-79.99
-86.30
-88.33
-86.80
-82.87
-77.82
-72.89
-69.07
-67.06
-67.13
-69.11
-72.38
-76.11
-79.47
-82.08
-84.05
-85.85
-87.99
-90.57
-93.17
-94.94
-95.04
-93.08
-89.34
-84.76
-80.38
-76.79
-73.82
-70.62
-66.20
-59.84
-51.40
-40.97
-28.41
-13.00
6.15
29.22
54.85
79.87
100.14
112.06
114.09
107.30
94.86
80.49
67.03
55.49
45.16
34.45
22.05
7.74
-7.48
-21.94
-34.32
-44.31
-52.88
-61.71
-72.21
-84.53
-97.30
-108.22
-115.20
-117.39
-115.45
-110.98
-105.46
-99.36
-92.07
-82.56
-70.23
-55.58
-40.10
-25.55
-13.20
-3.34
4.67
11.91
19.35
27.42
35.87
43.97
50.71
55.14
56.57
54.79
50.05
42.99
34.53
25.72
17.49
10.50
4.91
0.30
-4.10
-8.99
-14.54
-19.97
-23.78
-24.36
-20.99
-14.47
-7.12
-1.90
-1.22
-5.85
-14.69
-25.39
-35.46
-43.19
-47.99
-50.38
-51.53
-53.01
-56.49
-63.41
-74.39
-88.62
-103.62
-116.03
-123.01
-123.92
-120.91
-118.14
-119.80
-127.76
-140.21
-151.93
-156.41
-148.55
-126.96
-94.50
-57.07
-21.13
8.92
32.52
53.07
76.07
106.26
144.71
187.91
228.79
259.46
274.12
271.08
252.95
225.32
194.97
168.08
148.96
139.29
137.50
138.78
135.54
119.68
85.89
34.70
-26.24
-84.36
-126.77
-145.76
-142.01
-124.06
-103.73
-90.34
-86.59
-88.41
-88.74
-81.96
-66.47
-44.02
-17.46
11.51
42.29
73.80
102.81
124.18
133.24
128.31
112.32
91.69
73.40
61.91
57.66
57.91
58.65
56.82
51.37
43.15
34.22
26.90
23.30
25.16
33.88
50.28
74.29
104.36
137.18
168.46
194.21
212.12
222.11
225.86
225.71
223.65
221.01
218.66
217.18
216.75
216.73
215.65
211.68
203.45
190.86
175.09
157.91
140.60
123.12
104.02
80.92
51.43
14.06
-31.12
-82.24
-135.85
-187.85
-234.82
-275.13
-309.10
-338.18
-363.57
-384.99
-400.53
-407.65
-404.58
-391.43
-370.31
-344.34
-316.47
-288.59
-261.23
-234.12
-206.73
-178.92
-151.16
-124.50
-100.11
-78.83
-60.72
-44.97
-30.36
-16.11
-2.58
8.45
14.37
12.98
3.72
-11.71
-29.71
-46.27
-58.49
-65.61
-69.11
-71.80
-76.32
-84.00
-94.29
-105.14
-114.10
-119.39
-120.51
-118.03
-112.77
-105.05
-94.37
-79.90
-61.14
-38.32
-12.18
16.60
47.60
80.42
113.65
144.26
167.91
180.63
180.71
169.89
153.07
136.55
125.64
122.64
126.30
132.89
138.41
140.61
140.01
139.17
140.81
146.11
153.83
161.09
165.17
165.19
162.70
160.48
160.68
163.28
166.00
165.65
160.17
149.70
136.61
124.51
116.95
116.36
123.52
137.55
156.27
176.81
196.04
210.95
218.89
217.74
206.51
185.82
158.27
128.15
100.24
78.16
62.74
51.55
39.77
22.22
-4.61
-41.18
-84.89
-131.29
-175.76
-214.89
-247.45
-274.23
-297.19
-318.18
-337.71
-354.35
-365.15
-366.87
-357.32
-336.40
-306.15
-270.02
-231.99
-195.45
-162.52
-133.56
-107.15
-80.56
-50.87
-16.04
24.15
68.04
112.72
155.04
192.62
224.46
250.85
272.81
291.57
307.82
321.03
329.25
329.39
318.54
295.92
264.43
230.57
202.08
184.31
177.34
175.66
170.84
155.82
128.20
91.06
50.56
12.34
-21.31
-51.78
-82.04
-113.78
-145.74
-174.15
-194.86
-205.65
-207.30
-203.06
-196.76
-191.00
-186.28
-181.29
-174.07
-163.36
-149.43
-134.01
-119.53
-107.99
-100.17
-95.37
-91.86
-87.66
-81.43
-72.88
-62.72
-52.17
-42.32
-33.74
-26.41
-19.88
-13.78
-8.17
-3.63
-1.06
-1.24
-4.32
-9.55
-15.37
-19.84
-21.35
-19.14
-13.50
-5.61
3.10
11.32
18.27
23.57
27.13
28.88
28.80
26.93
23.48
18.91
13.81
8.75
4.19
0.39
-2.51
-4.53
-5.72
-6.25
-6.35
-6.34
-6.58
-7.43
-9.19
-12.05
-16.05
-20.99
-26.29
-31.02
-33.99
-34.01
-30.31
-22.88
-12.48
-0.48
11.57
22.43
31.39
38.22
43.01
45.89
46.92
46.11
43.56
39.55
34.53
28.99
23.33
17.86
12.70
7.92
3.57
-0.31
-3.71
-6.73
-9.61
-12.79
-16.85
-22.43
-29.94
-39.30
-49.69
-59.59
-67.06
-70.40
-68.63
-61.87
-51.18
-38.16
-24.39
-11.05
1.10
11.60
20.07
26.09
29.34
29.81
27.93
24.43
20.21
16.03
12.36
9.26
6.55
3.91
0.96
-2.56
-6.75
-11.56
-16.84
-22.46
-28.36
-34.71
-41.79
-49.95
-59.29
-69.46
-79.52
-88.09
-93.63
-94.93
-91.57
-84.09
-73.84
-62.56
-51.81
-42.56
-35.04
-28.85
-23.19
-17.20
-10.16
-1.57
8.64
20.18
32.35
44.07
54.17
61.64
65.99
67.31
66.17
63.08
58.11
50.63
39.67
24.61
5.79
-15.25
-36.20
-54.84
-69.59
-79.47
-83.82
-81.77
-72.16
-54.11
-27.85
4.43
38.53
69.00
90.76
100.75
98.80
87.51
70.97
53.33
37.71
25.89
18.67
16.32
18.65
24.75
32.72
39.83
43.18
40.71
31.93
17.77
-0.05
-19.67
-39.32
-57.27
-71.76
-81.12
-84.31
-81.34
-73.27
-61.79
-48.55
-34.78
-21.22
-8.39
3.24
13.41
22.07
29.40
35.58
40.43
43.26
43.19
39.66
32.95
24.23
15.17
7.23
1.15
-3.23
-6.47
-9.15
-11.46
-13.27
-14.36
-14.67
-14.36
-13.69
-12.81
-11.59
-9.57
-6.11
-0.52
7.66
18.48
31.49
45.76
60.11
73.46
85.12
94.90
102.94
109.46
114.52
118.05
119.87
119.95
118.52
115.91
112.47
108.43
103.82
98.54
92.58
86.11
79.45
72.98
66.86
60.98
54.78
47.38
37.83
25.50
10.46
-6.37
-23.34
-38.52
-50.09
-56.85
-58.45
-55.36
-48.60
-39.45
-29.08
-18.44
-8.21
1.25
9.74
17.21
23.79
29.64
34.94
39.84
44.44
48.76
52.68
55.88
57.79
57.68
54.84
48.81
39.51
27.19
12.23
-4.96
-23.95
-44.02
-63.94
-81.98
-96.22
-105.16
-108.16
-105.72
-99.17
-90.25
-80.51
-71.04
-62.48
-55.17
-49.36
-45.30
-43.08
-42.57
-43.27
-44.56
-45.79
-46.56
-46.76
-46.56
-46.16
-45.68
-45.12
-44.48
-43.86
-43.61
-44.25
-46.27
-49.91
-54.95
-60.59
-65.62
-68.69
-68.65
-64.87
-57.35
-46.63
-33.72
-19.75
-5.87
6.93
17.96
26.89
33.70
38.63
41.93
43.81
44.32
43.56
41.76
39.32
36.74
34.28
31.91
29.36
26.34
22.74
18.70
14.41
9.85
4.73
-1.44
-8.88
-17.25
-25.45
-31.96
-35.31
-34.61
-29.78
-21.50
-10.87
0.94
13.01
24.50
34.73
43.03
48.77
51.49
51.16
48.23
43.54
38.13
32.88
28.29
24.45
21.09
17.78
14.26
10.44
6.51
2.76
-0.64
-3.82
-7.17
-11.31
-16.82
-23.84
-31.95
-40.09
-46.87
-50.89
-51.19
-47.41
-39.82
-29.16
-16.39
-2.56
11.29
24.18
35.27
43.94
49.88
53.17
54.15
53.37
51.40
48.65
45.33
41.39
36.72
31.26
25.18
18.94
13.14
8.31
4.67
1.98
-0.37
-3.17
-7.14
-12.66
-19.65
-27.55
-35.41
-42.08
-46.44
-47.63
-45.26
-39.44
-30.74
-19.96
-7.96
4.49
16.71
28.13
38.17
46.28
52.00
55.20
56.09
55.17
53.11
50.45
47.46
44.20
40.62
36.81
33.03
29.67
26.99
24.93
23.09
20.89
17.78
13.43
7.74
0.74
-7.42
-16.42
-25.68
-34.15
-40.50
-43.47
-42.37
-37.33
-29.28
-19.57
-9.37
0.63
10.22
19.33
27.66
34.50
39.03
40.73
39.72
36.81
33.11
29.53
26.48
23.77
20.89
17.42
13.20
8.46
3.62
-0.85
-4.64
-7.71
-10.31
-12.90
-16.01
-20.07
-25.29
-31.58
-38.60
-45.78
-52.35
-57.37
-59.84
-58.93
-54.26
-46.15
-35.51
-23.57
-11.46
0.19
11.14
21.28
30.28
37.57
42.41
44.40
43.69
41.02
37.41
33.78
30.67
28.21
26.25
24.43
22.37
19.71
16.21
11.84
6.80
1.48
-3.73
-8.54
-12.99
-17.39
-22.25
-28.09
-35.06
-42.88
-50.77
-57.56
-62.05
-63.36
-61.01
-55.08
-46.08
-34.77
-22.04
-8.83
3.94
15.40
24.85
31.81
36.19
38.12
38.09
36.72
34.70
32.72
31.21
30.29
29.71
29.01
27.61
25.13
21.47
16.77
11.34
5.41
-0.84
-7.39
-14.26
-21.59
-29.47
-38.04
-47.28
-56.76
-65.53
-72.16
-75.13
-73.26
-66.33
-55.11
-41.13
-26.09
-11.42
1.92
13.38
22.48
28.86
32.35
33.30
32.67
31.75
31.75
33.12
35.44
37.59
38.36
37.04
33.73
29.23
24.52
20.33
16.75
13.31
9.26
3.96
-2.82
-10.88
-19.71
-28.66
-36.94
-43.77
-48.41
-50.23
-48.93
-44.66
-37.98
-29.78
-21.02
-12.54
-4.88
1.71
7.23
11.80
15.48
18.25
19.91
20.21
19.05
16.65
13.49
10.11
6.88
3.83
0.74
-2.60
-6.12
-9.44
-12.08
-13.81
-14.80
-15.67
-17.15
-19.75
-23.68
-28.63
-33.97
-38.91
-42.52
-43.96
-42.54
-37.96
-30.30
-20.16
-8.40
3.94
15.95
26.86
36.16
43.57
48.94
52.24
53.50
52.89
50.75
47.67
44.37
41.44
39.15
37.35
35.63
33.59
31.09
28.19
24.96
21.25
16.53
10.14
1.67
-8.77
-20.45
-32.46
-44.06
-54.97
-65.18
-74.60
-82.66
-88.36
-90.65
-89.04
-84.06
-77.11
-69.86
-63.50
-58.24
-53.47
-48.44
-43.04
-38.11
-35.16
-35.60
-39.88
-47.20
-55.80
-63.72
-69.69
-73.58
-76.34
-79.28
-83.38
-88.86
-95.02
-100.74
-104.90
-106.62
-105.57
-102.10
-97.31
-92.91
-90.45
-90.34
-91.18
-90.03
-83.44
-68.89
-45.75
-15.39
19.49
55.86
90.97
122.39
147.83
165.13
172.84
170.83
160.77
145.72
129.23
114.27
102.54
94.47
89.49
86.45
84.08
81.34
77.56
72.65
66.83
60.42
53.82
47.46
41.80
37.18
33.50
29.76
24.28
15.36
2.43
-13.06
-27.69
-37.32
-39.03
-32.59
-20.86
-8.64
-0.56
0.82
-4.06
-12.34
-20.46
-26.01
-28.71
-30.13
-32.08
-35.38
-39.19
-41.78
-41.95
-40.05
-37.36
-34.39
-29.34
-18.58
0.65
26.93
53.30
69.66
68.01
47.37
14.92
-17.63
-40.24
-49.44
-48.75
-44.92
-42.77
-42.22
-39.28
-29.74
-12.84
7.81
26.36
38.04
41.62
39.38
35.47
33.32
34.17
36.89
39.02
38.18
33.28
24.98
15.31
6.67
0.65
-2.60
-4.32
-6.45
-10.63
-17.61
-27.24
-38.80
-51.43
-64.31
-76.50
-86.75
-93.46
-95.07
-90.52
-79.67
-63.32
-42.91
-20.18
3.27
26.12
47.38
66.44
82.96
96.75
107.82
116.41
123.16
129.05
135.13
141.91
148.93
154.60
156.78
153.78
145.20
132.29
117.35
102.64
89.30
76.94
64.05
48.95
30.97
11.21
-7.54
-21.53
-27.22
-22.65
-8.15
13.65
38.69
62.86
83.29
99.09
111.37
122.63
135.64
152.38
172.94
194.92
213.58
222.86
217.18
193.49
152.69
99.99
43.77
-6.71
-44.03
-64.90
-71.01
-68.12
-63.75
-64.34
-73.22
-89.97
-111.45
-133.61
-153.18
-168.35
-178.35
-182.70
-180.64
-171.51
-155.40
-133.95
-110.16
-87.56
-69.03
-55.94
-47.85
-43.14
-39.88
-36.79
-33.66
-31.18
-30.37
-31.79
-35.11
-39.09
-41.99
-42.41
-39.88
-35.11
-29.72
-25.59
-24.10
-25.75
-30.16
-36.44
-43.80
-51.64
-59.46
-66.50
-71.47
-72.79
-69.04
-59.61
-45.04
-26.97
-7.59
10.97
27.17
40.25
50.11
56.96
61.09
62.78
62.30
60.03
56.54
52.36
47.86
43.10
37.85
31.78
24.81
17.30
10.01
3.75
-0.98
-4.24
-6.77
-9.80
-14.55
-21.80
-31.37
-42.00
-51.49
-57.47
-58.12
-52.88
-42.67
-29.41
-15.37
-2.43
8.23
16.10
21.00
22.97
22.18
19.15
14.81
10.35
6.94
5.27
5.43
6.95
9.08
11.08
12.51
13.24
13.35
13.02
12.40
11.49
10.04
7.74
4.25
-0.45
-5.83
-10.71
-13.43
-12.35
-6.47
4.15
18.29
33.94
48.96
61.73
71.44
78.02
81.82
83.26
82.58
79.92
75.34
68.94
60.83
51.24
40.45
29.00
17.66
7.38
-1.03
-7.20
-11.42
-14.57
-17.93
-22.68
-29.65
-38.97
-50.03
-61.58
-71.91
-79.34
-82.53
-80.93
-74.85
-65.29
-53.59
-41.02
-28.57
-16.90
-6.50
2.24
8.89
13.16
14.96
14.43
11.90
7.87
2.90
-2.47
-7.74
-12.45
-16.31
-19.20
-21.25
-22.83
-24.49
-26.85
-30.50
-35.89
-43.25
-52.41
-62.68
-72.86
-81.36
-86.61
-87.65
-84.45
-77.94
-69.63
-60.95
-52.94
-46.23
-41.37
-38.97
-39.52
-42.91
-48.03
-52.94
-55.55
-54.56
-50.14
-44.04
-38.77
-36.45
-37.62
-40.97
-43.87
-43.56
-38.28
-27.95
-13.95
1.74
17.13
30.64
40.91
46.61
46.75
41.74
34.46
30.14
34.28
49.42
73.01
97.92
115.86
121.75
116.44
105.95
97.77
96.39
101.18
107.47
109.98
106.23
97.67
88.08
80.65
75.68
70.58
61.73
47.01
27.23
5.70
-13.27
-26.61
-33.81
-36.84
-38.96
-43.05
-50.30
-59.91
-69.65
-76.90
-79.70
-77.24
-69.89
-58.74
-45.23
-30.78
-16.51
-3.25
8.44
18.02
25.04
29.19
30.62
29.98
28.29
26.58
25.54
25.29
25.48
25.66
25.52
25.14
24.80
24.79
25.12
25.44
24.99
22.91
18.49
11.50
2.49
-7.23
-15.81
-21.36
-22.62
-19.27
-12.07
-2.41
8.16
18.47
27.78
35.72
42.08
46.61
49.10
49.43
47.76
44.44
39.99
34.84
29.31
23.61
17.89
12.37
7.29
2.99
-0.32
-2.62
-4.20
-5.74
-8.14
-12.37
-19.06
-28.15
-38.70
-49.00
-57.02
-60.95
-59.77
-53.44
-42.89
-29.59
-15.18
-1.09
11.62
22.24
30.39
35.83
38.52
38.51
36.06
31.59
25.71
19.06
12.26
5.82
0.09
-4.60
-7.96
-9.73
-9.82
-8.41
-6.14
-3.96
-3.01
-4.28
-8.48
-15.70
-25.40
-36.31
-46.65
-54.55
-58.37
-57.31
-51.52
-41.99
-30.12
-17.25
-4.35
7.94
19.16
28.77
36.16
40.73
42.13
40.42
36.10
29.98
23.05
16.33
10.60
6.27
3.34
1.47
0.11
-1.18
-2.67
-4.40
-6.50
-9.23
-13.06
-18.34
-24.91
-31.93
-37.94
-41.36
-40.98
-36.53
-28.66
-18.72
-8.19
1.74
10.38
17.49
23.03
26.98
29.27
29.76
28.43
25.40
20.93
15.44
9.37
3.20
-2.64
-7.82
-12.13
-15.60
-18.44
-20.97
-23.58
-26.71
-30.74
-35.92
-42.15
-48.73
-54.42
-57.65
-57.00
-51.73
-42.15
-29.44
-15.38
-1.66
10.52
20.56
28.42
34.26
38.28
40.53
41.03
39.88
37.31
33.74
29.65
25.39
21.13
16.88
12.63
8.47
4.62
1.31
-1.48
-4.20
-7.67
-12.76
-19.93
-28.77
-37.97
-45.58
-49.72
-49.11
-43.52
-33.74
-21.27
-7.80
5.17
16.64
26.09
33.32
38.37
41.35
42.47
42.04
40.40
37.93
34.89
31.42
27.55
23.30
18.81
14.32
10.19
6.66
3.74
1.07
-1.93
-5.95
-11.58
-19.07
-28.17
-38.02
-47.29
-54.25
-57.32
-55.47
-48.64
-37.69
-24.14
-9.70
4.16
16.42
26.54
34.21
39.30
41.78
41.74
39.55
35.72
30.94
25.85
21.07
17.02
13.88
11.58
9.73
7.85
5.36
1.92
-2.62
-8.24
-14.86
-22.40
-30.59
-38.97
-46.62
-52.25
-54.46
-52.21
-45.25
-34.25
-20.71
-6.46
6.80
17.97
26.54
32.53
36.16
37.67
37.24
34.99
31.11
25.99
20.15
14.16
8.57
3.72
-0.25
-3.43
-6.07
-8.57
-11.38
-15.03
-20.03
-26.75
-35.21
-44.78
-54.19
-61.59
-65.09
-63.34
-56.06
-44.18
-29.47
-14.00
0.59
13.36
24.05
32.70
39.31
43.67
45.54
44.94
42.26
38.30
33.90
29.64
25.70
21.89
17.95
13.83
9.72
5.92
2.55
-0.68
-4.48
-9.67
-16.70
-25.26
-34.16
-41.63
-45.78
-45.31
-39.86
-30.06
-17.32
-3.30
10.51
23.05
33.74
42.32
48.68
52.78
54.60
54.22
51.87
47.96
43.04
37.64
32.19
26.93
21.98
17.38
13.21
9.54
6.37
3.50
0.52
-3.18
-8.20
-14.82
-22.78
-31.16
-38.53
-43.25
-43.96
-39.99
-31.57
-19.80
-6.33
7.06
18.91
28.34
35.08
39.26
41.19
41.08
39.06
35.20
29.74
23.09
15.87
8.73
2.19
-3.45
-8.16
-12.12
-15.60
-18.96
-22.59
-26.99
-32.57
-39.57
-47.73
-56.15
-63.39
-67.71
-67.63
-62.46
-52.49
-39.02
-23.89
-8.95
4.41
15.41
23.83
29.66
32.98
33.76
32.13
28.35
23.04
16.96
10.90
5.45
0.91
-2.74
-5.68
-8.19
-10.57
-13.05
-15.92
-19.55
-24.31
-30.46
-37.84
-45.70
-52.67
-57.01
-57.14
-52.22
-42.52
-29.34
-14.61
-0.19
12.59
23.23
31.75
38.35
43.07
45.69
45.89
43.52
38.84
32.59
25.76
19.29
13.78
9.40
5.83
2.68
-0.48
-3.89
-7.75
-12.31
-17.85
-24.57
-32.22
-39.93
-46.14
-49.06
-47.26
-40.18
-28.45
-13.67
2.13
17.09
29.97
40.21
47.76
52.74
55.24
55.30
53.05
48.81
43.16
36.81
30.38
24.36
18.95
14.22
10.13
6.58
3.38
0.15
-3.64
-8.57
-14.97
-22.84
-31.57
-40.00
-46.65
-49.98
-48.86
-42.88
-32.55
-19.19
-4.56
9.62
22.12
32.30
40.03
45.42
48.57
49.59
48.67
46.14
42.50
38.29
33.90
29.52
25.17
20.79
16.37
11.96
7.63
3.37
-0.94
-5.62
-10.97
-17.26
-24.55
-32.44
-40.01
-45.83
-48.34
-46.33
-39.50
-28.67
-15.54
-2.17
9.75
19.33
26.47
31.46
34.61
35.99
35.47
33.02
28.98
24.09
19.22
15.14
12.12
9.97
8.19
6.25
3.79
0.69
-3.03
-7.43
-12.76
-19.45
-27.77
-37.49
-47.56
-56.16
-61.26
-61.24
-55.52
-44.75
-30.55
-14.90
0.38
14.02
25.29
33.84
39.50
42.21
42.09
39.50
35.02
29.41
23.38
17.53
12.27
7.78
4.08
1.01
-1.65
-4.20
-6.94
-10.21
-14.40
-19.81
-26.52
-34.17
-41.84
-48.15
-51.55
-50.85
-45.62
-36.34
-24.31
-11.15
1.71
13.30
23.22
31.33
37.57
41.82
43.93
43.88
41.97
38.71
34.79
30.82
27.18
24.01
21.28
18.82
16.45
13.96
11.13
7.74
3.49
-1.85
-8.44
-16.19
-24.64
-32.85
-39.42
-42.94
-42.32
-37.25
-28.36
-16.98
-4.72
6.92
16.93
24.78
30.35
33.70
34.95
34.28
32.04
28.64
24.65
20.60
16.89
13.67
10.91
8.45
6.05
3.51
0.69
-2.50
-6.20
-10.58
-15.88
-22.22
-29.41
-36.81
-43.24
-47.28
-47.66
-43.71
-35.63
-24.48
-11.77
0.95
12.45
21.95
29.04
33.54
35.40
34.80
32.15
28.08
23.35
18.59
14.16
10.17
6.48
3.02
-0.24
-3.26
-5.97
-8.48
-11.11
-14.38
-18.82
-24.72
-31.90
-39.65
-46.75
-51.75
-53.38
-50.81
-44.00
-33.71
-21.33
-8.49
3.32
13.11
20.51
25.58
28.64
29.97
29.68
27.76
24.27
19.51
14.01
8.49
3.59
-0.35
-3.37
-5.82
-8.17
-10.80
-13.96
-17.86
-22.68
-28.69
-35.95
-44.08
-51.96
-57.90
-60.13
-57.43
-49.64
-37.80
-23.67
-9.17
4.31
16.01
25.69
33.27
38.61
41.53
41.98
40.22
36.84
32.64
28.28
24.15
20.29
16.51
12.67
8.78
5.01
1.52
-1.69
-4.99
-9.02
-14.49
-21.74
-30.44
-39.42
-47.00
-51.35
-51.16
-46.03
-36.60
-24.24
-10.66
2.62
14.55
24.59
32.51
38.25
41.80
43.20
42.63
40.39
36.94
32.77
28.29
23.81
19.50
15.41
11.54
7.87
4.34
0.93
-2.54
-6.37
-11.01
-17.02
-24.68
-33.70
-42.96
-50.73
-55.02
-54.38
-48.33
-37.64
-23.94
-9.15
5.01
17.46
27.71
35.56
40.91
43.73
44.10
42.34
39.08
35.11
31.12
27.56
24.59
22.17
20.22
18.81
18.09
18.33
19.58
21.46
23.05
23.01
20.02
13.54
4.35
-5.22
-11.85
-12.33
-4.91
10.04
30.11
51.94
72.22
88.44
98.87
102.31
98.10
86.57
69.53
50.13
31.98
17.69
7.84
0.98
-5.28
-12.79
-21.82
-31.21
-39.34
-45.29
-49.38
-52.89
-57.22
-63.19
-70.78
-79.27
-87.63
-94.77
-99.64
-101.25
-98.77
-91.74
-80.35
-65.54
-48.88
-32.22
-17.26
-5.14
3.60
8.95
11.31
11.22
9.40
6.62
3.55
0.72
-1.70
-3.79
-5.82
-7.97
-10.26
-12.49
-14.44
-16.04
-17.52
-19.46
-22.55
-27.36
-33.94
-41.73
-49.47
-55.57
-58.42
-56.77
-50.18
-38.98
-24.33
-7.89
8.51
23.27
35.28
44.04
49.65
52.47
53.07
51.95
49.56
46.26
42.34
37.99
33.41
28.80
24.40
20.50
17.31
14.80
12.63
10.24
6.92
2.08
-4.54
-12.84
-22.19
-31.51
-39.34
-44.13
-44.66
-40.46
-32.05
-20.79
-8.47
3.22
13.12
20.65
25.70
28.27
28.40
26.08
21.47
14.92
7.10
-0.93
-7.76
-11.97
-12.67
-10.06
-5.63
-1.83
-1.21
-5.42
-14.72
-28.08
-43.78
-60.08
-75.55
-88.96
-98.97
-104.16
-103.42
-96.66
-85.16
-71.36
-57.90
-46.58
-37.66
-30.10
-22.42
-13.69
-4.15
4.90
11.90
15.89
17.15
17.10
17.64
20.25
25.29
31.95
38.81
44.67
49.01
51.93
53.46
52.84
48.58
39.00
23.59
3.72
-17.18
-34.84
-45.69
-48.29
-43.65
-34.41
-23.54
-13.18
-4.20
3.49
10.29
16.33
21.27
24.44
25.17
23.03
18.07
10.85
2.40
-6.06
-13.38
-18.70
-21.58
-22.07
-20.60
-17.87
-14.77
-12.34
-11.72
-13.98
-19.69
-28.64
-39.50
-49.93
-57.17
-58.81
-53.62
-41.90
-25.35
-6.40
12.51
29.58
43.87
55.19
63.64
69.35
72.25
72.25
69.43
64.24
57.50
50.26
43.44
37.58
32.84
29.00
25.66
22.44
18.95
14.69
9.08
1.49
-8.45
-20.55
-33.81
-46.44
-56.14
-60.79
-59.03
-50.78
-37.21
-20.46
-2.89
13.48
27.43
38.48
46.61
51.90
54.36
53.92
50.70
45.16
38.16
30.68
23.60
17.50
12.56
8.71
5.66
2.98
0.18
-3.36
-8.18
-14.71
-23.06
-32.94
-43.54
-53.51
-61.15
-64.61
-62.42
-53.91
-39.66
-21.32
-1.29
17.97
34.62
47.73
57.22
63.39
66.69
67.32
65.41
61.13
54.83
47.14
38.80
30.57
22.98
16.36
10.77
6.08
1.93
-2.26
-7.31
-14.09
-23.16
-34.42
-46.83
-58.41
-66.77
-69.76
-66.18
-56.08
-40.72
-22.12
-2.44
16.43
33.15
46.89
57.27
64.24
68.04
69.05
67.72
64.45
59.61
53.62
46.98
40.35
34.31
29.24
25.14
21.74
18.50
14.88
10.35
4.40
-3.41
-13.28
-24.88
-37.06
-47.84
-54.86
-56.07
-50.48
-38.62
-22.30
-4.06
13.70
29.37
42.19
52.17
59.54
64.48
66.96
66.93
64.51
60.17
54.64
48.71
42.95
37.61
32.66
27.97
23.47
19.17
15.05
10.89
6.25
0.49
-6.99
-16.42
-27.48
-39.09
-49.62
-57.10
-59.76
-56.50
-47.30
-33.27
-16.33
1.31
17.75
31.70
42.62
50.36
54.99
56.53
55.10
51.02
44.94
37.77
30.45
23.66
17.68
12.37
7.44
2.65
-1.96
-6.17
-9.81
-12.95
-16.18
-20.35
-26.32
-34.37
-43.91
-53.37
-60.64
-63.66
-61.05
-52.58
-39.14
-22.51
-4.78
12.11
26.78
38.45
46.88
52.13
54.41
54.03
51.36
46.95
41.41
35.39
29.45
23.98
19.17
15.01
11.35
7.90
4.31
0.21
-4.76
-10.85
-18.26
-27.00
-36.78
-46.76
-55.56
-61.32
-62.28
-57.38
-46.75
-31.78
-14.70
2.18
17.09
29.24
38.57
45.41
50.07
52.67
53.19
51.67
48.31
43.56
37.99
32.17
26.53
21.38
16.85
12.99
9.76
7.03
4.44
1.48
-2.58
-8.43
-16.42
-26.24
-36.76
-46.21
-52.58
-54.30
-50.61
-41.87
-29.36
-14.89
-0.35
12.80
23.78
32.45
39.07
43.98
47.25
48.73
48.13
45.31
40.54
34.44
27.84
21.48
15.84
11.07
7.14
4.04
1.71
0.12
-1.03
-2.34
-4.70
-9.02
-15.84
-24.93
-35.13
-44.48
-50.82
-52.38
-48.44
-39.48
-27.01
-12.97
0.83
13.23
23.63
31.89
37.94
41.68
43.02
41.99
38.88
34.21
28.61
22.62
16.65
10.95
5.76
1.27
-2.39
-5.23
-7.54
-9.84
-12.77
-16.92
-22.63
-29.94
-38.44
-47.33
-55.39
-61.25
-63.61
-61.58
-55.02
-44.55
-31.53
-17.56
-4.16
7.60
17.09
24.11
28.66
30.83
30.79
28.83
25.40
21.06
16.40
11.89
7.86
4.38
1.34
-1.50
-4.44
-7.70
-11.44
-15.73
-20.65
-26.35
-32.93
-40.28
-47.85
-54.55
-58.87
-59.37
-55.19
-46.44
-34.28
-20.53
-7.09
4.63
13.95
20.86
25.68
28.69
30.00
29.61
27.56
24.04
19.51
14.50
9.46
4.78
0.67
-2.69
-5.17
-6.74
-7.60
-8.24
-9.34
-11.57
-15.39
-20.84
-27.52
-34.53
-40.71
-44.71
-45.37
-42.01
-34.65
-24.06
-11.57
1.29
13.19
23.24
31.06
36.66
40.21
41.88
41.83
40.17
37.04
32.69
27.49
21.94
16.62
12.05
8.52
6.04
4.36
3.02
1.63
-0.13
-2.53
-5.88
-10.55
-16.78
-24.39
-32.47
-39.45
-43.50
-43.12
-37.75
-27.96
-15.28
-1.65
11.19
22.06
30.40
36.05
39.05
39.49
37.52
33.43
27.67
20.91
13.82
7.07
1.09
-3.91
-7.98
-11.39
-14.46
-17.51
-20.72
-24.20
-28.11
-32.66
-38.16
-44.82
-52.39
-60.02
-66.25
-69.39
-68.05
-61.75
-51.06
-37.53
-23.10
-9.54
1.97
10.92
17.23
20.99
22.27
21.22
18.06
13.35
7.87
2.47
-2.14
-5.63
-8.07
-9.86
-11.51
-13.39
-15.72
-18.50
-21.73
-25.52
-30.15
-35.92
-42.92
-50.63
-57.88
-63.00
-64.37
-60.97
-52.75
-40.69
-26.39
-11.62
2.21
14.22
24.08
31.75
37.27
40.66
41.95
41.28
38.93
35.33
30.97
26.26
21.47
16.79
12.30
8.15
4.52
1.50
-0.96
-3.25
-6.07
-10.20
-16.24
-24.23
-33.41
-42.29
-49.00
-51.79
-49.61
-42.41
-31.08
-17.22
-2.49
11.67
24.38
35.19
43.90
50.40
54.46
55.98
54.94
51.63
46.60
40.56
34.25
28.22
22.85
18.27
14.51
11.44
8.98
6.93
5.00
2.69
-0.67
-5.77
-13.06
-22.41
-32.96
-43.10
-50.80
-54.20
-52.11
-44.41
-32.11
-16.96
-0.96
14.19
27.32
37.83
45.41
49.95
51.42
49.96
45.96
40.09
33.18
25.92
18.87
12.33
6.46
1.36
-2.89
-6.29
-9.02
-11.37
-13.78
-16.70
-20.62
-25.98
-33.05
-41.79
-51.53
-60.87
-67.91
-70.65
-67.72
-58.85
-45.03
-28.19
-10.65
5.59
19.20
29.59
36.78
40.98
42.49
41.59
38.64
34.15
28.70
22.88
17.18
11.91
7.18
2.97
-0.78
-4.16
-7.27
-10.29
-13.56
-17.58
-22.87
-29.81
-38.36
-47.83
-56.91
-63.78
-66.61
-64.09
-55.84
-42.58
-25.88
-7.76
9.84
25.47
38.24
47.85
54.33
57.90
58.86
57.60
54.59
50.40
45.51
40.31
35.02
29.69
24.38
19.24
14.49
10.32
6.76
3.56
0.16
-4.12
-9.98
-17.75
-27.31
-37.88
-48.02
-55.80
-59.31
-57.08
-48.75
-35.16
-18.18
-0.14
16.92
31.66
43.57
52.65
59.04
62.71
63.56
61.62
57.31
51.40
44.79
38.23
32.10
26.40
21.07
16.09
11.63
7.86
4.84
2.30
-0.31
-3.69
-8.50
-15.18
-23.80
-33.88
-44.31
-53.45
-59.34
-60.29
-55.39
-44.82
-29.75
-12.09
6.16
23.24
37.87
49.23
56.89
60.71
60.93
58.08
52.99
46.55
39.59
32.67
26.15
20.22
14.95
10.41
6.58
3.33
0.40
-2.50
-5.66
-9.29
-13.58
-18.75
-25.10
-32.77
-41.45
-50.07
-56.83
-59.71
-57.13
-48.68
-35.35
-19.23
-2.75
12.03
23.93
32.61
38.23
41.13
41.47
39.36
35.04
28.99
21.99
14.90
8.40
2.81
-1.87
-5.88
-9.43
-12.66
-15.60
-18.32
-21.03
-24.14
-28.21
-33.76
-40.94
-49.31
-57.71
-64.36
-67.34
-65.16
-57.30
-44.45
-28.35
-11.25
4.80
18.41
28.96
36.45
41.12
43.25
43.01
40.58
36.26
30.55
24.08
17.54
11.46
6.17
1.78
-1.72
-4.43
-6.53
-8.32
-10.24
-12.98
-17.25
-23.60
-32.03
-41.83
-51.51
-59.12
-62.76
-61.09
-53.75
-41.50
-25.96
-9.12
7.19
21.67
33.64
42.92
49.54
53.59
55.14
54.31
51.43
47.00
41.69
36.13
30.76
25.86
21.51
17.69
14.38
11.50
8.92
6.34
3.28
-0.83
-6.57
-14.25
-23.57
-33.59
-42.69
-48.95
-50.69
-46.98
-37.98
-24.85
-9.41
6.45
21.22
33.87
43.90
51.07
55.30
56.64
55.33
51.82
46.74
40.74
34.36
28.01
21.90
16.14
10.80
5.97
1.71
-1.93
-4.98
-7.68
-10.48
-14.03
-19.02
-25.81
-34.14
-42.94
-50.39
-54.45
-53.43
-46.64
-34.71
-19.32
-2.73
12.94
26.15
36.18
42.93
46.63
47.56
45.96
42.09
36.35
29.30
21.66
14.17
7.46
1.92
-2.38
-5.70
-8.59
-11.72
-15.66
-20.77
-27.17
-34.81
-43.56
-53.08
-62.63
-70.93
-76.24
-76.76
-71.32
-59.94
-44.01
-25.85
-8.02
7.51
19.75
28.62
34.51
37.86
38.90
37.74
34.55
29.67
23.71
17.33
11.13
5.54
0.78
-3.08
-6.10
-8.46
-10.48
-12.62
-15.46
-19.55
-25.27
-32.59
-40.87
-48.87
-54.89
-57.22
-54.59
-46.70
-34.25
-18.82
-2.33
13.45
27.24
38.40
46.72
52.21
54.99
55.27
53.32
49.62
44.70
39.06
33.10
27.12
21.38
16.12
11.62
7.96
4.98
2.30
-0.62
-4.29
-9.10
-15.25
-22.65
-30.77
-38.54
-44.38
-46.53
-43.58
-35.09
-21.80
-5.53
11.50
27.29
40.55
50.78
58.02
62.46
64.24
63.37
59.94
54.36
47.39
40.08
33.33
27.76
23.41
19.95
16.93
14.00
11.04
8.04
4.92
1.36
-3.13
-9.08
-16.70
-25.71
-35.15
-43.51
-49.03
-50.20
-46.23
-37.33
-24.69
-10.07
4.70
18.20
29.63
38.66
45.12
48.85
49.75
47.89
43.77
38.24
32.21
26.47
21.31
16.65
12.24
7.88
3.56
-0.45
-3.91
-6.76
-9.29
-12.16
-16.16
-21.99
-29.84
-39.22
-48.89
-57.04
-61.76
-61.53
-55.82
-45.19
-31.22
-15.98
-1.42
11.13
21.12
28.60
33.90
37.25
38.69
38.12
35.60
31.38
26.00
20.08
14.19
8.72
3.87
-0.26
-3.65
-6.41
-8.79
-11.28
-14.49
-19.09
-25.49
-33.63
-42.81
-51.73
-58.74
-62.20
-60.97
-54.76
-44.18
-30.53
-15.46
-0.53
13.07
24.67
33.94
40.81
45.30
47.46
47.37
45.29
41.59
36.76
31.26
25.53
19.84
14.46
9.67
5.77
2.92
1.05
-0.24
-1.60
-3.85
-7.66
-13.42
-21.10
-30.10
-39.22
-46.82
-51.17
-50.90
-45.53
-35.58
-22.47
-7.96
6.38
19.46
30.70
39.76
46.41
50.44
51.79
50.76
47.97
44.21
40.21
36.43
33.00
29.83
26.74
23.65
20.55
17.54
14.76
12.30
10.12
8.03
5.62
2.37
-2.25
-8.53
-16.26
-24.69
-32.59
-38.51
-41.23
-39.98
-34.74
-26.06
-14.99
-2.67
9.76
21.38
31.51
39.69
45.66
49.27
50.50
49.39
46.13
41.10
34.89
28.26
21.90
16.28
11.43
7.11
3.00
-1.03
-4.78
-7.94
-10.29
-12.08
-14.01
-16.98
-21.72
-28.40
-36.48
-44.82
-51.99
-56.59
-57.61
-54.58
-47.69
-37.72
-25.82
-13.32
-1.47
8.75
16.71
22.10
24.89
25.23
23.48
20.14
15.85
11.20
6.66
2.52
-1.15
-4.36
-7.18
-9.65
-11.82
-13.72
-15.37
-16.86
-18.40
-20.33
-23.17
-27.38
-33.19
-40.26
-47.60
-53.66
-56.82
-55.88
-50.50
-41.25
-29.36
-16.32
-3.49
8.16
18.06
25.95
31.73
35.32
36.68
35.91
33.29
29.38
24.88
20.40
16.25
12.44
8.75
4.96
1.12
-2.46
-5.44
-7.67
-9.41
-11.27
-14.00
-18.18
-23.96
-30.97
-38.31
-44.75
-48.98
-49.88
-46.83
-39.88
-29.75
-17.60
-4.75
7.63
18.68
27.92
35.05
39.97
42.60
43.00
41.39
38.30
34.38
30.39
26.88
24.12
22.05
20.34
18.63
16.68
14.38
11.76
8.83
5.58
1.89
-2.38
-7.39
-13.27
-19.96
-27.16
-34.20
-40.05
-43.55
-43.75
-40.20
-33.13
-23.29
-11.72
0.49
12.41
23.21
32.18
38.72
42.46
43.32
41.59
37.93
33.12
27.98
23.12
18.88
15.35
12.36
9.62
6.83
3.81
0.51
-2.95
-6.42
-9.84
-13.28
-17.05
-21.56
-27.14
-33.83
-41.15
-48.08
-53.23
-55.19
-52.99
-46.39
-36.06
-23.30
-9.74
3.11
14.13
22.68
28.52
31.62
32.08
30.13
26.15
20.68
14.46
8.30
2.87
-1.39
-4.48
-6.65
-8.37
-10.10
-12.17
-14.67
-17.51
-20.62
-24.08
-28.22
-33.50
-40.15
-47.93
-55.83
-62.24
-65.43
-64.12
-57.93
-47.58
-34.53
-20.53
-7.08
4.81
14.66
22.25
27.56
30.59
31.48
30.57
28.36
25.44
22.28
19.17
16.11
12.98
9.61
5.92
2.00
-1.98
-5.84
-9.50
-13.03
-16.68
-20.79
-25.75
-31.78
-38.72
-45.87
-52.05
-55.80
-55.84
-51.48
-42.92
-31.15
-17.70
-4.11
8.42
19.16
27.77
34.08
37.96
39.38
38.54
35.90
32.21
28.23
24.57
21.44
18.76
16.25
13.75
11.21
8.73
6.46
4.36
2.17
-0.56
-4.36
-9.72
-16.87
-25.69
-35.58
-45.33
-53.32
-57.84
-57.51
-51.76
-41.09
-26.88
-11.07
4.40
18.09
29.20
37.49
43.04
46.03
46.62
45.08
41.89
37.68
33.14
28.70
24.51
20.43
16.30
12.14
8.27
5.11
2.93
1.58
0.44
-1.39
-4.80
-10.31
-17.95
-27.15
-36.86
-45.65
-51.94
-54.34
-51.94
-44.58
-33.01
-18.68
-3.41
11.08
23.46
32.90
39.08
42.00
41.96
39.51
35.25
29.91
24.06
18.07
12.09
6.17
0.38
-5.12
-10.05
-14.13
-17.26
-19.64
-21.77
-24.40
-28.32
-34.08
-41.80
-50.95
-60.32
-68.14
-72.57
-72.02
-65.72
-53.99
-38.14
-20.22
-2.41
13.42
26.14
35.25
40.76
42.97
42.25
39.16
34.38
28.66
22.70
16.91
11.43
6.25
1.35
-3.10
-6.85
-9.74
-11.98
-14.14
-17.08
-21.59
-28.09
-36.41
-45.73
-54.67
-61.51
-64.52
-62.41
-54.72
-42.00
-25.70
-7.81
9.67
25.13
37.60
46.69
52.42
55.02
54.86
52.38
48.12
42.61
36.43
29.99
23.70
17.86
12.72
8.46
5.03
2.19
-0.54
-3.69
-7.80
-13.30
-20.43
-29.14
-38.96
-48.78
-56.90
-61.27
-60.05
-52.33
-38.56
-20.49
-0.63
18.55
35.35
49.01
59.54
67.20
72.15
74.33
73.70
70.44
65.09
58.47
51.34
44.26
37.47
31.06
25.00
19.37
14.21
9.47
4.97
0.32
-4.96
-11.41
-19.40
-29.01
-39.67
-50.13
-58.47
-62.59
-60.88
-52.81
-39.22
-22.00
-3.55
14.00
29.27
41.65
51.10
57.74
61.63
62.68
60.92
56.64
50.51
43.44
36.36
29.96
24.42
19.59
15.14
10.82
6.59
2.57
-1.22
-5.05
-9.53
-15.56
-23.88
-34.62
-46.97
-59.14
-68.67
-73.16
-71.07
-62.20
-47.77
-29.98
-11.29
6.23
21.26
33.19
41.94
47.56
50.21
50.14
47.75
43.61
38.36
32.64
26.89
21.44
16.43
11.98
8.05
4.61
1.51
-1.49
-4.75
-8.75
-14.05
-21.15
-30.17
-40.64
-51.32
-60.29
-65.45
-65.09
-58.46
-46.04
-29.43
-10.83
7.59
24.15
37.85
48.29
55.45
59.54
60.86
59.88
57.13
53.14
48.38
43.14
37.61
31.95
26.34
21.03
16.26
12.14
8.55
5.06
1.10
-4.01
-10.82
-19.58
-29.92
-40.76
-50.35
-56.60
-57.74
-52.89
-42.38
-27.66
-10.66
6.70
23.02
37.53
49.84
59.69
66.80
70.86
71.73
69.61
65.04
58.84
51.90
45.02
38.71
33.16
28.31
23.93
19.83
15.97
12.32
8.74
4.89
0.17
-6.03
-14.09
-23.81
-34.34
-44.23
-51.77
-55.29
-53.67
-46.57
-34.61
-19.18
-2.15
14.59
29.55
41.84
51.20
57.66
61.38
62.49
61.07
57.41
52.08
45.88
39.66
34.07
29.35
25.35
21.76
18.27
14.76
11.22
7.59
3.62
-1.19
-7.43
-15.51
-25.39
-36.45
-47.52
-57.00
-63.33
-65.30
-62.37
-54.85
-43.68
-30.22
-15.89
-1.99
10.52
20.93
28.79
33.88
36.15
35.86
33.46
29.58
24.92
20.07
15.42
11.13
7.17
3.45
-0.09
-3.45
-6.55
-9.46
-12.31
-15.45
-19.34
-24.38
-30.74
-38.11
-45.62
-51.91
-55.49
-55.13
-50.37
-41.60
-29.94
-16.82
-3.60
8.77
19.72
28.85
35.81
40.23
41.89
40.88
37.70
33.15
28.13
23.40
19.43
16.32
13.95
12.03
10.24
8.30
5.99
3.16
-0.34
-4.67
-10.02
-16.49
-24.02
-32.23
-40.23
-46.72
-50.23
-49.54
-44.11
-34.34
-21.47
-7.23
6.70
19.05
29.15
36.84
42.17
45.25
46.18
45.16
42.54
38.85
34.67
30.44
26.37
22.45
18.57
14.73
11.03
7.66
4.73
2.25
-0.05
-2.57
-5.83
-10.32
-16.29
-23.52
-31.23
-38.14
-42.75
-43.77
-40.55
-33.31
-23.03
-11.15
0.94
12.18
21.97
30.01
36.09
39.97
41.42
40.41
37.27
32.73
27.74
23.11
19.29
16.26
13.72
11.27
8.71
6.07
3.46
0.92
-1.73
-4.84
-8.86
-14.19
-21.00
-29.08
-37.69
-45.61
-51.32
-53.40
-51.02
-44.24
-34.04
-21.96
-9.63
1.59
10.84
17.64
21.79
23.24
22.16
18.95
14.35
9.20
4.35
0.34
-2.65
-4.77
-6.32
-7.65
-9.01
-10.55
-12.36
-14.55
-17.24
-20.56
-24.64
-29.52
-35.08
-40.94
-46.38
-50.38
-51.81
-49.73
-43.80
-34.51
-23.08
-11.12
-0.02
9.37
16.79
22.32
26.00
27.80
27.59
25.51
22.03
17.92
13.88
10.29
7.16
4.30
1.54
-1.07
-3.40
-5.38
-7.20
-9.29
-12.15
-16.14
-21.31
-27.39
-33.80
-39.63
-43.75
-44.99
-42.53
-36.17
-26.59
-15.15
-3.46
7.09
15.74
22.37
27.22
30.60
32.64
33.24
32.34
30.08
26.84
23.20
19.65
16.51
13.79
11.34
9.02
6.83
4.89
3.34
2.11
0.77
-1.37
-5.05
-10.71
-18.08
-26.16
-33.32
-37.88
-38.51
-34.80
-27.29
-17.25
-6.14
4.74
14.59
23.04
29.96
35.20
38.59
39.93
39.19
36.61
32.63
27.82
22.70
17.65
12.91
8.62
4.88
1.72
-0.83
-2.87
-4.58
-6.26
-8.25
-10.97
-14.80
-20.00
-26.50
-33.79
-40.89
-46.48
-49.24
-48.22
-43.15
-34.52
-23.59
-11.88
-0.94
8.11
14.66
18.57
20.01
19.35
16.99
13.40
9.07
4.49
0.10
-3.78
-6.99
-9.54
-11.59
-13.29
-14.85
-16.44
-18.28
-20.59
-23.66
-27.74
-32.96
-39.21
-45.99
-52.42
-57.29
-59.37
-57.66
-51.80
-42.20
-29.92
-16.46
-3.30
8.36
17.82
24.75
29.13
31.07
30.80
28.64
25.04
20.54
15.77
11.20
7.13
3.60
0.52
-2.25
-4.83
-7.30
-9.81
-12.61
-16.10
-20.72
-26.73
-34.00
-41.88
-49.18
-54.47
-56.42
-54.18
-47.62
-37.36
-24.62
-10.88
2.53
14.63
24.84
32.89
38.56
41.69
42.18
40.24
36.43
31.61
26.66
22.29
18.77
16.08
13.97
12.19
10.59
9.00
7.23
5.00
1.94
-2.39
-8.31
-15.90
-24.79
-34.00
-41.96
-46.95
-47.56
-43.21
-34.36
-22.29
-8.64
5.11
17.90
29.10
38.33
45.29
49.83
51.91
51.82
50.05
47.09
43.39
39.21
34.71
30.09
25.59
21.47
17.90
14.90
12.33
9.92
7.36
4.23
0.06
-5.63
-13.14
-22.29
-32.29
-41.71
-48.75
-51.74
-49.62
-42.32
-30.74
-16.51
-1.54
12.50
24.44
33.70
40.18
43.99
45.33
44.34
41.18
36.21
29.93
23.05
16.27
10.14
4.93
0.67
-2.74
-5.51
-7.75
-9.64
-11.51
-13.91
-17.58
-23.22
-31.10
-40.78
-50.94
-59.60
-64.72
-64.73
-59.09
-48.35
-34.04
-18.10
-2.39
11.62
22.99
31.24
36.23
38.11
37.27
34.37
30.18
25.43
20.67
16.20
12.09
8.32
4.90
1.84
-0.86
-3.31
-5.70
-8.39
-11.79
-16.33
-22.35
-29.98
-38.95
-48.31
-56.46
-61.38
-61.31
-55.36
-43.93
-28.67
-11.85
4.40
18.72
30.55
39.92
46.92
51.46
53.35
52.52
49.35
44.59
39.15
33.74
28.70
23.96
19.33
14.74
10.30
6.25
2.70
-0.49
-3.80
-7.92
-13.48
-20.80
-29.59
-38.92
-47.28
-52.93
-54.31
-50.50
-41.49
-28.21
-12.30
4.38
20.17
33.90
44.97
53.15
58.49
61.17
61.40
59.51
55.92
51.15
45.72
40.11
34.67
29.69
25.38
21.89
19.21
17.15
15.30
13.09
9.89
5.10
-1.61
-10.25
-20.30
-30.68
-39.79
-45.83
-47.28
-43.35
-34.29
-21.35
-6.34
8.83
22.60
33.95
42.38
47.79
50.29
50.16
47.83
43.80
38.62
32.76
26.68
20.77
15.35
10.61
6.53
2.90
-0.61
-4.19
-7.97
-11.92
-16.09
-20.75
-26.40
-33.47
-42.02
-51.37
-60.03
-66.02
-67.44
-63.15
-53.24
-39.02
-22.62
-6.35
7.98
19.33
27.45
32.48
34.69
34.30
31.59
27.06
21.51
15.87
10.95
7.09
4.15
1.64
-0.94
-3.86
-7.12
-10.49
-13.83
-17.18
-20.98
-25.82
-32.24
-40.32
-49.36
-57.82
-63.61
-64.79
-60.17
-49.84
-35.12
-18.17
-1.23
13.93
26.40
35.98
42.88
47.33
49.46
49.29
46.91
42.68
37.25
31.34
25.64
20.57
16.24
12.62
9.59
7.09
5.03
3.15
1.03
-2.06
-6.80
-13.61
-22.34
-32.11
-41.39
-48.34
-51.23
-48.99
-41.53
-29.81
-15.54
-0.65
13.33
25.48
35.47
43.32
49.05
52.52
53.61
52.36
49.16
44.68
39.67
34.71
30.06
25.80
21.87
18.36
15.33
12.76
10.53
8.28
5.53
1.78
-3.37
-10.04
-17.92
-26.23
-33.71
-38.83
-40.23
-37.07
-29.42
-18.24
-5.08
8.34
20.59
30.88
38.92
44.75
48.50
50.18
49.71
47.06
42.44
36.39
29.62
22.84
16.55
10.99
6.19
2.09
-1.27
-3.84
-5.65
-6.96
-8.38
-10.76
-14.98
-21.55
-30.28
-40.08
-49.13
-55.31
-56.88
-53.03
-44.16
-31.73
-17.68
-3.90
8.26
18.09
25.37
30.09
32.28
31.96
29.25
24.53
18.54
12.16
6.25
1.35
-2.40
-5.25
-7.64
-9.88
-12.15
-14.47
-16.95
-19.88
-23.88
-29.60
-37.41
-46.91
-56.83
-65.20
-69.87
-69.21
-62.64
-50.82
-35.40
-18.59
-2.46
11.45
22.28
29.71
33.88
35.13
33.96
30.99
26.91
22.33
17.73
13.41
9.54
6.25
3.58
1.51
-0.10
-1.62
-3.49
-6.17
-9.93
-14.84
-20.82
-27.64
-34.87
-41.72
-46.95
-49.10
-46.96
-39.99
-28.61
-14.19
1.42
16.41
29.42
39.74
47.23
52.03
54.45
54.78
53.27
50.19
45.89
40.81
35.48
30.42
25.98
22.26
19.10
16.26
13.52
10.77
7.90
4.70
0.71
-4.63
-11.70
-20.32
-29.56
-37.77
-43.09
-44.03
-39.94
-31.27
-19.31
-5.75
7.81
20.14
30.52
38.40
43.44
45.48
44.70
41.72
37.46
32.82
28.41
24.37
20.49
16.57
12.58
8.72
5.24
2.21
-0.63
-3.74
-7.57
-12.46
-18.49
-25.60
-33.59
-41.90
-49.49
-54.89
-56.42
-52.87
-44.03
-30.94
-15.63
-0.48
12.64
22.75
29.83
34.36
36.76
37.15
35.35
31.28
25.22
17.92
10.43
3.75
-1.54
-5.33
-7.93
-9.73
-11.15
-12.48
-14.01
-16.12
-19.31
-24.10
-30.81
-39.27
-48.61
-57.25
-63.20
-64.58
-60.27
-50.33
-36.13
-19.92
-4.12
9.34
19.49
26.29
30.30
32.22
32.51
31.40
28.97
25.39
21.01
16.30
11.75
7.70
4.26
1.41
-1.01
-3.22
-5.52
-8.29
-12.00
-17.09
-23.78
-31.80
-40.25
-47.62
-52.17
-52.38
-47.47
-37.72
-24.35
-9.19
5.82
19.22
30.16
38.41
44.11
47.52
48.88
48.33
46.00
42.06
36.86
30.90
24.82
19.28
14.79
11.53
9.49
8.29
7.42
6.17
3.81
-0.31
-6.62
-14.98
-24.60
-33.93
-41.04
-44.09
-41.91
-34.43
-22.67
-8.38
6.46
20.17
31.65
40.42
46.41
49.89
51.13
50.47
48.16
44.44
39.59
33.97
28.04
22.30
17.19
12.92
9.50
6.70
4.19
1.61
-1.41
-5.35
-10.64
-17.49
-25.65
-34.21
-41.74
-46.65
-47.67
-44.22
-36.55
-25.65
-12.92
0.12
12.16
22.26
29.83
34.68
36.86
36.56
34.05
29.65
23.79
16.97
9.88
3.19
-2.51
-6.92
-10.05
-12.24
-13.99
-15.79
-18.11
-21.34
-25.75
-31.45
-38.21
-45.21
-51.16
-54.46
-53.70
-48.23
-38.42
-25.60
-11.68
1.50
12.56
20.84
26.23
29.04
29.66
28.49
25.87
22.09
17.54
12.63
7.85
3.60
0.10
-2.70
-5.07
-7.29
-9.58
-12.03
-14.77
-18.05
-22.27
-27.69
-34.13
-40.72
-45.93
-48.09
-45.94
-39.18
-28.54
-15.51
-1.84
10.98
21.98
30.74
37.13
41.26
43.17
42.99
40.82
36.92
31.68
25.62
19.34
13.43
8.29
4.22
1.23
-0.83
-2.27
-3.56
-5.27
-7.98
-12.15
-17.90
-24.85
-32.01
-37.96
-41.13
-40.23
-34.73
-25.00
-12.27
1.78
15.41
27.27
36.62
43.28
47.43
49.35
49.28
47.37
43.78
38.80
32.92
26.79
21.09
16.34
12.72
10.02
7.78
5.47
2.71
-0.64
-4.68
-9.51
-15.33
-22.24
-29.87
-37.20
-42.66
-44.52
-41.66
-33.97
-22.52
-9.11
4.33
16.33
26.13
33.48
38.38
40.86
40.85
38.47
34.13
28.58
22.68
17.17
12.42
8.44
5.00
1.80
-1.29
-4.27
-7.11
-9.85
-12.76
-16.27
-20.77
-26.41
-32.83
-39.15
-44.11
-46.34
-44.86
-39.30
-30.15
-18.61
-6.26
5.30
14.86
21.81
26.04
27.83
27.57
25.53
21.92
16.99
11.16
5.10
-0.40
-4.71
-7.55
-9.12
-9.92
-10.60
-11.69
-13.48
-16.15
-19.80
-24.51
-30.20
-36.41
-42.18
-46.24
-47.21
-44.22
-37.14
-26.68
-14.19
-1.23
10.84
21.12
29.16
34.85
38.20
39.27
38.13
34.97
30.25
24.57
18.73
13.40
9.04
5.78
3.46
1.70
0.02
-2.02
-4.76
-8.44
-13.17
-18.95
-25.59
-32.61
-39.15
-44.07
-46.14
-44.45
-38.74
-29.59
-18.22
-6.21
5.09
14.82
22.72
28.91
33.61
36.87
38.55
38.43
36.37
32.60
27.64
22.28
17.30
13.28
10.37
8.41
7.04
5.83
4.42
2.47
-0.37
-4.48
-10.11
-17.12
-24.81
-31.89
-36.77
-38.05
-34.95
-27.60
-16.98
-4.58
8.08
19.79
29.82
37.81
43.64
47.18
48.37
47.22
43.96
39.14
33.52
27.90
22.84
18.57
14.96
11.75
8.82
6.17
3.85
1.75
-0.52
-3.64
-8.23
-14.60
-22.43
-30.79
-38.32
-43.66
-45.73
-44.02
-38.56
-29.91
-19.04
-7.14
4.57
15.01
23.38
29.23
32.41
33.13
31.82
29.05
25.35
21.14
16.66
12.09
7.60
3.49
0.07
-2.44
-4.16
-5.53
-7.27
-10.04
-14.21
-19.78
-26.36
-33.38
-40.14
-45.90
-49.80
-51.03
-48.94
-43.29
-34.43
-23.29
-11.14
0.67
11.06
19.30
25.05
28.27
29.12
27.90
25.06
21.07
16.40
11.47
6.61
2.07
-1.91
-5.18
-7.80
-9.95
-12.02
-14.48
-17.76
-22.11
-27.54
-33.79
-40.30
-46.28
-50.73
-52.57
-50.90
-45.26
-35.86
-23.65
-10.05
3.38
15.36
25.09
32.29
37.03
39.52
39.95
38.48
35.34
30.88
25.61
20.12
14.94
10.46
6.88
4.17
2.18
0.62
-0.89
-2.89
-5.96
-10.59
-17.03
-25.04
-33.81
-42.01
-48.07
-50.54
-48.50
-41.82
-31.27
-18.23
-4.33
9.00
20.80
30.59
38.22
43.63
46.76
47.57
46.23
43.14
38.92
34.22
29.56
25.20
21.23
17.63
14.40
11.56
9.07
6.76
4.33
1.36
-2.51
-7.58
-13.92
-21.24
-28.87
-35.75
-40.66
-42.48
-40.46
-34.52
-25.17
-13.39
-0.37
12.71
24.86
35.26
43.28
48.46
50.61
49.84
46.59
41.56
35.52
29.24
23.31
18.03
13.53
9.76
6.55
3.73
1.14
-1.41
-4.08
-7.07
-10.59
-14.86
-20.04
-26.12
-32.69
-38.94
-43.69
-45.63
-43.71
-37.51
-27.40
-14.55
-0.63
12.69
24.05
32.63
38.09
40.54
40.19
37.42
32.64
26.37
19.27
12.03
5.30
-0.42
-4.92
-8.29
-10.79
-12.82
-14.71
-16.79
-19.38
-22.77
-27.28
-33.01
-39.85
-47.20
-54.05
-59.07
-60.94
-58.67
-51.94
-41.24
-27.76
-13.09
1.20
13.83
24.03
31.47
36.08
37.93
37.24
34.34
29.77
24.24
18.49
13.06
8.27
4.11
0.44
-2.98
-6.27
-9.54
-12.88
-16.47
-20.63
-25.75
-32.16
-39.83
-48.11
-55.71
-60.88
-61.94
-57.84
-48.62
-35.40
-20.02
-4.44
9.79
21.82
31.37
38.45
43.07
45.07
44.43
41.39
36.60
31.04
25.65
21.04
17.24
13.86
10.46
6.89
3.40
0.40
-1.88
-3.76
-6.08
-9.87
-15.79
-23.73
-32.68
-40.94
-46.67
-48.32
-45.10
-37.07
-25.15
-10.82
4.25
18.55
31.01
41.00
48.31
52.93
54.91
54.40
51.66
47.10
41.32
35.00
28.76
23.04
18.02
13.70
10.01
6.86
4.10
1.54
-1.19
-4.67
-9.60
-16.50
-25.41
-35.61
-45.54
-53.23
-56.75
-54.90
-47.57
-35.71
-21.03
-5.45
9.34
22.17
32.33
39.53
43.70
44.95
43.55
39.96
34.80
28.77
22.58
16.80
11.76
7.46
3.75
0.36
-2.97
-6.37
-9.91
-13.67
-17.89
-22.96
-29.32
-37.08
-45.74
-54.12
-60.44
-62.88
-60.17
-52.09
-39.57
-24.47
-8.97
5.05
16.41
24.72
30.10
32.90
33.41
31.82
28.34
23.34
17.44
11.37
5.84
1.22
-2.49
-5.57
-8.46
-11.52
-14.96
-18.81
-23.09
-27.91
-33.42
-39.69
-46.45
-52.90
-57.85
-59.85
-57.69
-50.80
-39.46
-24.82
-8.53
7.60
22.10
34.03
43.00
49.02
52.29
53.04
51.43
47.62
41.94
34.93
27.36
20.17
14.13
9.66
6.69
4.65
2.76
0.31
-3.18
-7.88
-13.77
-20.76
-28.60
-36.73
-44.11
-49.26
-50.55
-46.87
-38.02
-24.95
-9.42
6.47
21.04
33.26
42.86
49.95
54.69
57.11
57.09
54.63
50.08
44.14
37.72
31.65
26.44
22.25
18.99
16.44
14.38
12.55
10.58
7.91
3.90
-2.03
-10.11
-19.96
-30.44
-39.81
-46.07
-47.52
-43.36
-33.96
-20.70
-5.51
9.84
24.16
36.89
47.83
56.72
63.13
66.54
66.75
64.03
59.22
53.38
47.44
41.94
37.00
32.51
28.25
24.06
19.92
15.87
11.92
7.97
3.79
-0.92
-6.54
-13.38
-21.52
-30.63
-39.96
-48.25
-54.04
-55.98
-53.22
-45.70
-34.16
-19.92
-4.55
10.51
24.21
35.82
44.88
51.04
54.09
54.07
51.38
46.83
41.40
36.03
31.26
27.12
23.30
19.41
15.32
11.22
7.51
4.48
2.07
-0.24
-3.20
-7.56
-13.78
-21.86
-31.30
-41.07
-49.72
-55.66
-57.52
-54.55
-46.94
-35.72
-22.41
-8.55
4.70
16.61
26.69
34.50
39.62
41.71
40.82
37.49
32.60
27.11
21.80
17.08
13.03
9.53
6.43
3.57
0.86
-1.86
-4.70
-7.84
-11.47
-15.83
-21.14
-27.53
-34.84
-42.53
-49.55
-54.57
-56.31
-53.92
-47.34
-37.23
-24.83
-11.55
1.48
13.49
23.98
32.65
39.12
43.08
44.41
43.38
40.66
37.10
33.44
30.09
27.03
23.99
20.65
16.91
12.96
9.17
5.86
3.12
0.65
-2.10
-5.85
-11.19
-18.22
-26.50
-34.96
-42.16
-46.70
-47.57
-44.40
-37.51
-27.75
-16.14
-3.80
8.35
19.54
29.21
36.93
42.42
45.51
46.21
44.74
41.57
37.38
32.95
28.89
25.50
22.67
20.03
17.17
13.98
10.65
7.55
4.94
2.73
0.49
-2.39
-6.47
-12.02
-18.93
-26.70
-34.47
-41.09
-45.35
-46.22
-43.18
-36.43
-26.89
-15.92
-4.81
5.44
14.38
21.89
27.98
32.58
35.47
36.50
35.75
33.59
30.61
27.43
24.45
21.73
19.09
16.27
13.15
9.86
6.72
4.01
1.83
-0.06
-2.24
-5.39
-10.12
-16.60
-24.46
-32.83
-40.45
-46.04
-48.62
-47.73
-43.52
-36.57
-27.77
-17.98
-8.04
1.29
9.29
15.29
18.83
19.81
18.58
15.83
12.40
8.93
5.73
2.76
-0.10
-2.91
-5.52
-7.69
-9.26
-10.26
-10.94
-11.63
-12.61
-14.14
-16.45
-19.83
-24.51
-30.37
-36.74
-42.41
-45.91
-45.96
-42.05
-34.61
-24.78
-13.99
-3.50
5.85
13.69
19.82
24.09
26.33
26.49
24.81
21.85
18.31
14.84
11.76
9.03
6.41
3.70
0.91
-1.73
-3.94
-5.59
-6.82
-8.04
-9.82
-12.71
-17.07
-22.93
-29.91
-37.14
-43.37
-47.23
-47.69
-44.30
-37.43
-28.01
-17.21
-6.16
4.31
13.60
21.23
26.85
30.23
31.39
30.66
28.58
25.76
22.74
19.87
17.27
14.96
12.80
10.64
8.34
5.90
3.42
1.11
-0.92
-2.78
-4.89
-7.89
-12.34
-18.46
-25.86
-33.50
-39.98
-43.87
-44.18
-40.59
-33.50
-23.82
-12.65
-1.00
10.29
20.60
29.34
35.93
39.95
41.25
40.13
37.28
33.60
29.89
26.65
23.93
21.54
19.14
16.46
13.47
10.33
7.30
4.66
2.42
0.29
-2.26
-5.93
-11.28
-18.46
-27.06
-36.07
-44.04
-49.51
-51.30
-48.92
-42.60
-33.26
-22.15
-10.53
0.56
10.43
18.65
24.91
29.01
30.79
30.28
27.77
23.77
18.87
13.68
8.61
3.92
-0.24
-3.84
-6.92
-9.50
-11.72
-13.82
-16.08
-18.86
-22.49
-27.19
-33.02
-39.74
-46.72
-52.99
-57.39
-58.79
-56.48
-50.45
-41.37
-30.48
-19.13
-8.44
0.93
8.70
14.80
19.14
21.57
21.99
20.55
17.68
14.03
10.24
6.75
3.68
0.89
-1.73
-4.25
-6.62
-8.77
-10.82
-13.11
-16.08
-20.19
-25.69
-32.46
-39.93
-47.13
-52.78
-55.56
-54.49
-49.23
-40.18
-28.40
-15.26
-2.07
10.16
20.75
29.29
35.49
39.15
40.27
39.12
36.13
31.91
27.06
22.05
17.25
12.94
9.30
6.36
4.01
1.96
-0.14
-2.69
-5.97
-10.22
-15.60
-22.13
-29.51
-37.10
-43.78
-48.14
-48.89
-45.27
-37.35
-26.00
-12.64
1.23
14.40
26.11
35.99
43.82
49.40
52.51
53.10
51.34
47.76
43.05
37.87
32.78
28.07
23.86
20.15
16.94
14.19
11.73
9.30
6.44
2.65
-2.52
-9.29
-17.60
-26.93
-36.36
-44.67
-50.50
-52.68
-50.53
-44.07
-33.99
-21.50
-7.92
5.45
17.55
27.55
34.85
39.14
40.39
38.96
35.47
30.63
25.10
19.42
13.99
9.13
5.07
1.94
-0.38
-2.21
-3.96
-6.06
-8.75
-12.21
-16.70
-22.50
-29.81
-38.44
-47.52
-55.56
-60.72
-61.42
-56.82
-47.22
-33.83
-18.40
-2.78
11.58
23.73
33.12
39.48
42.65
42.67
39.85
34.77
28.37
21.66
15.53
10.56
6.86
4.24
2.29
0.66
-0.98
-2.91
-5.38
-8.70
-13.22
-19.18
-26.58
-35.05
-43.69
-51.05
-55.48
-55.49
-50.29
-40.08
-26.03
-9.94
6.26
21.04
33.41
42.86
49.23
52.55
52.98
50.91
46.97
41.91
36.39
30.86
25.46
20.28
15.40
11.01
7.33
4.41
2.01
-0.32
-3.16
-7.05
-12.33
-19.10
-27.08
-35.57
-43.36
-48.89
-50.59
-47.28
-38.73
-25.67
-9.70
7.21
23.25
37.07
47.93
55.58
60.13
61.82
60.94
57.78
52.74
46.35
39.26
32.24
25.96
20.84
16.93
13.92
11.35
8.85
6.19
3.22
-0.28
-4.74
-10.70
-18.51
-27.95
-37.95
-46.69
-52.11
-52.50
-47.17
-36.63
-22.40
-6.47
9.24
23.41
35.25
44.46
50.89
54.39
54.82
52.28
47.21
40.44
33.02
25.84
19.49
14.08
9.32
4.88
0.57
-3.56
-7.37
-10.82
-14.21
-18.14
-23.27
-30.11
-38.60
-47.95
-56.77
-63.27
-65.80
-63.32
-55.65
-43.57
-28.55
-12.34
3.41
17.43
28.92
37.49
42.99
45.45
45.03
42.03
36.98
30.58
23.60
16.81
10.75
5.63
1.36
-2.38
-5.88
-9.37
-12.93
-16.76
-21.17
-26.66
-33.68
-42.25
-51.65
-60.42
-66.57
-68.21
-64.15
-54.31
-39.78
-22.52
-4.67
11.91
25.96
36.92
44.69
49.43
51.41
50.87
48.13
43.59
37.77
31.32
24.88
19.01
14.03
10.04
6.91
4.35
2.00
-0.61
-3.96
-8.61
-14.98
-23.28
-33.05
-43.14
-51.75
-56.91
-57.12
-51.72
-41.17
-26.78
-10.30
6.49
22.14
35.61
46.28
53.85
58.37
60.06
59.37
56.79
52.86
48.06
42.84
37.63
32.70
28.19
24.08
20.24
16.51
12.77
8.81
4.31
-1.19
-8.16
-16.92
-27.28
-38.41
-48.88
-56.84
-60.52
-58.73
-51.16
-38.53
-22.36
-4.56
13.01
28.91
42.23
52.56
59.73
63.76
64.76
63.07
59.21
53.95
48.04
42.13
36.54
31.28
26.20
21.17
16.22
11.61
7.63
4.42
1.80
-0.88
-4.54
-10.15
-18.28
-28.71
-40.24
-50.83
-58.14
-60.22
-56.17
-46.38
-32.36
-16.15
0.24
15.31
28.11
38.08
44.87
48.26
48.31
45.49
40.68
34.90
29.02
23.47
18.27
13.22
8.15
3.19
-1.34
-5.13
-8.09
-10.46
-12.78
-15.72
-19.95
-25.91
-33.59
-42.39
-51.08
-57.95
-61.27
-59.82
-53.23
-42.10
-27.78
-12.02
3.51
17.44
28.84
37.22
42.43
44.60
44.11
41.50
37.36
32.33
26.96
21.70
16.78
12.31
8.23
4.49
1.08
-1.97
-4.60
-6.93
-9.31
-12.37
-16.84
-23.19
-31.35
-40.38
-48.59
-53.94
-54.70
-50.02
-40.24
-26.81
-11.69
3.25
16.69
27.96
36.86
43.35
47.40
49.02
48.40
46.06
42.69
38.94
35.19
31.52
27.73
23.66
19.32
14.94
10.90
7.44
4.51
1.76
-1.48
-5.84
-11.74
-19.17
-27.57
-35.91
-42.86
-47.07
-47.48
-43.65
-35.80
-24.70
-11.48
2.66
16.62
29.50
40.53
49.09
54.62
56.88
55.94
52.33
46.99
40.99
35.22
30.26
26.26
22.97
20.02
17.02
13.75
10.22
6.63
3.25
0.15
-2.86
-6.34
-10.90
-16.99
-24.49
-32.60
-39.92
-44.87
-46.22
-43.36
-36.47
-26.36
-14.23
-1.42
10.86
21.56
29.97
35.62
38.32
38.11
35.37
30.70
25.00
19.27
14.39
10.83
8.57
7.12
5.86
4.34
2.48
0.49
-1.38
-3.14
-5.10
-7.82
-11.84
-17.44
-24.47
-32.28
-39.86
-45.96
-49.37
-49.19
-45.06
-37.29
-26.77
-14.79
-2.72
8.31
17.50
24.44
29.02
31.27
31.35
29.44
25.85
21.04
15.60
10.25
5.60
1.98
-0.57
-2.32
-3.70
-5.09
-6.72
-8.67
-10.95
-13.63
-16.94
-21.24
-26.77
-33.47
-40.73
-47.38
-51.93
-52.97
-49.73
-42.34
-31.84
-19.79
-7.71
3.35
12.89
20.83
27.08
31.42
33.43
32.88
29.92
25.21
19.81
14.73
10.62
7.62
5.39
3.49
1.63
-0.21
-1.82
-3.03
-3.96
-5.04
-6.96
-10.37
-15.55
-22.25
-29.70
-36.72
-41.99
-44.35
-43.01
-37.83
-29.27
-18.37
-6.47
5.03
15.07
23.04
28.80
32.53
34.52
35.01
34.18
32.25
29.49
26.33
23.19
20.41
18.10
16.14
14.18
11.95
9.35
6.52
3.78
1.32
-0.98
-3.62
-7.28
-12.43
-19.06
-26.51
-33.64
-39.11
-41.85
-41.25
-37.29
-30.43
-21.43
-11.14
-0.40
10.05
19.55
27.52
33.43
36.89
37.73
36.08
32.42
27.52
22.26
17.50
13.80
11.36
9.97
9.10
8.13
6.64
4.51
1.94
-0.69
-3.13
-5.51
-8.33
-12.27
-17.80
-24.89
-32.86
-40.42
-46.12
-48.64
-47.23
-41.82
-33.01
-21.84
-9.58
2.55
13.51
22.52
29.02
32.75
33.66
32.00
28.23
22.95
16.86
10.69
4.98
0.11
-3.80
-6.79
-9.07
-10.89
-12.56
-14.37
-16.52
-19.11
-22.13
-25.55
-29.47
-34.03
-39.34
-45.16
-50.76
-54.89
-56.22
-53.74
-47.24
-37.36
-25.40
-12.89
-1.21
8.62
16.12
21.20
24.08
25.10
24.61
22.85
20.03
16.34
12.11
7.76
3.66
0.06
-3.03
-5.77
-8.35
-10.87
-13.27
-15.58
-17.94
-20.75
-24.51
-29.56
-35.84
-42.66
-48.82
-52.84
-53.42
-49.89
-42.43
-32.01
-19.96
-7.62
4.06
14.52
23.44
30.46
35.13
37.01
36.01
32.56
27.57
22.19
17.35
13.49
10.50
7.93
5.38
2.65
-0.15
-2.75
-5.00
-7.01
-9.19
-12.18
-16.62
-22.87
-30.81
-39.67
-48.07
-54.32
-56.83
-54.61
-47.49
-36.25
-22.33
-7.37
7.13
20.01
30.52
38.25
43.03
44.92
44.19
41.37
37.20
32.47
27.89
23.96
20.79
18.22
15.88
13.50
10.89
8.06
5.04
1.81
-1.71
-5.70
-10.39
-15.98
-22.57
-30.02
-37.81
-44.96
-50.13
-51.91
-49.32
-42.18
-31.19
-17.78
-3.54
10.21
22.65
33.30
41.81
47.77
50.73
50.46
47.27
41.95
35.68
29.56
24.31
20.09
16.61
13.47
10.41
7.36
4.41
1.56
-1.26
-4.28
-7.75
-11.96
-17.10
-23.34
-30.63
-38.55
-46.17
-52.13
-54.88
-53.14
-46.47
-35.40
-21.34
-6.18
8.31
20.89
30.92
38.19
42.67
44.26
42.86
38.67
32.38
25.12
18.18
12.57
8.62
6.02
4.09
2.17
-0.09
-2.73
-5.65
-8.90
-12.74
-17.60
-23.86
-31.58
-40.38
-49.36
-57.17
-62.28
-63.30
-59.40
-50.60
-37.85
-22.73
-7.07
7.63
20.33
30.56
38.13
42.99
45.19
44.84
42.33
38.28
33.44
28.45
23.74
19.46
15.57
12.01
8.76
5.83
3.15
0.53
-2.31
-5.77
-10.29
-16.26
-23.97
-33.29
-43.50
-53.18
-60.47
-63.51
-61.02
-52.85
-39.97
-24.19
-7.57
8.24
22.20
33.84
43.01
49.56
53.28
54.17
52.53
49.10
44.88
40.74
37.10
33.83
30.47
26.50
21.81
16.67
11.68
7.38
3.91
0.97
-2.18
-6.46
-12.64
-21.00
-31.10
-41.65
-50.73
-56.27
-56.64
-51.13
-40.22
-25.29
-8.27
8.93
24.87
38.65
49.80
58.04
63.15
64.93
63.48
59.35
53.61
47.54
42.30
38.37
35.50
32.91
29.77
25.73
21.04
16.41
12.46
9.42
6.81
3.77
-0.69
-7.24
-15.92
-26.13
-36.70
-46.08
-52.65
-55.04
-52.50
-45.06
-33.58
-19.49
-4.40
10.26
23.42
34.45
42.93
48.60
51.26
50.88
47.75
42.52
36.15
29.62
23.67
18.57
14.18
10.21
6.43
2.85
-0.36
-3.07
-5.40
-7.77
-10.80
-15.08
-20.98
-28.49
-37.19
-46.21
-54.26
-59.80
-61.36
-57.91
-49.29
-36.37
-20.83
-4.71
10.16
22.61
32.15
38.82
42.83
44.38
43.60
40.72
36.17
30.63
24.81
19.24
14.11
9.29
4.55
-0.17
-4.72
-8.79
-12.13
-14.87
-17.55
-20.99
-26.01
-33.05
-41.86
-51.41
-59.99
-65.64
-66.65
-62.08
-52.09
-37.86
-21.25
-4.17
11.82
25.69
36.93
45.26
50.50
52.60
51.77
48.56
43.84
38.56
33.49
29.04
25.19
21.63
18.07
14.35
10.59
7.04
3.98
1.39
-1.06
-4.04
-8.35
-14.60
-22.81
-32.26
-41.57
-48.93
-52.65
-51.59
-45.47
-34.90
-21.12
-5.70
9.81
24.17
36.48
46.18
52.98
56.77
57.68
56.07
52.55
47.90
42.93
38.24
34.08
30.34
26.68
22.75
18.52
14.23
10.28
6.99
4.34
1.91
-1.01
-5.19
-11.25
-19.35
-29.11
-39.45
-48.74
-55.16
-57.07
-53.57
-44.78
-31.85
-16.58
-0.88
13.63
25.94
35.53
42.23
46.06
47.16
45.80
42.45
37.75
32.39
27.07
22.23
18.00
14.26
10.67
6.94
2.95
-1.22
-5.36
-9.30
-13.14
-17.22
-22.03
-28.00
-35.14
-43.01
-50.66
-56.86
-60.29
-59.93
-55.23
-46.29
-33.89
-19.37
-4.33
9.68
21.48
30.37
36.13
38.80
38.66
36.08
31.64
26.08
20.23
14.81
10.26
6.60
3.57
0.77
-2.05
-4.89
-7.62
-10.09
-12.39
-14.91
-18.26
-23.02
-29.54
-37.56
-46.21
-54.03
-59.30
-60.53
-56.92
-48.57
-36.43
-22.00
-6.83
7.75
20.83
31.84
40.41
46.22
49.09
49.13
46.77
42.85
38.33
33.99
30.33
27.36
24.78
22.22
19.37
16.18
12.80
9.43
6.21
3.06
-0.34
-4.49
-9.91
-16.88
-25.24
-34.17
-42.24
-47.77
-49.32
-46.15
-38.54
-27.57
-14.73
-1.42
11.39
23.14
33.47
41.96
47.98
51.01
50.84
47.88
43.05
37.49
32.13
27.38
23.23
19.37
15.61
12.01
8.79
6.18
4.15
2.33
0.19
-2.83
-7.14
-12.90
-20.07
-28.34
-37.04
-45.04
-50.94
-53.34
-51.29
-44.61
-34.05
-21.00
-7.12
6.14
17.74
27.05
33.73
37.52
38.24
35.99
31.25
24.85
17.90
11.40
6.00
1.85
-1.32
-3.92
-6.32
-8.62
-10.77
-12.71
-14.54
-16.57
-19.27
-23.14
-28.45
-35.07
-42.35
-49.25
-54.44
-56.65
-54.98
-49.16
-39.63
-27.39
-13.77
-0.18
12.19
22.45
30.07
34.78
36.62
35.88
33.10
29.00
24.36
19.78
15.62
11.94
8.55
5.26
1.98
-1.23
-4.24
-6.98
-9.56
-12.23
-15.41
-19.55
-25.03
-32.04
-40.27
-48.80
-56.07
-60.24
-59.77
-54.03
-43.54
-29.74
-14.48
0.69
14.70
27.04
37.28
44.90
49.31
50.15
47.71
42.92
37.20
31.80
27.42
24.05
21.21
18.36
15.23
11.95
8.80
6.01
3.59
1.26
-1.37
-4.66
-8.90
-14.24
-20.63
-27.70
-34.62
-40.11
-42.71
-41.19
-35.09
-24.90
-12.02
1.73
14.64
25.59
34.09
40.19
44.08
45.87
45.57
43.21
39.07
33.81
28.32
23.43
19.54
16.56
14.02
11.42
8.57
5.61
2.89
0.60
-1.44
-3.83
-7.33
-12.50
-19.39
-27.39
-35.40
-42.04
-45.97
-46.24
-42.46
-34.88
-24.41
-12.29
0.07
11.38
20.69
27.36
31.14
32.07
30.50
27.00
22.33
17.19
12.16
7.54
3.38
-0.43
-4.00
-7.36
-10.42
-13.08
-15.32
-17.28
-19.25
-21.66
-24.97
-29.50
-35.24
-41.83
-48.42
-53.91
-57.03
-56.68
-52.25
-43.79
-32.05
-18.31
-4.08
9.22
20.53
29.22
35.03
37.98
38.29
36.32
32.56
27.62
22.14
16.73
11.84
7.75
4.59
2.30
0.67
-0.64
-2.08
-4.08
-6.97
-11.03
-16.37
-23.00
-30.64
-38.63
-45.83
-50.80
-52.12
-48.94
-41.31
-30.14
-16.97
-3.42
9.22
20.17
29.10
35.88
40.43
42.70
42.65
40.47
36.58
31.65
26.43
21.62
17.63
14.56
12.21
10.28
8.53
6.82
5.07
3.14
0.71
-2.67
-7.43
-13.73
-21.21
-28.99
-35.80
-40.26
-41.27
-38.24
-31.26
-21.04
-8.78
4.19
16.67
27.79
36.97
43.84
48.07
49.43
47.91
43.89
38.20
31.89
25.94
20.96
17.05
13.95
11.28
8.77
6.31
3.89
1.43
-1.23
-4.34
-8.11
-12.72
-18.28
-24.78
-31.93
-39.01
-44.90
-48.24
-47.87
-43.20
-34.50
-22.87
-9.82
3.07
14.58
23.86
30.48
34.25
35.17
33.42
29.44
23.94
17.80
11.91
6.87
2.93
-0.08
-2.51
-4.72
-6.88
-9.01
-11.10
-13.26
-15.78
-19.11
-23.70
-29.73
-36.88
-44.26
-50.48
-54.03
-53.61
-48.62
-39.31
-26.69
-12.28
2.26
15.44
26.16
33.79
38.12
39.33
37.90
34.51
29.95
24.92
19.97
15.44
11.49
8.13
5.22
2.55
-0.11
-2.94
-6.02
-9.35
-12.95
-17.01
-21.88
-27.86
-34.87
-42.22
-48.62
-52.42
-52.22
-47.35
-38.10
-25.61
-11.49
2.69
15.68
26.59
34.94
40.46
43.12
43.10
40.86
37.02
32.27
27.24
22.38
18.02
14.27
11.13
8.50
6.23
4.14
2.03
-0.38
-3.40
-7.38
-12.61
-19.16
-26.67
-34.34
-40.93
-44.99
-45.33
-41.32
-33.08
-21.53
-8.05
5.85
18.84
30.06
39.04
45.59
49.66
51.24
50.35
47.31
42.66
37.21
31.78
26.98
23.04
19.87
17.18
14.70
12.28
9.90
7.49
4.94
1.96
-1.85
-6.90
-13.41
-21.29
-29.90
-38.11
-44.51
-47.72
-46.83
-41.69
-32.89
-21.52
-8.85
3.98
16.07
26.70
35.27
41.31
44.50
44.81
42.53
38.18
32.48
26.20
19.99
14.42
9.77
6.09
3.17
0.68
-1.77
-4.43
-7.48
-11.03
-15.24
-20.36
-26.67
-34.25
-42.76
-51.28
-58.41
-62.55
-62.38
-57.31
-47.66
-34.65
-19.94
-5.27
8.02
19.06
27.47
33.13
36.05
36.36
34.37
30.59
25.76
20.65
15.87
11.72
8.20
5.08
2.12
-0.81
-3.72
-6.54
-9.26
-12.08
-15.36
-19.59
-25.13
-31.96
-39.49
-46.60
-51.77
-53.55
-50.95
-43.77
-32.63
-18.75
-3.63
11.33
24.95
36.38
45.03
50.63
53.18
53.05
50.86
47.41
43.46
39.56
35.95
32.61
29.31
25.78
21.80
17.28
12.27
6.91
1.31
-4.44
-10.33
-16.53
-23.17
-30.43
-38.20
-46.02
-52.98
-57.78
-59.14
-56.12
-48.53
-37.05
-22.99
-7.92
6.76
20.10
31.52
40.66
47.24
51.02
52.05
50.74
47.90
44.54
41.56
39.44
38.09
36.97
35.40
32.91
29.43
25.28
20.98
16.92
13.20
9.56
5.51
0.56
-5.69
-13.32
-22.07
-31.30
-39.92
-46.61
-50.00
-49.07
-43.56
-34.00
-21.64
-7.98
5.65
18.28
29.34
38.46
45.21
49.19
50.10
48.06
43.70
38.04
32.25
27.24
23.42
20.67
18.50
16.31
13.66
10.37
6.53
2.46
-1.52
-5.20
-8.66
-12.28
-16.67
-22.40
-29.68
-38.17
-46.92
-54.55
-59.66
-61.08
-58.19
-50.94
-39.89
-26.09
-10.98
3.83
16.84
26.90
33.42
36.35
36.05
33.19
28.62
23.27
18.08
13.83
10.96
9.38
8.59
7.84
6.56
4.53
1.95
-0.74
-3.17
-5.32
-7.54
-10.52
-14.94
-21.21
-29.24
-38.27
-47.01
-53.79
-57.05
-55.69
-49.41
-38.75
-24.98
-9.72
5.40
19.06
30.39
38.88
44.28
46.58
45.99
42.98
38.35
33.07
28.01
23.74
20.35
17.49
14.73
11.69
8.34
4.93
1.78
-0.97
-3.43
-6.05
-9.37
-13.89
-19.91
-27.41
-35.95
-44.56
-51.88
-56.35
-56.68
-52.18
-43.11
-30.61
-16.29
-1.81
11.58
23.12
32.53
39.63
44.23
46.18
45.50
42.66
38.51
34.06
30.20
27.34
25.32
23.61
21.63
19.10
16.16
13.20
10.62
8.49
6.46
3.95
0.32
-4.79
-11.47
-19.42
-28.12
-36.69
-43.97
-48.67
-49.58
-45.97
-37.91
-26.32
-12.69
1.36
14.48
25.81
34.85
41.27
44.83
45.43
43.28
38.99
33.47
27.72
22.45
18.02
14.35
11.15
8.06
4.94
1.81
-1.14
-3.68
-5.72
-7.35
-8.88
-10.86
-13.87
-18.36
-24.45
-31.74
-39.29
-45.71
-49.52
-49.46
-44.96
-36.25
-24.36
-10.82
2.71
14.80
24.48
31.26
34.99
35.82
34.04
30.09
24.67
18.57
12.66
7.56
3.52
0.37
-2.37
-5.20
-8.39
-11.89
-15.41
-18.64
-21.45
-23.97
-26.62
-29.92
-34.29
-39.84
-46.22
-52.54
-57.52
-59.76
-58.12
-52.12
-42.02
-28.91
-14.30
0.17
13.15
23.70
31.37
36.02
37.78
36.89
33.79
29.13
23.75
18.58
14.29
11.16
8.94
7.03
4.84
2.09
-1.06
-4.13
-6.76
-8.94
-11.16
-14.27
-19.07
-25.93
-34.46
-43.52
-51.41
-56.35
-57.00
-52.77
-44.02
-31.89
-17.95
-3.69
9.67
21.27
30.52
37.01
40.46
40.86
38.57
34.34
29.17
24.01
19.53
16.04
13.39
11.24
9.18
6.96
4.47
1.83
-0.85
-3.45
-6.08
-9.09
-12.99
-18.33
-25.32
-33.72
-42.56
-50.34
-55.33
-56.04
-51.74
-42.62
-29.84
-15.06
-0.05
13.82
25.74
35.38
42.65
47.51
49.85
49.57
46.81
42.11
36.34
30.52
25.55
21.86
19.37
17.62
16.01
14.19
12.09
9.90
7.88
6.01
3.96
1.12
-3.19
-9.40
-17.51
-26.89
-36.46
-44.77
-50.37
-52.07
-49.21
-41.84
-30.71
-17.12
-2.54
11.67
24.52
35.32
43.63
49.07
51.37
50.45
46.68
40.92
34.35
28.16
23.19
19.60
17.02
14.78
12.25
9.19
5.69
2.09
-1.32
-4.53
-7.78
-11.46
-15.98
-21.55
-28.18
-35.52
-43.02
-49.74
-54.58
-56.39
-54.29
-47.92
-37.66
-24.63
-10.38
3.43
15.46
24.87
31.32
34.87
35.76
34.30
30.91
26.17
20.81
15.65
11.31
8.07
5.76
3.92
2.04
-0.19
-2.73
-5.36
-7.92
-10.45
-13.32
-17.02
-22.12
-28.82
-36.90
-45.52
-53.35
-58.88
-60.75
-58.13
-50.99
-40.02
-26.44
-11.69
2.90
16.24
27.48
35.97
41.31
43.37
42.41
39.19
34.71
30.02
25.91
22.69
20.23
18.09
15.81
13.15
10.13
6.95
3.84
0.87
-2.15
-5.56
-9.86
-15.46
-22.56
-30.95
-39.89
-48.06
-53.83
-55.64
-52.54
-44.49
-32.44
-17.97
-2.82
11.63
24.52
35.37
43.87
49.67
52.50
52.35
49.66
45.35
40.55
36.21
32.80
30.22
27.98
25.49
22.41
18.79
15.02
11.58
8.77
6.52
4.34
1.42
-3.07
-9.64
-18.19
-27.87
-37.18
-44.30
-47.61
-46.20
-40.09
-30.20
-17.97
-4.84
8.05
20.04
30.74
39.90
47.10
51.90
53.95
53.19
49.98
45.03
39.27
33.63
28.79
25.05
22.36
20.35
18.51
16.43
13.86
10.82
7.48
4.01
0.44
-3.37
-7.75
-13.07
-19.60
-27.30
-35.67
-43.79
-50.36
-54.01
-53.62
-48.77
-39.78
-27.69
-13.97
-0.10
12.70
23.60
32.05
37.71
40.43
40.30
37.81
33.75
29.11
24.79
21.38
18.98
17.26
15.67
13.65
10.96
7.67
4.15
0.78
-2.19
-4.93
-7.85
-11.54
-16.53
-23.06
-31.00
-39.65
-47.94
-54.41
-57.63
-56.48
-50.57
-40.38
-27.18
-12.69
1.38
13.70
23.44
30.31
34.28
35.47
34.07
30.51
25.47
19.88
14.73
10.72
8.10
6.57
5.57
4.52
3.19
1.58
-0.16
-1.95
-4.01
-6.70
-10.52
-15.87
-22.88
-31.31
-40.42
-48.97
-55.43
-58.30
-56.57
-50.09
-39.63
-26.58
-12.52
1.18
13.59
24.18
32.59
38.55
41.85
42.51
40.88
37.68
33.78
29.97
26.69
23.95
21.44
18.74
15.64
12.23
8.79
5.69
3.08
0.77
-1.71
-5.00
-9.73
-16.25
-24.55
-34.09
-43.77
-52.04
-57.31
-58.27
-54.35
-45.83
-33.75
-19.59
-4.87
9.19
21.79
32.46
40.94
47.06
50.73
51.96
50.97
48.24
44.46
40.35
36.45
33.06
30.12
27.40
24.71
22.00
19.34
16.85
14.52
12.14
9.37
5.82
1.16
-4.81
-12.17
-20.77
-30.21
-39.73
-48.20
-54.31
-56.80
-54.87
-48.52
-38.51
-26.21
-13.12
-0.45
11.02
20.85
28.78
34.49
37.66
38.13
36.11
32.20
27.30
22.29
17.79
14.11
11.19
8.82
6.74
4.73
2.66
0.54
-1.56
-3.61
-5.73
-8.33
-12.01
-17.40
-24.77
-33.79
-43.40
-52.00
-57.90
-59.73
-56.90
-49.65
-38.86
-25.80
-11.88
1.63
13.58
23.11
29.66
33.05
33.46
31.44
27.75
23.21
18.57
14.34
10.77
7.81
5.19
2.58
-0.26
-3.32
-6.40
-9.18
-11.49
-13.49
-15.66
-18.73
-23.37
-29.91
-38.16
-47.19
-55.57
-61.55
-63.62
-60.92
-53.48
-42.17
-28.39
-13.68
0.68
13.76
24.93
33.73
39.73
42.71
42.71
40.28
36.39
32.11
28.30
25.26
22.68
19.95
16.55
12.39
7.85
3.57
0.04
-2.65
-4.88
-7.33
-10.69
-15.42
-21.64
-29.09
-37.12
-44.74
-50.78
-54.01
-53.46
-48.56
-39.40
-26.70
-11.68
4.12
19.16
32.16
42.32
49.34
53.36
54.78
54.05
51.65
48.02
43.62
38.90
34.23
29.81
25.67
21.72
17.86
14.17
10.83
7.97
5.52
3.17
0.40
-3.36
-8.54
-15.36
-23.69
-33.07
-42.61
-51.01
-56.77
-58.44
-55.15
-46.84
-34.46
-19.65
-4.26
10.13
22.46
32.25
39.30
43.48
44.71
43.00
38.69
32.55
25.71
19.37
14.36
10.85
8.40
6.24
3.66
0.43
-3.24
-6.83
-9.94
-12.58
-15.23
-18.66
-23.62
-30.58
-39.40
-49.30
-58.91
-66.46
-70.16
-68.70
-61.66
-49.60
-34.05
-16.99
-0.40
14.20
25.92
34.45
39.85
42.32
42.14
39.62
35.23
29.69
23.80
18.33
13.74
10.04
6.91
3.97
1.03
-1.78
-4.14
-5.87
-7.26
-9.07
-12.34
-17.92
-26.07
-36.21
-46.95
-56.39
-62.58
-63.93
-59.63
-49.84
-35.65
-18.84
-1.38
15.02
29.24
40.70
49.20
54.71
57.27
57.04
54.46
50.32
45.59
41.07
37.17
33.83
30.62
27.12
23.16
18.93
14.80
11.09
7.82
4.68
1.18
-3.29
-9.21
-16.77
-25.81
-35.68
-45.13
-52.56
-56.25
-54.87
-47.97
-36.18
-21.01
-4.44
11.70
26.13
38.16
47.50
53.92
57.21
57.28
54.40
49.36
43.32
37.45
32.47
28.45
24.95
21.45
17.69
13.84
10.31
7.44
5.20
3.18
0.77
-2.62
-7.48
-14.04
-22.37
-32.13
-42.46
-51.96
-58.82
-61.34
-58.46
-50.13
-37.41
-22.03
-5.90
9.34
22.60
33.19
40.76
45.12
46.30
44.62
40.78
35.70
30.27
25.12
20.44
16.10
11.83
7.47
3.15
-0.89
-4.35
-7.17
-9.53
-11.88
-14.80
-18.89
-24.60
-32.04
-40.84
-49.98
-57.88
-62.70
-62.89
-57.69
-47.51
-33.72
-18.23
-2.91
10.97
22.79
32.37
39.63
44.31
46.09
44.86
40.96
35.30
29.09
23.41
18.84
15.37
12.57
9.92
7.18
4.45
2.03
0.08
-1.58
-3.55
-6.66
-11.64
-18.86
-28.05
-38.25
-47.94
-55.40
-58.99
-57.65
-51.18
-40.23
-26.12
-10.47
5.24
19.85
32.54
42.71
49.95
53.94
54.71
52.70
48.69
43.69
38.57
33.95
29.97
26.53
23.38
20.34
17.35
14.53
12.00
9.74
7.54
4.81
0.87
-4.91
-12.73
-22.17
-32.13
-41.01
-47.09
-48.92
-45.76
-37.74
-25.81
-11.50
3.50
17.70
30.06
39.97
47.22
51.79
53.76
53.35
50.90
46.97
42.28
37.51
33.16
29.38
25.95
22.44
18.52
14.10
9.51
5.23
1.72
-0.92
-3.08
-5.54
-9.21
-14.80
-22.49
-31.73
-41.36
-49.77
-55.29
-56.62
-53.12
-45.02
-33.27
-19.27
-4.58
9.48
21.85
31.82
38.93
42.96
43.89
42.00
37.83
32.18
25.96
20.09
15.24
11.67
9.17
7.27
5.41
3.28
0.87
-1.58
-3.90
-6.17
-8.79
-12.38
-17.52
-24.41
-32.78
-41.74
-49.93
-55.74
-57.70
-54.87
-47.22
-35.65
-21.81
-7.58
5.51
16.53
25.15
31.35
35.16
36.57
35.67
32.76
28.50
23.71
19.14
15.23
12.02
9.27
6.69
4.11
1.57
-0.80
-2.88
-4.74
-6.66
-9.05
-12.41
-17.18
-23.56
-31.34
-39.71
-47.33
-52.49
-53.65
-49.89
-41.34
-29.08
-14.79
-0.24
13.23
24.79
34.07
40.88
45.10
46.68
45.76
42.80
38.56
33.85
29.40
25.58
22.46
19.79
17.21
14.44
11.41
8.22
5.16
2.48
0.15
-2.11
-4.90
-8.90
-14.65
-22.23
-31.14
-40.22
-47.90
-52.57
-53.01
-48.72
-40.10
-28.31
-14.90
-1.35
11.17
22.04
31.03
38.08
43.11
45.96
46.46
44.69
41.07
36.44
31.76
27.85
25.07
23.22
21.74
20.05
17.89
15.41
12.98
10.96
9.28
7.50
4.84
0.66
-5.41
-13.22
-22.12
-31.14
-39.15
-45.03
-47.81
-46.84
-41.99
-33.71
-22.97
-11.03
0.89
11.85
21.23
28.64
33.79
36.42
36.41
33.99
29.77
24.67
19.63
15.31
11.95
9.43
7.40
5.54
3.60
1.44
-1.02
-3.81
-6.89
-10.26
-13.98
-18.23
-23.34
-29.57
-36.86
-44.60
-51.71
-56.84
-58.78
-56.83
-50.96
-41.85
-30.64
-18.67
-7.21
2.75
10.65
16.34
19.96
21.79
22.13
21.19
19.13
16.19
12.73
9.19
5.97
3.32
1.26
-0.37
-1.77
-3.10
-4.48
-6.03
-7.95
-10.54
-14.20
-19.24
-25.74
-33.32
-41.09
-47.71
-51.73
-52.01
-48.07
-40.27
-29.62
-17.47
-5.09
6.56
16.82
25.27
31.55
35.37
36.58
35.33
32.13
27.78
23.17
19.02
15.67
13.06
10.84
8.57
6.02
3.27
0.61
-1.61
-3.34
-4.87
-6.80
-9.79
-14.30
-20.41
-27.74
-35.44
-42.30
-46.93
-48.09
-45.04
-37.82
-27.28
-14.89
-2.21
9.45
19.36
27.26
33.16
37.07
38.96
38.80
36.82
33.53
29.71
26.08
23.13
20.88
19.01
17.04
14.68
11.94
9.15
6.65
4.58
2.69
0.51
-2.54
-6.87
-12.60
-19.49
-26.97
-34.22
-40.15
-43.60
-43.57
-39.56
-31.77
-21.18
-9.21
2.61
13.12
21.65
27.97
32.11
34.18
34.35
32.85
30.06
26.45
22.48
18.48
14.58
10.80
7.05
3.34
-0.20
-3.36
-5.90
-7.73
-8.97
-10.12
-11.84
-14.89
-19.78
-26.58
-34.80
-43.36
-50.89
-55.92
-57.31
-54.44
-47.44
-37.15
-24.97
-12.49
-1.07
8.31
15.21
19.56
21.53
21.37
19.43
16.23
12.36
8.47
5.11
2.58
0.84
-0.36
-1.46
-2.76
-4.44
-6.54
-9.04
-12.03
-15.72
-20.41
-26.34
-33.43
-41.18
-48.56
-54.25
-56.96
-55.76
-50.36
-41.19
-29.25
-15.76
-1.99
11.01
22.46
31.82
38.74
43.04
44.74
44.13
41.72
38.16
34.09
29.92
25.83
21.81
17.86
14.09
10.75
8.05
5.96
4.16
2.05
-1.04
-5.66
-12.04
-20.03
-29.05
-38.13
-45.90
-50.90
-51.88
-48.26
-40.30
-29.11
-16.16
-2.92
9.67
21.05
30.93
38.96
44.71
47.77
48.05
45.90
42.03
37.32
32.54
28.24
24.70
21.97
19.93
18.36
16.98
15.57
13.98
12.13
9.93
7.14
3.33
-1.98
-9.10
-17.94
-27.78
-37.33
-44.99
-49.26
-49.15
-44.50
-35.88
-24.38
-11.24
2.44
15.81
28.13
38.68
46.73
51.66
53.21
51.66
47.78
42.58
37.12
32.14
27.99
24.67
21.90
19.32
16.60
13.57
10.27
6.87
3.53
0.27
-3.08
-6.91
-11.67
-17.75
-25.25
-33.82
-42.54
-50.05
-54.77
-55.32
-50.99
-41.96
-29.33
-14.81
-0.19
13.11
24.13
32.44
37.79
40.05
39.24
35.75
30.34
24.12
18.19
13.29
9.62
6.90
4.60
2.33
-0.04
-2.41
-4.64
-6.76
-9.07
-12.05
-16.16
-21.73
-28.83
-37.17
-46.09
-54.50
-60.97
-63.98
-62.37
-55.72
-44.56
-30.23
-14.53
0.83
14.56
25.88
34.37
39.82
42.13
41.44
38.25
33.44
28.05
23.00
18.79
15.49
12.82
10.40
7.93
5.33
2.66
0.07
-2.38
-4.80
-7.58
-11.24
-16.35
-23.22
-31.63
-40.67
-48.80
-54.25
-55.54
-51.97
-43.86
-32.35
-19.00
-5.25
7.86
19.73
30.01
38.32
44.22
47.30
47.53
45.33
41.59
37.32
33.34
30.00
27.20
24.53
21.62
18.27
14.57
10.79
7.26
4.17
1.47
-1.15
-4.23
-8.41
-14.15
-21.58
-30.22
-39.00
-46.44
-50.85
-50.89
-45.90
-36.16
-22.79
-7.53
7.76
21.58
33.02
41.79
47.97
51.75
53.28
52.67
50.11
46.08
41.28
36.51
32.42
29.24
26.78
24.49
21.76
18.21
13.86
9.17
4.68
0.74
-2.76
-6.43
-11.05
-17.27
-25.18
-34.31
-43.66
-52.01
-58.09
-60.82
-59.45
-53.68
-43.81
-30.84
-16.24
-1.60
11.71
22.84
31.35
37.16
40.22
40.55
38.25
33.77
27.85
21.48
15.61
10.87
7.44
5.12
3.42
1.83
0.02
-2.21
-4.89
-7.94
-11.31
-15.01
-19.21
-24.28
-30.58
-38.30
-47.04
-55.72
-62.61
-65.85
-64.08
-56.87
-44.98
-30.04
-14.02
1.35
14.88
25.97
34.35
39.93
42.70
42.79
40.60
36.84
32.39
28.04
24.29
21.17
18.40
15.55
12.34
8.79
5.16
1.77
-1.27
-4.20
-7.59
-12.09
-18.25
-26.23
-35.60
-45.41
-54.27
-60.58
-62.89
-60.28
-52.67
-40.91
-26.58
-11.52
2.60
14.73
24.48
31.94
37.34
40.87
42.56
42.43
40.68
37.77
34.32
30.92
27.94
25.37
22.97
20.47
17.74
14.89
12.12
9.61
7.28
4.81
1.63
-2.82
-8.98
-17.00
-26.52
-36.59
-45.73
-52.24
-54.55
-51.78
-44.00
-32.17
-17.80
-2.46
12.57
26.42
38.45
48.08
54.74
58.02
57.87
54.76
49.62
43.59
37.68
32.50
28.17
24.46
20.98
17.43
13.78
10.19
6.98
4.35
2.30
0.53
-1.54
-4.61
-9.37
-16.14
-24.72
-34.21
-43.13
-49.74
-52.48
-50.48
-43.69
-32.90
-19.48
-4.99
9.11
21.57
31.52
38.42
42.03
42.48
40.25
36.09
30.94
25.67
20.90
16.92
13.66
10.81
8.01
5.00
1.72
-1.70
-5.07
-8.30
-11.44
-14.79
-18.77
-23.81
-30.24
-37.99
-46.46
-54.56
-60.81
-63.75
-62.39
-56.43
-46.37
-33.34
-18.70
-3.83
10.11
22.20
31.66
37.89
40.57
39.81
36.22
30.80
24.76
19.11
14.45
10.86
8.09
5.72
3.43
1.00
-1.64
-4.56
-7.83
-11.57
-16.01
-21.42
-28.06
-36.05
-45.05
-54.13
-61.81
-66.39
-66.39
-61.14
-50.95
-37.02
-21.02
-4.70
10.54
23.69
34.04
41.16
44.90
45.39
43.14
38.96
33.76
28.39
23.45
19.21
15.66
12.56
9.61
6.63
3.55
0.45
-2.51
-5.36
-8.31
-11.89
-16.78
-23.55
-32.27
-42.33
-52.32
-60.32
-64.40
-63.23
-56.52
-45.05
-30.42
-14.47
1.21
15.53
27.97
38.23
46.04
51.09
53.14
52.27
49.03
44.30
39.11
34.28
30.15
26.66
23.48
20.31
17.07
13.91
11.08
8.70
6.57
4.21
0.85
-4.23
-11.50
-20.92
-31.72
-42.39
-50.99
-55.60
-54.90
-48.54
-37.31
-22.81
-6.99
8.47
22.39
34.18
43.55
50.29
54.17
55.02
52.99
48.66
43.04
37.25
32.21
28.32
25.43
22.98
20.40
17.32
13.69
9.75
5.76
1.83
-2.16
-6.51
-11.68
-18.03
-25.74
-34.63
-44.06
-52.92
-59.78
-63.21
-62.17
-56.29
-46.06
-32.67
-17.70
-2.78
10.69
21.78
29.95
35.08
37.28
36.93
34.48
30.52
25.66
20.49
15.57
11.28
7.77
5.00
2.67
0.46
-1.85
-4.41
-7.22
-10.28
-13.75
-17.92
-23.14
-29.64
-37.23
-45.24
-52.48
-57.52
-58.98
-55.98
-48.39
-36.82
-22.51
-7.03
8.07
21.52
32.44
40.42
45.40
47.63
47.51
45.52
42.09
37.70
32.78
27.76
23.04
18.87
15.36
12.44
9.99
7.90
6.00
4.05
1.57
-2.06
-7.50
-15.02
-24.24
-34.06
-42.79
-48.62
-50.19
-46.88
-39.00
-27.58
-14.04
0.20
13.92
26.27
36.73
44.96
50.71
53.85
54.40
52.71
49.45
45.48
41.64
38.40
35.79
33.39
30.75
27.55
23.91
20.22
16.92
14.18
11.81
9.27
5.96
1.35
-4.77
-12.28
-20.66
-29.01
-36.15
-40.79
-41.83
-38.69
-31.53
-21.14
-8.73
4.39
17.12
28.69
38.60
46.44
51.84
54.47
54.20
51.31
46.52
40.89
35.56
31.28
28.25
26.11
24.14
21.72
18.64
15.11
11.64
8.62
6.10
3.68
0.66
-3.59
-9.43
-16.79
-25.22
-33.94
-42.05
-48.48
-52.18
-52.33
-48.58
-41.24
-31.18
-19.60
-7.65
3.77
14.03
22.60
28.94
32.52
33.05
30.79
26.49
21.36
16.52
12.72
10.14
8.44
7.11
5.68
3.94
1.90
-0.32
-2.67
-5.17
-7.96
-11.19
-15.02
-19.63
-25.11
-31.43
-38.24
-44.78
-49.93
-52.46
-51.43
-46.53
-38.23
-27.62
-16.00
-4.53
6.03
15.23
22.75
28.23
31.30
31.70
29.63
25.74
21.11
16.86
13.76
11.95
10.91
9.84
8.07
5.46
2.34
-0.63
-2.99
-4.77
-6.43
-8.69
-12.18
-17.12
-23.27
-30.06
-36.70
-42.36
-46.16
-47.28
-45.17
-39.69
-31.31
-21.00
-9.98
0.65
10.17
18.31
25.02
30.28
33.94
35.83
35.89
34.42
32.02
29.46
27.35
25.92
24.99
24.05
22.60
20.36
17.41
14.08
10.82
7.87
5.20
2.52
-0.58
-4.58
-9.77
-16.17
-23.44
-30.80
-37.12
-41.14
-41.83
-38.70
-32.01
-22.70
-12.00
-1.16
8.96
17.88
25.34
31.19
35.22
37.16
36.89
34.61
30.86
26.47
22.28
18.91
16.59
15.06
13.79
12.25
10.14
7.52
4.68
1.94
-0.56
-2.89
-5.34
-8.24
-11.89
-16.43
-21.92
-28.21
-34.89
-41.27
-46.34
-49.09
-48.77
-45.10
-38.48
-29.83
-20.24
-10.80
-2.29
4.82
10.28
13.93
15.67
15.50
13.62
10.50
6.85
3.42
0.72
-1.11
-2.36
-3.53
-5.00
-6.88
-8.92
-10.76
-12.21
-13.37
-14.69
-16.77
-20.11
-24.92
-31.06
-37.99
-44.95
-50.94
-54.90
-55.93
-53.48
-47.53
-38.66
-27.83
-16.18
-4.76
5.64
14.46
21.32
25.94
28.24
28.33
26.68
24.01
21.07
18.48
16.46
14.85
13.23
11.24
8.77
6.02
3.42
1.29
-0.30
-1.68
-3.36
-5.96
-9.98
-15.65
-22.92
-31.33
-39.94
-47.40
-52.19
-53.00
-49.17
-40.96
-29.51
-16.48
-3.43
8.48
18.75
27.21
33.85
38.51
40.92
40.92
38.71
34.97
30.66
26.76
23.85
21.98
20.69
19.36
17.53
15.05
12.19
9.34
6.78
4.61
2.58
0.27
-2.82
-7.17
-13.06
-20.47
-28.97
-37.61
-45.01
-49.66
-50.30
-46.29
-37.86
-26.02
-12.29
1.75
14.74
25.75
34.29
40.20
43.56
44.50
43.33
40.41
36.26
31.59
27.13
23.49
20.97
19.39
18.23
16.87
14.89
12.21
9.14
6.06
3.22
0.63
-2.05
-5.31
-9.68
-15.55
-22.98
-31.58
-40.37
-47.88
-52.47
-52.73
-48.01
-38.63
-25.81
-11.28
3.22
16.31
27.13
35.26
40.49
42.76
42.10
38.73
33.28
26.74
20.32
15.03
11.38
9.13
7.55
5.85
3.51
0.58
-2.51
-5.25
-7.44
-9.37
-11.74
-15.38
-20.93
-28.60
-37.91
-47.78
-56.62
-62.68
-64.47
-61.17
-52.84
-40.42
-25.47
-9.74
5.14
17.94
27.89
34.64
38.20
38.83
36.98
33.32
28.60
23.59
18.87
14.76
11.25
8.16
5.25
2.36
-0.54
-3.37
-6.13
-8.96
-12.11
-15.94
-20.80
-26.85
-34.04
-41.93
-49.64
-55.89
-59.26
-58.53
-53.06
-43.08
-29.64
-14.35
1.04
15.01
26.52
35.07
40.53
43.03
42.87
40.48
36.52
31.74
26.89
22.54
18.96
16.03
13.43
10.86
8.16
5.38
2.64
-0.00
-2.63
-5.53
-9.12
-13.86
-20.15
-28.06
-37.18
-46.35
-53.81
-57.55
-56.04
-48.78
-36.61
-21.42
-5.53
9.17
21.62
31.58
39.24
44.73
47.91
48.47
46.30
41.85
36.09
30.25
25.33
21.73
19.26
17.34
15.39
13.11
10.56
7.98
5.57
3.21
0.52
-3.04
-8.02
-14.74
-23.11
-32.48
-41.69
-49.18
-53.31
-52.81
-47.20
-36.89
-23.05
-7.33
8.64
23.46
36.09
45.87
52.46
55.80
56.13
53.96
49.96
44.83
39.14
33.31
27.59
22.11
16.95
12.15
7.72
3.63
-0.12
-3.58
-6.85
-10.16
-13.89
-18.53
-24.49
-31.94
-40.55
-49.37
-56.97
-61.69
-62.07
-57.36
-47.74
-34.31
-18.82
-3.16
11.00
22.53
30.89
35.98
37.99
37.25
34.25
29.56
23.88
17.95
12.43
7.81
4.29
1.78
0.03
-1.24
-2.32
-3.41
-4.69
-6.45
-9.10
-13.18
-19.20
-27.31
-37.05
-47.22
-56.05
-61.60
-62.38
-57.77
-48.20
-34.95
-19.75
-4.28
10.12
22.55
32.46
39.54
43.69
45.01
43.85
40.77
36.53
31.84
27.29
23.22
19.70
16.61
13.80
11.12
8.54
6.03
3.47
0.58
-3.17
-8.41
-15.70
-25.08
-35.92
-46.81
-55.76
-60.79
-60.45
-54.31
-43.12
-28.50
-12.40
3.41
17.75
29.98
39.81
47.08
51.61
53.32
52.36
49.21
44.68
39.61
34.71
30.32
26.46
22.95
19.63
16.52
13.80
11.59
9.80
8.03
5.51
1.42
-4.82
-13.38
-23.79
-34.98
-45.37
-53.16
-56.73
-55.01
-47.86
-36.12
-21.36
-5.41
10.18
24.39
36.66
46.78
54.49
59.48
61.53
60.71
57.58
53.10
48.33
44.08
40.64
37.79
34.98
31.68
27.63
23.02
18.29
13.93
10.15
6.78
3.28
-1.07
-6.88
-14.49
-23.75
-34.00
-44.03
-52.26
-57.00
-56.96
-51.55
-41.22
-27.26
-11.53
4.13
18.26
29.96
38.81
44.65
47.42
47.20
44.26
39.21
32.97
26.63
21.05
16.70
13.44
10.73
7.94
4.70
1.04
-2.64
-5.91
-8.63
-11.10
-13.97
-18.02
-23.85
-31.65
-41.01
-50.89
-59.70
-65.63
-67.00
-62.89
-53.42
-39.80
-23.92
-7.84
6.84
19.15
28.67
35.26
38.82
39.38
37.20
32.97
27.81
22.84
18.91
16.22
14.44
12.93
11.11
8.77
6.03
3.21
0.53
-2.00
-4.71
-8.07
-12.63
-18.74
-26.30
-34.72
-42.80
-48.96
-51.67
-49.86
-43.30
-32.69
-19.36
-4.97
9.04
21.61
32.08
40.13
45.62
48.51
48.88
47.05
43.58
39.15
34.53
30.30
26.76
23.85
21.30
18.75
15.95
12.93
9.88
7.08
4.60
2.20
-0.71
-4.84
-10.78
-18.64
-27.93
-37.59
-46.15
-52.09
-54.18
-51.74
-44.81
-34.13
-20.97
-6.83
6.92
19.27
29.68
37.99
44.12
48.07
49.72
49.11
46.55
42.63
38.23
34.15
30.88
28.45
26.54
24.65
22.46
19.93
17.21
14.56
12.13
9.78
7.16
3.78
-0.82
-6.91
-14.45
-23.11
-32.14
-40.54
-47.08
-50.59
-50.21
-45.57
-37.03
-25.47
-12.18
1.51
14.45
25.76
34.83
41.20
44.61
44.99
42.67
38.34
32.97
27.55
22.76
18.88
15.69
12.78
9.74
6.38
2.79
-0.77
-4.09
-7.19
-10.29
-13.86
-18.32
-23.96
-30.77
-38.48
-46.51
-54.01
-59.92
-63.07
-62.51
-57.80
-49.17
-37.60
-24.52
-11.46
0.35
10.01
17.08
21.34
22.86
21.97
19.28
15.61
11.77
8.36
5.58
3.28
1.10
-1.16
-3.43
-5.30
-6.27
-5.96
-4.38
-2.06
0.04
0.67
-1.35
-6.78
-15.56
-26.68
-38.32
-48.20
-54.22
-54.98
-50.14
-40.46
-27.46
-12.98
1.30
14.13
24.74
32.73
37.90
40.24
39.96
37.53
33.71
29.35
25.15
21.52
18.45
15.71
13.02
10.30
7.72
5.55
3.94
2.75
1.60
-0.12
-3.04
-7.62
-14.07
-22.25
-31.52
-40.86
-48.88
-54.12
-55.42
-52.23
-44.83
-34.16
-21.57
-8.46
4.04
15.16
24.43
31.59
36.50
39.08
39.40
37.72
34.54
30.56
26.55
23.11
20.51
18.60
16.96
15.08
12.72
9.96
7.11
4.52
2.25
-0.01
-2.86
-6.92
-12.63
-20.01
-28.63
-37.53
-45.43
-50.85
-52.49
-49.62
-42.30
-31.42
-18.40
-4.79
8.12
19.47
28.86
36.02
40.70
42.64
41.78
38.39
33.23
27.34
21.75
17.14
13.67
11.04
8.67
6.13
3.27
0.29
-2.46
-4.77
-6.77
-8.99
-12.18
-17.08
-24.01
-32.73
-42.36
-51.50
-58.63
-62.40
-61.99
-57.19
-48.49
-36.87
-23.61
-10.07
2.53
13.22
21.34
26.51
28.63
27.94
24.92
20.38
15.24
10.38
6.30
3.08
0.33
-2.45
-5.63
-9.24
-13.00
-16.51
-19.54
-22.16
-24.77
-27.93
-32.19
-37.90
-45.00
-52.91
-60.45
-66.02
-67.95
-65.00
-56.80
-44.02
-28.22
-11.39
4.58
18.30
29.01
36.45
40.64
41.80
40.27
36.59
31.51
25.90
20.54
15.90
12.06
8.81
5.79
2.76
-0.32
-3.35
-6.27
-9.20
-12.48
-16.60
-22.03
-28.99
-37.28
-46.16
-54.31
-60.09
-61.87
-58.56
-49.92
-36.78
-20.73
-3.67
12.73
27.29
39.38
48.64
54.77
57.54
56.91
53.32
47.70
41.31
35.26
30.30
26.49
23.45
20.61
17.55
14.19
10.73
7.42
4.34
1.26
-2.39
-7.29
-13.97
-22.50
-32.32
-42.11
-50.05
-54.17
-52.98
-45.87
-33.46
-17.33
0.40
17.69
33.09
45.77
55.41
61.90
65.09
64.97
61.79
56.30
49.59
42.83
36.93
32.18
28.37
24.98
21.53
17.80
13.84
9.88
6.09
2.42
-1.52
-6.31
-12.66
-21.01
-31.27
-42.53
-53.10
-60.84
-63.72
-60.50
-51.07
-36.56
-18.89
-0.22
17.57
33.16
45.76
54.96
60.51
62.36
60.65
55.86
48.87
40.77
32.59
25.10
18.64
13.13
8.29
3.79
-0.54
-4.67
-8.53
-12.19
-15.91
-20.24
-25.79
-33.00
-41.92
-51.91
-61.63
-69.17
-72.50
-70.06
-61.27
-46.86
-28.64
-9.09
9.45
25.26
37.51
46.02
51.03
52.83
51.78
48.37
43.40
37.77
32.29
27.46
23.28
19.47
15.66
11.71
7.66
3.68
-0.18
-4.11
-8.58
-14.21
-21.59
-30.96
-42.04
-53.74
-64.32
-71.58
-73.50
-68.85
-57.65
-41.25
-21.86
-1.96
16.40
31.85
43.83
52.28
57.41
59.54
59.03
56.31
51.93
46.50
40.58
34.61
28.78
23.17
17.80
12.74
8.07
3.97
0.42
-2.77
-6.14
-10.41
-16.33
-24.30
-34.19
-45.09
-55.38
-63.07
-66.23
-63.58
-54.84
-40.87
-23.39
-4.48
13.95
30.53
44.45
55.27
62.72
66.56
66.80
63.87
58.71
52.54
46.47
41.06
36.29
31.75
27.05
22.10
17.22
12.85
9.23
6.20
3.20
-0.51
-5.60
-12.51
-21.30
-31.56
-42.32
-52.15
-59.25
-61.90
-58.92
-50.03
-35.97
-18.36
0.77
19.37
35.72
48.68
57.69
62.69
64.04
62.35
58.38
52.97
46.92
40.90
35.40
30.57
26.33
22.41
18.54
14.62
10.72
7.00
3.51
0.09
-3.68
-8.41
-14.62
-22.61
-32.21
-42.69
-52.72
-60.58
-64.53
-63.29
-56.41
-44.55
-29.19
-12.30
4.23
18.97
31.03
39.98
45.59
47.82
46.79
42.93
37.05
30.21
23.47
17.64
12.99
9.37
6.28
3.30
0.17
-3.03
-6.01
-8.57
-10.77
-13.06
-16.21
-20.98
-27.82
-36.46
-45.83
-54.22
-59.69
-60.54
-55.94
-46.11
-32.27
-16.27
-0.03
14.85
27.35
36.93
43.41
46.72
46.95
44.40
39.71
33.82
27.77
22.42
18.15
14.78
11.76
8.54
4.84
0.81
-3.10
-6.46
-9.20
-11.70
-14.71
-18.98
-24.91
-32.33
-40.45
-47.99
-53.45
-55.49
-53.17
-46.24
-35.16
-21.06
-5.47
9.98
23.81
34.96
42.78
47.10
48.19
46.69
43.43
39.30
34.97
30.85
26.97
23.22
19.42
15.54
11.69
8.07
4.86
2.10
-0.36
-2.80
-5.61
-9.30
-14.30
-20.90
-28.96
-37.77
-45.99
-51.92
-53.97
-51.18
-43.55
-32.09
-18.46
-4.38
8.82
20.42
30.23
38.26
44.42
48.46
50.10
49.30
46.46
42.34
37.89
33.90
30.73
28.31
26.23
24.02
21.41
18.42
15.25
12.12
9.05
5.81
1.96
-2.95
-9.19
-16.65
-24.81
-32.84
-39.67
-44.24
-45.68
-43.47
-37.55
-28.45
-17.17
-5.01
6.67
16.77
24.66
30.19
33.53
34.99
34.81
33.19
30.36
26.70
22.75
19.04
15.99
13.64
11.71
9.75
7.35
4.33
0.75
-3.19
-7.39
-11.91
-17.00
-22.98
-30.04
-38.03
-46.38
-54.10
-59.98
-62.79
-61.66
-56.35
-47.35
-35.85
-23.36
-11.30
-0.65
8.14
14.99
19.95
22.96
23.90
22.76
19.92
16.07
12.12
8.82
6.50
5.01
3.87
2.58
0.88
-1.18
-3.27
-5.08
-6.46
-7.60
-9.13
-11.76
-16.08
-22.07
-29.04
-35.64
-40.38
-41.97
-39.81
-34.02
-25.26
-14.57
-3.06
8.19
18.17
26.08
31.36
33.83
33.67
31.37
27.60
23.09
18.49
14.28
10.73
7.84
5.33
2.82
0.11
-2.78
-5.55
-7.81
-9.42
-10.58
-11.86
-14.01
-17.57
-22.69
-29.01
-35.71
-41.71
-45.82
-47.01
-44.59
-38.44
-29.05
-17.52
-5.26
6.34
16.20
23.79
28.99
32.05
33.22
32.79
30.93
27.83
23.81
19.36
14.94
10.97
7.59
4.73
2.21
-0.09
-2.18
-4.00
-5.52
-6.90
-8.49
-10.70
-13.90
-18.26
-23.58
-29.36
-34.78
-38.84
-40.57
-39.23
-34.51
-26.72
-16.68
-5.54
5.45
15.32
23.37
29.31
33.06
34.69
34.33
32.18
28.59
24.07
19.29
14.97
11.62
9.34
7.85
6.62
5.23
3.53
1.76
0.23
-0.90
-1.91
-3.45
-6.18
-10.51
-16.35
-23.23
-30.37
-36.95
-42.17
-45.33
-45.81
-43.21
-37.51
-29.20
-19.23
-8.71
1.28
9.91
16.69
21.30
23.55
23.39
21.00
16.89
11.89
6.94
2.81
-0.13
-2.02
-3.29
-4.41
-5.71
-7.19
-8.75
-10.30
-11.95
-13.98
-16.72
-20.46
-25.30
-31.14
-37.59
-43.91
-49.04
-51.74
-50.92
-46.08
-37.52
-26.36
-14.12
-2.30
8.02
16.27
22.23
25.77
26.79
25.36
21.82
16.98
11.88
7.41
4.03
1.60
-0.41
-2.57
-5.16
-8.08
-11.01
-13.60
-15.73
-17.61
-19.69
-22.52
-26.60
-32.15
-38.85
-45.79
-51.52
-54.35
-53.04
-47.10
-37.11
-24.51
-11.08
1.54
12.27
20.64
26.63
30.42
32.17
32.11
30.56
27.97
24.83
21.62
18.68
16.04
13.58
11.07
8.34
5.40
2.45
-0.33
-2.92
-5.55
-8.68
-12.87
-18.47
-25.42
-33.19
-40.68
-46.54
-49.39
-48.24
-42.77
-33.43
-21.30
-7.80
5.76
18.38
29.47
38.64
45.61
50.03
51.65
50.51
47.09
42.31
37.17
32.51
28.68
25.59
22.90
20.39
18.08
16.16
14.79
13.80
12.64
10.51
6.70
0.88
-6.77
-15.56
-24.50
-32.43
-38.20
-40.81
-39.53
-34.11
-24.93
-12.93
0.53
13.95
26.05
35.92
43.07
47.37
48.94
48.09
45.26
41.05
36.15
31.24
26.85
23.28
20.52
18.34
16.38
14.27
11.81
8.96
5.83
2.56
-0.90
-4.85
-9.79
-16.15
-23.92
-32.47
-40.48
-46.30
-48.46
-46.15
-39.43
-29.22
-16.90
-3.90
8.56
19.62
28.69
35.36
39.30
40.33
38.56
34.47
28.93
22.98
17.57
13.25
10.09
7.74
5.67
3.50
1.11
-1.41
-3.84
-6.17
-8.60
-11.62
-15.81
-21.55
-28.86
-37.11
-45.12
-51.33
-54.18
-52.56
-46.19
-35.64
-22.25
-7.71
6.34
18.63
28.31
35.00
38.63
39.45
37.91
34.65
30.39
25.81
21.39
17.38
13.78
10.49
7.42
4.56
1.92
-0.55
-2.96
-5.63
-8.88
-13.04
-18.32
-24.68
-31.84
-39.14
-45.54
-49.80
-50.69
-47.37
-39.72
-28.45
-14.86
-0.49
13.29
25.46
35.41
42.76
47.25
48.79
47.57
44.14
39.40
34.30
29.61
25.74
22.64
20.06
17.69
15.25
12.64
9.80
6.74
3.45
-0.10
-4.07
-8.74
-14.43
-21.39
-29.45
-37.84
-45.16
-49.69
-49.91
-45.12
-35.62
-22.65
-7.90
7.06
21.05
33.32
43.37
50.71
54.95
55.94
54.00
49.96
44.94
39.89
35.36
31.48
28.03
24.74
21.50
18.31
15.26
12.40
9.72
7.07
4.26
1.00
-3.09
-8.36
-15.02
-22.96
-31.54
-39.70
-46.03
-49.17
-48.20
-42.88
-33.67
-21.67
-8.25
5.26
17.74
28.35
36.47
41.67
43.74
42.81
39.41
34.43
28.95
23.85
19.63
16.28
13.41
10.54
7.36
3.85
0.29
-2.95
-5.67
-7.88
-9.97
-12.49
-16.03
-21.02
-27.56
-35.23
-43.14
-49.93
-54.12
-54.46
-50.33
-41.98
-30.37
-16.91
-3.06
9.96
21.18
29.95
35.73
38.30
37.74
34.62
29.89
24.62
19.68
15.48
11.96
8.81
5.65
2.37
-0.95
-4.03
-6.75
-9.09
-11.36
-13.94
-17.34
-21.94
-27.99
-35.36
-43.42
-50.97
-56.35
-58.01
-54.93
-47.09
-35.53
-22.01
-8.30
4.25
14.99
23.77
30.61
35.34
37.65
37.36
34.66
30.20
24.93
19.76
15.28
11.69
8.78
6.30
3.99
1.81
-0.21
-2.12
-4.10
-6.56
-10.03
-14.94
-21.52
-29.58
-38.40
-46.81
-53.34
-56.64
-55.73
-50.33
-40.86
-28.34
-14.09
0.54
14.39
26.59
36.47
43.52
47.43
48.15
46.00
41.75
36.51
31.41
27.31
24.52
22.81
21.55
20.08
17.95
15.09
11.74
8.21
4.70
1.11
-2.91
-7.92
-14.42
-22.63
-32.29
-42.50
-51.82
-58.52
-61.05
-58.52
-50.91
-39.15
-24.70
-9.21
5.94
19.80
31.81
41.49
48.42
52.15
52.49
49.70
44.65
38.60
32.88
28.42
25.48
23.68
22.20
20.17
17.15
13.16
8.66
4.25
0.31
-3.14
-6.52
-10.49
-15.72
-22.55
-30.84
-39.93
-48.65
-55.58
-59.30
-58.69
-53.21
-43.14
-29.48
-13.77
2.31
17.30
30.14
40.13
46.92
50.36
50.50
47.70
42.62
36.22
29.55
23.48
18.47
14.49
11.19
8.08
4.85
1.52
-1.66
-4.43
-6.78
-9.07
-12.03
-16.45
-22.90
-31.43
-41.50
-51.99
-61.34
-67.89
-70.18
-67.28
-59.10
-46.41
-30.66
-13.63
2.93
17.66
29.62
38.25
43.29
44.77
43.04
38.89
33.41
27.73
22.71
18.70
15.48
12.54
9.44
6.02
2.44
-0.90
-3.79
-6.26
-8.75
-11.90
-16.40
-22.79
-31.22
-41.25
-51.89
-61.50
-68.15
-70.11
-66.30
-56.69
-42.38
-25.27
-7.48
9.14
23.36
34.62
42.77
47.88
50.12
49.80
47.44
43.76
39.53
35.33
31.39
27.54
23.43
18.88
13.96
9.09
4.69
1.03
-2.03
-5.03
-8.73
-13.85
-20.85
-29.73
-39.88
-50.03
-58.47
-63.37
-63.28
-57.62
-46.85
-32.31
-15.73
1.23
17.38
31.92
44.38
54.26
61.03
64.31
64.04
60.76
55.49
49.52
43.95
39.41
35.91
33.00
30.09
26.74
22.91
18.92
15.11
11.63
8.20
4.13
-1.34
-8.78
-18.27
-29.19
-40.37
-50.25
-57.24
-60.00
-57.75
-50.39
-38.57
-23.54
-6.87
9.77
24.96
37.53
46.77
52.33
54.28
53.04
49.41
44.40
39.00
33.95
29.58
25.79
22.19
18.39
14.24
9.90
5.79
2.29
-0.47
-2.77
-5.21
-8.58
-13.59
-20.65
-29.68
-39.93
-50.05
-58.22
-62.67
-62.03
-55.85
-44.72
-30.08
-13.82
2.21
16.55
28.21
36.66
41.75
43.56
42.44
39.01
34.09
28.58
23.25
18.63
14.79
11.53
8.47
5.33
2.04
-1.29
-4.45
-7.35
-10.08
-13.07
-16.89
-22.18
-29.27
-37.93
-47.27
-55.74
-61.49
-62.86
-58.96
-49.85
-36.59
-20.75
-4.04
12.05
26.42
38.22
46.89
52.11
53.92
52.69
49.12
44.07
38.42
32.88
27.86
23.50
19.67
16.12
12.67
9.31
6.25
3.70
1.71
-0.11
-2.46
-6.19
-11.94
-19.89
-29.61
-40.00
-49.53
-56.38
-58.92
-56.13
-47.93
-35.35
-20.09
-4.14
10.90
24.14
35.28
44.31
51.08
55.27
56.46
54.64
50.32
44.59
38.72
33.74
30.09
27.56
25.52
23.27
20.42
17.06
13.68
10.81
8.66
6.98
5.07
2.08
-2.76
-9.73
-18.58
-28.43
-37.93
-45.51
-49.65
-49.29
-44.04
-34.42
-21.60
-7.21
7.25
20.61
32.23
41.86
49.36
54.51
57.02
56.71
53.75
48.70
42.49
36.13
30.43
25.76
22.05
18.94
16.04
13.07
9.99
6.89
3.88
0.96
-2.05
-5.45
-9.60
-14.81
-21.25
-28.76
-36.80
-44.36
-50.14
-52.80
-51.32
-45.36
-35.43
-22.68
-8.61
5.23
17.58
27.54
34.53
38.31
38.95
36.90
32.88
27.87
22.82
18.41
14.94
12.31
10.09
7.79
5.04
1.77
-1.75
-5.14
-8.11
-10.65
-13.11
-16.11
-20.30
-26.03
-33.13
-40.88
-48.01
-53.06
-54.75
-52.31
-45.69
-35.62
-23.41
-10.54
1.60
12.00
20.11
25.67
28.69
29.34
27.94
24.97
21.00
16.62
12.32
8.44
5.18
2.58
0.66
-0.62
-1.35
-1.73
-2.11
-2.87
-4.45
-7.22
-11.40
-17.02
-23.91
-31.52
-39.05
-45.36
-49.25
-49.63
-45.96
-38.33
-27.52
-14.85
-1.79
10.32
20.51
28.26
33.41
36.02
36.27
34.45
31.01
26.57
21.87
17.52
13.95
11.24
9.13
7.25
5.29
3.17
1.03
-0.95
-2.71
-4.37
-6.30
-8.94
-12.66
-17.63
-23.72
-30.35
-36.53
-41.01
-42.54
-40.25
-33.99
-24.40
-12.72
-0.40
11.29
21.53
29.91
36.23
40.28
41.83
40.86
37.68
33.02
27.86
23.11
19.34
16.63
14.70
13.04
11.31
9.37
7.36
5.41
3.56
1.61
-0.76
-3.86
-7.92
-12.98
-18.88
-25.26
-31.57
-36.99
-40.55
-41.28
-38.52
-32.19
-22.93
-11.92
-0.56
9.91
18.70
25.42
29.96
32.36
32.67
31.03
27.78
23.46
18.77
14.42
10.91
8.45
6.91
5.88
4.81
3.32
1.25
-1.32
-4.14
-7.07
-10.18
-13.80
-18.41
-24.39
-31.70
-39.81
-47.63
-53.74
-56.81
-55.95
-51.04
-42.74
-32.34
-21.30
-10.85
-1.76
5.62
11.20
14.84
16.40
15.76
13.12
9.12
4.65
0.62
-2.35
-4.17
-5.13
-5.68
-6.25
-6.97
-7.84
-8.81
-9.95
-11.54
-14.01
-17.78
-23.05
-29.71
-37.23
-44.69
-50.95
-54.80
-55.28
-51.94
-44.96
-35.12
-23.62
-11.73
-0.53
9.23
17.08
22.74
26.02
26.87
25.44
22.30
18.29
14.36
11.21
9.10
7.77
6.74
5.53
3.94
2.05
0.11
-1.75
-3.61
-5.83
-8.85
-13.04
-18.62
-25.53
-33.33
-41.26
-48.20
-52.83
-53.97
-50.95
-43.80
-33.44
-21.27
-8.80
2.80
12.89
21.25
27.83
32.44
34.87
34.95
32.88
29.29
25.09
21.16
17.97
15.57
13.51
11.32
8.71
5.81
2.98
0.69
-0.86
-1.87
-2.95
-4.94
-8.64
-14.52
-22.50
-31.80
-41.05
-48.45
-52.32
-51.53
-45.81
-35.88
-23.22
-9.53
3.74
15.66
25.83
34.12
40.45
44.62
46.47
46.02
43.59
39.82
35.43
31.09
27.14
23.68
20.59
17.67
14.72
11.65
8.48
5.28
2.14
-0.93
-4.05
-7.58
-11.99
-17.76
-25.10
-33.76
-42.89
-51.05
-56.65
-58.32
-55.33
-47.76
-36.49
-22.86
-8.29
5.90
18.74
29.52
37.73
43.06
45.41
44.96
42.21
37.96
33.16
28.70
25.16
22.59
20.64
18.69
16.22
13.00
9.26
5.40
1.80
-1.49
-4.81
-8.84
-14.31
-21.71
-31.10
-41.84
-52.65
-61.81
-67.50
-68.27
-63.43
-53.32
-39.16
-22.78
-6.13
9.14
21.90
31.58
37.99
41.19
41.42
39.07
34.75
29.22
23.37
17.97
13.57
10.24
7.75
5.64
3.53
1.21
-1.27
-3.80
-6.40
-9.24
-12.78
-17.57
-24.07
-32.35
-41.93
-51.69
-59.94
-64.83
-64.76
-58.95
-47.66
-32.18
-14.52
3.28
19.56
33.32
44.16
52.06
57.08
59.23
58.56
55.31
50.09
43.81
37.45
31.75
27.01
23.07
19.48
15.84
11.99
8.21
4.84
2.07
-0.36
-3.18
-7.37
-13.80
-22.83
-34.07
-46.30
-57.69
-66.10
-69.64
-67.18
-58.57
-44.74
-27.36
-8.40
10.35
27.57
42.46
54.59
63.60
69.24
71.37
70.16
66.22
60.60
54.54
49.18
45.12
42.21
39.79
36.97
33.12
28.24
22.87
17.72
13.28
9.49
5.83
1.55
-3.99
-11.18
-20.08
-30.42
-41.47
-51.93
-59.93
-63.39
-60.71
-51.40
-36.45
-18.04
1.13
18.75
33.49
45.02
53.66
59.73
63.34
64.32
62.60
58.53
53.02
47.24
42.22
38.43
35.58
32.90
29.58
25.20
20.00
14.67
9.95
6.23
3.30
0.41
-3.41
-9.00
-16.82
-26.81
-38.39
-50.44
-61.40
-69.42
-72.77
-70.29
-61.76
-48.06
-30.97
-12.67
4.87
20.20
32.54
41.62
47.40
49.95
49.45
46.26
41.08
34.92
28.92
23.95
20.34
17.84
15.73
13.26
9.99
5.96
1.58
-2.69
-6.66
-10.57
-15.00
-20.65
-28.05
-37.24
-47.62
-57.93
-66.45
-71.34
-71.12
-65.07
-53.46
-37.52
-19.07
-0.16
17.36
32.13
43.34
50.75
54.49
55.00
52.84
48.71
43.34
37.54
32.01
27.24
23.35
20.09
17.04
13.79
10.27
6.67
3.30
0.22
-2.87
-6.70
-12.14
-19.84
-29.86
-41.50
-53.33
-63.43
-69.86
-71.06
-66.29
-55.80
-40.73
-22.87
-4.13
13.81
29.71
42.80
52.61
58.84
61.32
60.22
56.08
49.98
43.23
37.08
32.29
28.92
26.43
23.98
20.92
17.06
12.71
8.48
4.88
2.01
-0.50
-3.41
-7.64
-13.89
-22.41
-32.74
-43.64
-53.26
-59.47
-60.49
-55.36
-44.37
-28.90
-10.99
7.29
24.28
38.92
50.65
59.15
64.19
65.69
63.87
59.34
53.11
46.29
39.90
34.52
30.24
26.79
23.69
20.54
17.18
13.67
10.16
6.73
3.29
-0.51
-5.06
-10.75
-17.88
-26.53
-36.44
-46.87
-56.52
-63.74
-66.84
-64.68
-57.03
-44.70
-29.25
-12.52
3.82
18.54
30.76
39.88
45.51
47.48
46.02
41.77
35.76
29.14
22.89
17.54
13.16
9.43
6.00
2.72
-0.35
-3.03
-5.26
-7.29
-9.60
-12.77
-17.28
-23.35
-30.87
-39.51
-48.52
-56.84
-63.07
-65.66
-63.37
-55.78
-43.43
-27.89
-11.20
4.61
18.05
28.34
35.34
39.20
40.25
38.80
35.35
30.54
25.24
20.28
16.21
13.16
10.74
8.41
5.67
2.44
-1.00
-4.15
-6.68
-8.71
-10.86
-14.10
-19.25
-26.63
-35.80
-45.56
-54.22
-60.08
-61.80
-58.70
-50.86
-39.05
-24.50
-8.73
6.78
20.79
32.39
41.06
46.61
49.11
48.83
46.21
41.92
36.77
31.61
27.12
23.55
20.77
18.28
15.55
12.26
8.46
4.53
0.89
-2.29
-5.25
-8.61
-13.08
-19.15
-26.74
-35.15
-43.16
-49.31
-52.24
-51.02
-45.34
-35.61
-22.83
-8.41
6.22
19.86
31.67
41.17
48.05
52.05
53.04
51.10
46.74
40.84
34.54
28.85
24.39
21.19
18.87
16.87
14.77
12.40
9.90
7.45
5.16
2.90
0.31
-3.10
-7.82
-14.15
-22.02
-30.88
-39.72
-47.16
-51.74
-52.33
-48.40
-40.23
-28.81
-15.58
-2.05
10.48
21.06
29.07
34.13
36.19
35.49
32.56
28.24
23.42
18.80
14.79
11.45
8.57
5.89
3.19
0.42
-2.32
-4.81
-6.89
-8.54
-10.04
-11.94
-14.96
-19.79
-26.74
-35.50
-45.05
-53.80
-59.88
-61.79
-58.74
-50.90
-39.41
-25.91
-12.16
0.41
10.87
18.82
24.11
26.79
27.01
25.09
21.57
17.16
12.62
8.52
5.12
2.40
0.15
-1.83
-3.66
-5.29
-6.66
-7.78
-8.88
-10.36
-12.76
-16.59
-22.16
-29.33
-37.44
-45.29
-51.35
-54.17
-52.72
-46.75
-36.86
-24.34
-10.80
2.25
13.70
22.93
29.71
34.08
36.12
36.02
34.13
30.97
27.27
23.70
20.76
18.52
16.73
14.96
12.82
10.16
7.07
3.81
0.65
-2.31
-5.24
-8.51
-12.55
-17.73
-24.13
-31.32
-38.44
-44.19
-47.22
-46.42
-41.39
-32.58
-21.16
-8.76
3.09
13.30
21.42
27.51
31.83
34.59
35.88
35.72
34.19
31.62
28.54
25.48
22.84
20.73
18.98
17.36
15.75
14.17
12.75
11.56
10.43
8.97
6.68
3.03
-2.26
-9.22
-17.56
-26.57
-35.23
-42.25
-46.33
-46.50
-42.47
-34.66
-24.20
-12.50
-0.83
9.89
19.14
26.70
32.41
36.07
37.47
36.59
33.71
29.50
24.84
20.65
17.51
15.59
14.52
13.68
12.45
10.46
7.79
4.83
2.09
-0.12
-1.88
-3.69
-6.22
-10.15
-15.84
-23.18
-31.55
-39.88
-46.85
-51.14
-51.74
-48.21
-40.91
-30.81
-19.27
-7.65
3.03
12.10
19.19
24.08
26.60
26.66
24.44
20.53
15.83
11.27
7.54
4.90
3.09
1.62
0.05
-1.83
-3.93
-6.01
-7.94
-9.75
-11.70
-14.17
-17.53
-22.03
-27.74
-34.39
-41.34
-47.55
-51.66
-52.42
-49.03
-41.50
-30.67
-18.03
-5.22
6.40
15.94
23.12
27.99
30.74
31.56
30.57
27.95
24.06
19.44
14.77
10.63
7.38
4.99
3.17
1.57
-0.05
-1.63
-3.05
-4.22
-5.33
-6.93
-9.69
-14.17
-20.52
-28.15
-35.90
-42.23
-45.63
-45.11
-40.45
-32.20
-21.40
-9.34
2.83
14.15
23.97
31.79
37.28
40.32
41.03
39.80
37.20
33.85
30.25
26.70
23.34
20.17
17.07
13.96
10.86
7.84
5.10
2.80
0.94
-0.72
-2.66
-5.49
-9.76
-15.70
-23.09
-31.12
-38.56
-44.00
-46.14
-44.18
-38.00
-28.18
-15.88
-2.58
10.30
21.63
30.73
37.42
41.77
44.00
44.34
42.98
40.13
36.15
31.50
26.73
22.32
18.55
15.45
12.85
10.51
8.24
6.04
4.01
2.18
0.47
-1.43
-3.98
-7.66
-12.80
-19.45
-27.26
-35.41
-42.69
-47.68
-49.12
-46.24
-39.09
-28.56
-16.15
-3.45
8.23
18.14
26.02
31.87
35.68
37.40
36.95
34.49
30.49
25.62
20.62
16.03
12.01
8.47
5.22
2.16
-0.66
-3.13
-5.18
-7.02
-9.06
-11.84
-15.84
-21.35
-28.35
-36.51
-45.11
-53.11
-59.25
-62.25
-61.18
-55.70
-46.23
-33.89
-20.16
-6.56
5.72
15.91
23.61
28.63
30.88
30.46
27.71
23.30
18.16
13.24
9.21
6.36
4.44
2.95
1.41
-0.44
-2.58
-4.80
-6.89
-8.84
-10.87
-13.45
-17.13
-22.41
-29.38
-37.60
-45.91
-52.70
-56.24
-55.25
-49.31
-39.05
-25.95
-11.78
1.83
13.81
23.63
31.13
36.26
39.04
39.55
38.09
35.16
31.46
27.64
24.13
21.03
18.20
15.39
12.48
9.50
6.67
4.20
2.21
0.53
-1.26
-3.81
-7.84
-13.85
-21.88
-31.25
-40.63
-48.20
-52.19
-51.40
-45.51
-35.17
-21.73
-6.83
8.08
21.88
33.87
43.57
50.61
54.72
55.77
53.97
49.93
44.58
39.00
34.07
30.25
27.44
25.14
22.73
19.78
16.25
12.43
8.78
5.54
2.58
-0.55
-4.46
-9.66
-16.38
-24.45
-33.24
-41.74
-48.58
-52.27
-51.61
-45.99
-35.71
-21.94
-6.42
9.00
22.86
34.20
42.58
47.83
49.96
49.13
45.80
40.70
34.82
29.09
24.06
19.86
16.20
12.69
9.11
5.58
2.46
0.15
-1.24
-2.02
-2.89
-4.69
-8.20
-13.94
-21.87
-31.42
-41.38
-50.13
-55.93
-57.29
-53.48
-44.68
-31.98
-17.10
-1.98
11.69
22.71
30.43
34.75
35.96
34.57
31.25
26.71
21.65
16.63
12.06
8.14
4.78
1.78
-1.07
-3.91
-6.66
-9.14
-11.22
-13.00
-14.90
-17.57
-21.76
-27.94
-36.07
-45.39
-54.41
-61.25
-64.13
-61.86
-54.21
-41.95
-26.55
-9.78
6.70
21.55
33.75
42.62
47.73
49.14
47.39
43.49
38.65
33.88
29.72
26.17
22.85
19.37
15.58
11.66
7.99
4.88
2.32
-0.06
-2.84
-6.66
-11.98
-18.92
-27.18
-36.00
-44.19
-50.36
-53.13
-51.55
-45.30
-34.87
-21.39
-6.35
8.70
22.45
33.95
42.67
48.37
51.07
51.10
48.92
45.17
40.52
35.60
30.82
26.35
22.17
18.17
14.37
10.89
7.93
5.57
3.62
1.61
-1.14
-5.36
-11.49
-19.54
-28.99
-38.83
-47.69
-54.06
-56.56
-54.27
-46.98
-35.29
-20.55
-4.49
11.19
25.17
36.64
45.30
51.10
54.03
