1625040877.00
64.000000
-0.00
-0.00
-0.00
-0.00
-0.00
-0.00
-0.00
-0.00
-0.00
-0.00
0.00
0.01
0.01
-0.00
-0.03
-0.05
-0.05
0.00
0.13
0.36
0.66
1.01
1.37
1.72
2.06
2.40
2.79
3.24
3.80
4.42
5.06
5.66
6.20
6.68
7.15
7.68
8.31
9.14
10.09
11.04
11.88
12.56
13.14
13.76
14.65
15.96
17.91
20.32
22.90
25.38
27.58
29.57
31.68
34.32
37.81
42.54
48.15
54.10
59.83
64.97
69.58
74.14
79.34
85.71
93.76
103.00
112.62
121.73
129.77
136.75
143.30
150.75
157.77
166.64
177.95
191.79
206.97
220.57
228.25
225.36
208.53
176.87
132.76
80.05
23.07
-34.94
-92.44
-149.16
-205.23
-260.37
-313.74
-363.88
-409.84
-450.91
-486.50
-515.74
-537.22
-549.21
-549.93
-538.32
-514.14
-478.58
-433.75
-382.28
-326.80
-269.57
-212.30
-156.27
-102.50
-51.85
-5.31
36.25
72.17
102.17
126.40
145.37
159.78
170.33
177.66
182.15
184.10
183.73
181.33
177.22
171.84
165.58
158.79
151.72
144.50
137.23
129.93
122.64
115.45
108.41
101.59
95.06
88.85
82.96
77.42
72.22
67.39
62.93
58.85
55.16
51.85
48.91
46.33
44.12
42.25
40.75
39.61
38.82
38.38
38.26
38.42
38.78
39.24
39.67
39.88
39.70
38.94
37.44
35.07
31.77
27.55
22.45
16.63
10.30
3.71
-2.87
-9.16
-14.91
-19.92
-24.05
-27.21
-29.37
-30.57
-30.90
-30.45
-29.34
-27.69
-25.62
-23.21
-20.55
-17.68
-14.68
-11.59
-8.47
-5.33
-2.19
0.94
4.08
7.23
10.43
13.66
16.91
20.16
23.42
26.72
30.05
33.46
36.97
40.65
44.41
48.22
52.08
56.00
60.03
64.23
68.70
73.54
78.91
84.71
90.88
97.40
104.23
111.32
118.61
126.06
133.60
141.19
148.47
155.11
160.84
165.34
168.29
169.29
167.84
163.23
156.80
149.09
140.50
131.37
121.99
112.61
103.48
94.80
86.75
79.56
73.06
67.15
61.76
56.79
52.13
47.69
43.42
39.30
35.41
31.65
27.99
24.50
21.22
18.21
15.51
13.15
11.18
9.70
8.65
7.98
7.68
7.65
7.72
7.70
7.38
6.63
5.42
3.75
1.70
-0.62
-3.23
-6.30
-10.10
-14.93
-20.99
-28.23
-36.39
-45.06
-53.83
-62.49
-71.16
-80.15
-89.85
-100.39
-111.53
-122.57
-132.65
-141.06
-147.59
-152.71
-157.41
-162.88
-169.95
-178.85
-189.09
-199.84
-210.24
-219.94
-229.23
-238.90
-250.09
-264.02
-281.76
-303.79
-329.48
-356.46
-380.69
-397.20
-401.64
-391.95
-369.18
-337.13
-300.81
-264.59
-230.97
-200.48
-172.52
-146.53
-122.46
-100.63
-81.15
-63.33
-45.69
-26.41
-4.11
21.70
50.04
78.50
103.63
121.80
130.38
128.80
119.07
105.18
91.88
82.94
79.84
81.50
84.76
85.81
81.97
72.76
60.14
47.62
38.83
36.02
39.35
46.96
55.63
61.52
60.88
50.53
28.80
-3.10
-39.81
-72.00
-88.92
-82.75
-52.92
-7.78
37.70
67.50
70.81
45.89
0.13
-53.54
-101.71
-134.45
-146.86
-138.46
-111.60
-70.49
-21.54
26.38
62.76
78.34
68.99
38.20
-3.42
-42.09
-66.63
-72.79
-64.07
-48.91
-35.80
-29.60
-30.55
-35.91
-42.52
-48.55
-53.65
-58.15
-62.44
-66.85
-72.11
-79.35
-89.54
-102.42
-116.11
-127.24
-131.92
-127.11
-111.58
-86.16
-53.23
-15.80
23.59
63.76
105.29
150.12
200.25
255.89
313.91
367.76
408.97
430.13
427.78
403.70
364.07
316.72
267.98
220.89
175.51
130.70
86.18
43.31
4.27
-29.54
-58.55
-84.62
-109.32
-132.38
-151.34
-162.66
-163.69
-154.35
-137.22
-116.38
-95.80
-77.94
-63.58
-52.35
-43.48
-36.24
-30.05
-24.34
-18.66
-12.88
-7.21
-1.76
3.75
10.37
19.39
31.51
46.35
62.30
77.21
89.27
97.52
102.02
103.37
102.38
99.79
96.40
93.35
91.89
92.78
95.51
98.10
97.89
92.94
83.31
71.27
60.23
52.99
50.26
50.43
50.66
48.64
43.82
37.33
31.11
26.43
23.33
20.75
17.49
13.08
7.89
2.78
-1.64
-5.51
-9.63
-15.14
-22.82
-32.63
-43.69
-54.63
-64.13
-71.36
-76.11
-78.64
-79.43
-78.97
-77.74
-76.38
-75.70
-76.50
-79.32
-84.07
-89.99
-95.84
-100.28
-102.33
-101.56
-98.17
-92.71
-86.00
-78.90
-72.24
-66.65
-62.41
-59.44
-57.44
-56.03
-54.98
-54.33
-54.40
-55.59
-58.23
-62.43
-67.99
-74.39
-80.84
-86.49
-90.64
-93.02
-93.88
-93.91
-93.80
-93.87
-93.89
-93.29
-91.66
-89.21
-86.76
-85.39
-85.76
-87.72
-90.41
-92.67
-93.54
-92.45
-89.22
-83.93
-76.92
-68.84
-60.67
-53.43
-47.58
-42.62
-37.01
-28.79
-16.55
-0.40
17.91
35.68
50.48
61.26
68.55
73.91
78.94
84.37
89.83
94.31
97.02
97.96
98.07
98.49
99.85
101.82
103.45
103.91
103.33
103.16
105.62
112.80
125.59
143.22
163.47
183.67
201.59
215.99
226.64
233.70
237.25
236.82
231.61
220.97
204.93
184.55
161.72
138.41
115.86
94.20
72.43
49.29
24.09
-2.82
-30.20
-56.78
-81.85
-105.28
-126.81
-145.22
-158.03
-162.53
-157.35
-143.79
-125.85
-108.80
-97.31
-93.69
-97.27
-105.15
-113.25
-117.67
-115.80
-106.94
-92.37
-74.76
-56.86
-39.93
-22.82
-2.64
23.43
56.20
93.69
132.26
168.50
200.52
227.53
248.13
259.17
256.59
237.83
204.33
162.11
119.76
85.06
61.92
49.46
43.32
38.04
29.02
13.53
-9.10
-37.60
-68.64
-97.28
-118.19
-127.34
-123.79
-110.38
-93.22
-79.77
-76.48
-86.58
-108.71
-137.23
-163.75
-179.83
-179.56
-161.39
-128.23
-86.15
-42.16
-2.27
29.49
50.99
61.35
60.32
48.41
27.24
-0.02
-28.73
-53.55
-70.03
-75.93
-71.76
-60.15
-44.60
-28.17
-13.02
-0.49
8.59
13.56
14.06
10.06
1.94
-9.52
-23.22
-37.75
-51.56
-63.10
-71.32
-75.99
-77.79
-77.92
-77.24
-75.70
-72.32
-65.73
-55.12
-40.68
-23.59
-5.51
11.79
26.75
38.17
45.33
48.36
48.60
48.31
49.85
54.53
61.77
69.40
74.69
75.80
72.41
65.44
56.25
45.91
35.28
25.49
18.42
16.30
20.61
30.81
44.00
55.99
63.23
64.49
61.01
55.28
49.29
43.39
36.49
27.11
14.64
-0.35
-16.25
-31.30
-43.93
-52.78
-56.55
-53.93
-44.17
-27.72
-6.59
16.15
37.40
55.29
69.55
81.26
91.86
102.34
112.92
123.16
132.49
140.37
146.43
150.33
151.62
149.86
144.72
136.13
124.32
109.80
93.28
75.54
57.22
38.66
19.85
0.75
-18.42
-36.72
-52.50
-63.92
-69.72
-69.94
-66.13
-60.76
-56.18
-53.63
-52.89
-52.67
-51.61
-49.07
-45.42
-41.70
-38.86
-37.18
-36.14
-34.87
-32.77
-29.99
-27.32
-25.75
-25.88
-27.61
-30.22
-32.85
-34.94
-36.43
-37.62
-38.77
-39.75
-40.01
-38.75
-35.24
-29.25
-21.16
-12.00
-3.21
3.75
7.84
8.75
7.04
3.86
0.54
-2.07
-3.84
-5.35
-7.49
-10.93
-15.79
-21.56
-27.46
-32.87
-37.74
-42.61
-48.32
-55.41
-63.77
-72.62
-80.82
-87.25
-91.02
-91.29
-87.36
-78.83
-66.07
-50.62
-34.84
-21.28
-11.57
-5.85
-2.85
-0.78
1.77
5.14
8.85
12.07
14.21
15.17
15.10
14.27
12.83
10.85
8.33
5.23
1.51
-2.77
-7.36
-11.81
-15.73
-19.08
-22.26
-25.92
-30.51
-35.79
-40.67
-43.56
-42.82
-37.45
-27.44
-13.76
1.87
17.50
31.40
42.38
49.97
54.42
56.66
58.28
61.18
67.07
76.72
89.47
103.44
116.35
126.73
134.64
141.29
147.98
154.66
159.31
158.32
147.92
125.83
92.38
50.86
7.01
-31.87
-58.41
-66.68
-53.83
-21.09
26.09
79.54
130.60
172.67
202.48
220.02
227.04
225.41
216.39
200.96
181.06
160.26
143.28
134.42
135.55
145.19
159.02
171.76
179.47
180.90
177.47
171.92
166.37
161.10
154.24
142.71
123.78
96.47
62.18
24.22
-13.44
-47.72
-77.51
-103.74
-128.84
-155.53
-185.84
-220.44
-258.29
-296.69
-331.59
-358.39
-373.02
-373.29
-359.80
-336.25
-308.45
-282.38
-261.76
-246.35
-231.87
-211.96
-181.49
-139.54
-90.44
-41.96
-1.56
27.32
46.58
61.73
78.20
97.74
117.33
130.94
132.97
121.42
98.94
71.48
45.69
26.23
14.67
9.84
9.37
11.10
13.79
16.91
20.03
22.51
23.81
24.00
23.74
23.76
23.94
22.79
18.01
7.77
-7.92
-26.82
-45.45
-60.60
-70.82
-76.70
-79.95
-82.05
-83.31
-82.95
-80.03
-74.37
-66.85
-58.85
-51.45
-44.71
-37.72
-29.23
-18.66
-6.80
4.01
10.59
10.18
1.60
-13.99
-33.39
-52.38
-67.30
-76.26
-79.69
-79.81
-79.40
-80.27
-82.32
-83.66
-81.64
-74.24
-61.28
-44.68
-27.85
-14.50
-7.28
-6.74
-11.04
-16.34
-18.08
-12.56
1.60
22.90
47.38
69.95
86.14
93.41
91.72
83.11
70.71
57.64
46.25
37.84
32.84
31.17
32.46
36.15
41.27
46.37
49.72
49.96
46.62
40.46
33.21
26.66
21.87
18.64
15.81
11.90
5.97
-2.03
-11.27
-20.22
-27.27
-31.08
-31.02
-27.33
-21.07
-13.71
-6.54
-0.30
4.86
9.05
12.24
14.29
15.04
14.78
14.28
14.51
16.14
19.28
23.42
27.78
31.71
34.73
36.58
37.17
36.63
35.34
33.80
32.20
30.17
26.82
21.26
13.43
4.53
-3.23
-7.64
-7.65
-4.17
0.24
2.51
0.35
-6.69
-17.15
-28.48
-38.16
-44.70
-48.17
-50.00
-52.16
-56.36
-63.26
-72.19
-81.35
-88.23
-90.44
-86.35
-75.83
-60.59
-44.12
-30.92
-25.33
-30.16
-45.71
-69.60
-97.50
-124.38
-145.90
-159.27
-163.55
-159.37
-148.51
-133.31
-116.26
-99.61
-84.85
-72.37
-61.20
-49.35
-34.57
-15.52
7.25
31.09
51.90
65.52
69.37
63.33
49.73
32.34
15.01
0.59
-9.39
-14.49
-14.91
-11.16
-4.05
5.19
14.99
23.66
29.96
33.50
34.81
35.30
36.61
40.12
46.44
55.26
65.49
75.64
84.15
89.84
92.05
90.68
86.23
79.60
72.01
64.68
58.68
54.60
52.47
51.81
51.76
51.34
49.67
46.20
40.85
33.99
26.27
18.44
11.06
4.22
-2.45
-9.67
-18.05
-27.77
-38.29
-48.41
-56.61
-61.57
-62.61
-59.90
-54.34
-47.13
-39.30
-31.44
-23.77
-16.56
-10.30
-5.85
-3.97
-4.95
-8.34
-13.16
-18.56
-24.29
-30.88
-39.19
-49.65
-61.55
-73.09
-81.98
-86.53
-86.56
-83.66
-80.58
-80.03
-83.49
-90.48
-98.92
-106.04
-109.63
-108.75
-103.66
-95.13
-83.62
-68.99
-50.75
-28.84
-4.12
21.70
46.65
69.35
89.40
107.22
123.59
138.99
153.35
166.23
177.10
185.68
192.12
196.80
200.16
202.47
203.58
202.93
199.53
192.32
180.51
164.06
143.94
122.00
100.49
81.37
65.86
54.25
46.10
40.66
37.13
34.82
33.18
31.74
30.14
28.24
26.12
24.05
22.25
20.89
19.98
19.52
19.55
20.19
21.48
23.20
24.88
25.79
25.28
22.96
18.92
13.70
8.12
2.90
-1.50
-5.07
-8.15
-11.28
-15.01
-19.70
-25.44
-32.00
-38.83
-45.07
-49.80
-52.24
-52.01
-49.29
-44.68
-39.02
-33.06
-27.38
-22.30
-18.06
-14.76
-12.42
-10.84
-9.73
-8.76
-7.76
-6.76
-5.97
-5.61
-5.72
-6.09
-6.43
-6.59
-6.61
-6.81
-7.53
-8.93
-10.95
-13.23
-15.40
-17.20
-18.71
-20.19
-22.00
-24.31
-26.94
-29.27
-30.43
-29.66
-26.53
-21.18
-14.19
-6.47
0.99
7.19
11.28
12.63
11.03
7.02
1.95
-2.21
-3.65
-1.57
3.12
8.04
10.22
7.57
-0.04
-10.64
-21.02
-28.24
-30.75
-28.85
-24.05
-18.07
-12.01
-6.20
-0.68
4.26
7.88
9.31
8.21
5.12
1.41
-1.30
-1.83
0.09
3.78
8.01
11.58
13.78
14.49
14.09
13.17
12.18
11.29
10.31
8.98
7.04
4.51
1.55
-1.55
-4.54
-7.28
-9.68
-11.68
-13.25
-14.38
-15.15
-15.78
-16.55
-17.77
-19.63
-22.24
-25.54
-29.30
-33.13
-36.44
-38.63
-39.14
-37.75
-34.59
-30.05
-24.66
-18.86
-12.99
-7.34
-2.16
2.26
5.65
7.93
9.21
9.79
10.08
10.38
10.93
11.75
12.72
13.58
14.00
13.68
12.47
10.42
7.74
4.66
1.39
-2.07
-5.71
-9.47
-13.12
-16.36
-18.99
-21.09
-22.91
-24.67
-26.36
-27.56
-27.69
-26.36
-23.61
-19.98
-16.16
-12.68
-9.66
-6.85
-3.93
-0.79
2.38
5.21
7.44
9.04
10.27
11.38
12.45
13.32
13.68
13.24
11.98
10.19
8.29
6.65
5.34
4.13
2.64
0.58
-2.06
-4.94
-7.56
-9.55
-10.76
-11.39
-11.79
-12.39
-13.48
-15.21
-17.61
-20.62
-24.06
-27.67
-31.03
-33.68
-35.16
-35.09
-33.31
-29.85
-25.02
-19.33
-13.39
-7.79
-2.90
1.13
4.36
6.95
9.06
10.80
12.23
13.33
14.08
14.47
14.45
14.04
13.24
12.11
10.67
8.95
6.86
4.27
0.94
-3.35
-8.73
-15.17
-22.39
-29.95
-37.22
-43.53
-48.22
-50.74
-50.70
-47.98
-42.72
-35.40
-26.77
-17.69
-9.04
-1.49
4.52
8.88
11.75
13.50
14.63
15.55
16.53
17.59
18.58
19.27
19.50
19.23
18.51
17.43
16.04
14.38
12.50
10.50
8.47
6.45
4.42
2.39
0.44
-1.30
-2.75
-4.05
-5.60
-7.91
-11.31
-15.65
-20.25
-24.07
-26.17
-26.10
-24.04
-20.64
-16.66
-12.63
-8.69
-4.74
-0.57
3.84
8.28
12.43
15.91
18.49
20.07
20.71
20.54
19.83
18.87
18.02
17.60
17.74
18.37
19.24
19.98
20.25
19.82
18.57
16.54
13.82
10.48
6.57
2.13
-2.83
-8.28
-14.16
-20.30
-26.32
-31.66
-35.66
-37.73
-37.57
-35.25
-31.14
-25.74
-19.50
-12.76
-5.77
1.18
7.72
13.46
18.08
21.48
23.80
25.27
26.12
26.50
26.53
26.28
25.80
25.13
24.20
22.84
20.86
18.17
14.89
11.26
7.63
4.19
1.01
-2.03
-5.06
-8.14
-11.33
-14.68
-18.29
-22.27
-26.55
-30.79
-34.38
-36.57
-36.73
-34.58
-30.29
-24.39
-17.53
-10.34
-3.30
3.26
9.12
14.05
17.78
20.08
20.84
20.12
18.27
15.74
13.08
10.68
8.73
7.18
5.85
4.58
3.30
2.10
1.13
0.53
0.31
0.35
0.45
0.36
-0.05
-0.86
-2.07
-3.71
-5.82
-8.47
-11.61
-14.99
-18.15
-20.44
-21.16
-19.84
-16.35
-11.00
-4.47
2.46
9.08
14.97
19.94
23.98
27.09
29.23
30.35
30.53
30.01
29.17
28.41
27.94
27.69
27.39
26.68
25.30
23.19
20.47
17.32
13.98
10.60
7.24
3.92
0.64
-2.65
-6.02
-9.61
-13.54
-17.99
-22.97
-28.26
-33.36
-37.53
-40.01
-40.27
-38.16
-33.96
-28.28
-21.84
-15.26
-8.97
-3.19
1.95
6.32
9.76
12.15
13.49
13.97
13.91
13.71
13.67
13.96
14.57
15.37
16.23
16.94
17.22
16.72
15.06
12.12
8.03
3.35
-1.26
-5.14
-8.05
-10.14
-11.90
-13.88
-16.41
-19.48
-22.69
-25.44
-27.07
-27.12
-25.37
-21.91
-17.01
-11.03
-4.41
2.47
9.18
15.36
20.61
24.66
27.39
28.85
29.26
28.94
28.21
27.37
26.57
25.82
25.00
23.92
22.43
20.49
18.21
15.66
12.88
9.80
6.32
2.42
-1.77
-6.06
-10.28
-14.41
-18.54
-22.79
-27.12
-31.24
-34.61
-36.65
-36.89
-35.13
-31.48
-26.24
-19.85
-12.72
-5.28
2.03
8.78
14.53
18.92
21.79
23.23
23.54
23.17
22.57
22.09
21.83
21.77
21.72
21.49
20.85
19.66
17.78
15.22
12.11
8.68
5.22
1.91
-1.20
-4.27
-7.57
-11.31
-15.60
-20.36
-25.24
-29.72
-33.21
-35.09
-34.85
-32.31
-27.59
-21.14
-13.66
-5.95
1.30
7.54
12.54
16.36
19.24
21.56
23.58
25.45
27.06
28.20
28.65
28.32
27.24
25.57
23.51
21.24
18.91
16.60
14.30
11.98
9.50
6.75
3.67
0.31
-3.25
-6.88
-10.58
-14.44
-18.55
-22.91
-27.23
-30.98
-33.47
-34.08
-32.51
-28.83
-23.57
-17.49
-11.41
-6.01
-1.77
1.08
2.52
2.76
2.27
1.64
1.49
2.10
3.23
4.03
3.34
0.13
-5.96
-14.46
-24.16
-33.47
-40.78
-44.76
-44.41
-39.25
-29.49
-16.24
-1.53
12.09
22.36
27.95
28.91
26.30
21.59
15.99
10.17
4.49
-0.70
-4.95
-7.91
-9.63
-10.69
-12.05
-14.61
-18.82
-24.62
-31.65
-39.44
-47.70
-56.16
-64.46
-72.13
-78.79
-84.33
-89.03
-93.45
-98.13
-103.28
-108.72
-113.95
-118.41
-121.64
-123.32
-123.23
-120.99
-116.05
-107.75
-95.42
-78.43
-56.36
-29.06
3.11
38.91
76.24
112.19
143.64
167.82
182.75
187.39
181.60
166.07
142.38
113.13
81.91
52.96
30.31
16.94
14.01
20.68
34.44
51.82
69.21
83.69
93.58
98.65
99.85
98.70
96.53
93.82
90.21
84.78
76.63
65.21
50.38
32.20
10.69
-13.79
-40.10
-65.95
-88.11
-103.46
-110.21
-108.78
-101.63
-92.18
-83.37
-76.73
-72.32
-69.52
-67.77
-67.06
-67.72
-69.79
-72.76
-75.56
-77.06
-76.55
-73.94
-69.70
-64.71
-60.15
-57.22
-56.79
-58.87
-62.37
-65.06
-64.23
-57.72
-44.79
-26.58
-5.74
14.50
31.47
43.87
52.13
57.84
62.94
68.73
75.38
81.76
86.16
86.92
83.11
74.81
63.33
51.24
42.15
39.79
46.78
63.13
85.53
108.07
124.23
129.49
123.08
108.08
89.78
73.19
61.19
53.96
49.95
47.24
44.63
41.72
38.56
34.93
30.30
24.01
15.75
6.04
-3.74
-11.91
-17.02
-18.37
-16.22
-11.64
-5.95
-0.32
4.68
9.10
13.35
17.89
22.87
27.94
32.43
35.67
37.32
37.50
36.74
35.66
34.64
33.66
32.34
30.27
27.20
23.25
18.93
14.84
11.47
8.96
7.04
5.10
2.42
-1.59
-7.20
-14.19
-21.91
-29.42
-35.65
-39.67
-40.92
-39.17
-34.70
-28.08
-20.09
-11.57
-3.27
4.20
10.52
15.54
19.38
22.28
24.53
26.42
28.09
29.54
30.60
31.02
30.58
29.18
26.87
23.87
20.47
16.98
13.66
10.50
7.17
2.98
-2.98
-11.43
-22.45
-35.18
-47.95
-58.70
-65.63
-67.71
-64.83
-57.62
-47.08
-34.37
-20.75
-7.65
3.49
11.49
15.83
16.97
16.16
14.97
14.72
15.95
18.40
21.18
23.23
23.70
22.11
18.44
12.99
6.25
-1.23
-8.96
-16.58
-23.88
-30.81
-37.33
-43.24
-48.10
-51.19
-51.68
-48.92
-42.69
-33.36
-21.83
-9.34
2.85
13.71
22.56
29.10
33.33
35.49
36.03
35.49
34.39
33.20
32.20
31.45
30.79
29.94
28.57
26.51
23.74
20.42
16.80
13.01
8.97
4.46
-0.79
-6.93
-13.88
-21.34
-28.82
-35.84
-41.89
-46.45
-49.03
-49.26
-46.99
-42.38
-35.92
-28.15
-19.59
-10.55
-1.24
8.08
16.98
24.85
31.04
35.16
37.21
37.58
36.90
35.84
34.80
33.91
33.02
31.84
30.06
27.48
24.05
19.87
15.15
10.11
5.00
0.03
-4.67
-9.09
-13.33
-17.71
-22.57
-28.13
-34.29
-40.45
-45.61
-48.64
-48.63
-45.21
-38.74
-30.09
-20.36
-10.56
-1.36
6.91
14.15
20.33
25.37
29.17
31.69
33.09
33.67
33.87
34.05
34.41
34.89
35.23
35.07
34.10
32.17
29.23
25.44
21.01
16.18
11.20
6.23
1.36
-3.50
-8.48
-13.86
-19.85
-26.61
-34.05
-41.74
-48.91
-54.55
-57.59
-57.26
-53.33
-46.18
-36.71
-26.00
-15.01
-4.44
5.34
14.14
21.79
28.08
32.82
35.89
37.38
37.63
37.05
36.07
34.94
33.71
32.28
30.52
28.38
25.89
23.12
20.11
16.83
13.24
9.35
5.27
1.17
-2.87
-6.98
-11.44
-16.62
-22.67
-29.40
-36.14
-41.98
-45.91
-47.21
-45.55
-41.14
-34.52
-26.36
-17.33
-7.94
1.38
10.27
18.33
25.14
30.34
33.77
35.50
35.81
35.06
33.62
31.73
29.57
27.31
25.08
22.99
21.10
19.28
17.39
15.26
12.85
10.27
7.66
5.21
2.94
0.73
-1.66
-4.51
-8.04
-12.44
-17.67
-23.58
-29.71
-35.37
-39.73
-42.01
-41.65
-38.53
-32.98
-25.70
-17.52
-9.22
-1.41
5.59
11.59
16.47
20.16
22.64
24.00
24.48
24.44
24.21
24.06
23.98
23.81
23.29
22.22
20.57
18.46
16.06
13.49
10.72
7.66
4.25
0.60
-3.04
-6.33
-9.04
-11.16
-13.04
-15.19
-18.07
-21.85
-26.26
-30.67
-34.22
-36.16
-36.04
-33.76
-29.55
-23.80
-17.00
-9.61
-2.07
5.21
11.84
17.53
22.07
25.37
27.36
28.01
27.31
25.40
22.56
19.25
15.92
12.91
10.39
8.30
6.48
4.76
3.01
1.25
-0.42
-1.86
-2.93
-3.59
-3.89
-4.00
-4.16
-4.63
-5.66
-7.34
-9.67
-12.42
-15.20
-17.46
-18.65
-18.31
-16.27
-12.72
-8.18
-3.31
1.22
4.94
7.61
9.19
9.79
9.57
8.72
7.43
5.84
4.14
2.47
0.94
-0.32
-1.31
-2.02
-2.53
-3.00
-3.61
-4.50
-5.72
-7.17
-8.62
-9.85
-10.68
-11.20
-11.72
-12.65
-14.35
-16.86
-19.92
-22.97
-25.39
-26.67
-26.56
-25.09
-22.43
-18.89
-14.77
-10.43
-6.17
-2.35
0.77
3.05
4.46
5.10
5.15
4.79
4.23
3.67
3.22
2.91
2.63
2.20
1.43
0.25
-1.30
-3.06
-4.78
-6.34
-7.64
-8.71
-9.58
-10.29
-10.92
-11.57
-12.38
-13.50
-15.07
-17.11
-19.50
-21.90
-23.80
-24.67
-24.11
-21.97
-18.48
-14.07
-9.31
-4.70
-0.60
2.78
5.30
6.88
7.46
7.10
6.00
4.49
2.99
1.86
1.27
1.16
1.24
1.11
0.44
-0.89
-2.73
-4.77
-6.66
-8.23
-9.59
-10.97
-12.66
-14.75
-17.18
-19.77
-22.38
-24.91
-27.20
-28.97
-29.76
-29.00
-26.33
-21.77
-15.81
-9.27
-2.97
2.45
6.71
9.83
11.98
13.31
13.97
13.95
13.32
12.21
10.87
9.56
8.54
7.86
7.40
6.93
6.14
4.82
2.90
0.46
-2.28
-5.07
-7.64
-9.82
-11.60
-13.18
-14.87
-17.00
-19.72
-22.91
-26.19
-29.02
-30.88
-31.40
-30.47
-28.16
-24.74
-20.62
-16.22
-12.00
-8.34
-5.54
-3.83
-3.35
-4.02
-5.57
-7.52
-9.24
-10.23
-10.23
-9.41
-8.28
-7.39
-7.15
-7.62
-8.60
-9.72
-10.81
-11.89
-13.17
-14.88
-17.17
-19.98
-23.14
-26.43
-29.65
-32.52
-34.64
-35.42
-34.20
-30.50
-24.28
-16.12
-7.06
1.64
8.92
14.13
17.07
17.92
17.00
14.72
11.58
8.22
5.40
3.78
3.75
5.22
7.66
10.34
12.50
13.57
13.30
11.68
8.92
5.37
1.33
-2.98
-7.62
-12.85
-18.95
-25.89
-33.09
-39.41
-43.51
-44.37
-41.81
-36.62
-30.35
-24.76
-21.30
-20.74
-23.08
-27.66
-33.17
-37.83
-39.62
-36.72
-28.17
-14.49
2.09
18.11
29.88
34.79
32.11
23.20
10.76
-2.15
-13.21
-21.27
-26.24
-28.72
-29.49
-29.37
-29.14
-29.57
-31.24
-34.34
-38.33
-42.06
-43.99
-42.76
-37.56
-28.42
-16.13
-2.00
12.53
26.09
37.63
46.43
52.28
55.40
56.41
56.11
55.16
53.91
52.39
50.41
47.83
44.70
41.36
38.24
35.71
33.93
32.73
31.67
30.17
27.64
23.61
17.90
10.67
2.43
-5.99
-13.54
-19.18
-22.04
-21.61
-17.88
-11.40
-3.13
5.70
13.88
20.43
24.84
27.02
27.31
26.35
24.92
23.87
23.81
25.05
27.28
29.78
31.50
31.53
29.48
25.67
21.11
17.00
14.35
13.49
13.95
14.61
14.14
11.41
5.97
-1.80
-10.72
-19.08
-25.01
-27.06
-24.56
-17.84
-8.13
2.79
13.04
21.13
26.30
28.48
28.25
26.52
24.26
22.30
21.18
21.11
21.92
23.17
24.24
24.51
23.57
21.36
18.20
14.66
11.37
8.77
7.01
5.81
4.66
2.94
0.20
-3.79
-8.81
-14.33
-19.60
-23.75
-26.06
-26.04
-23.62
-19.09
-13.05
-6.23
0.62
6.93
12.30
16.46
19.23
20.59
20.67
19.84
18.65
17.70
17.34
17.60
18.12
18.40
18.00
16.76
14.77
12.24
9.39
6.39
3.32
0.24
-2.82
-5.87
-9.03
-12.44
-16.11
-19.73
-22.71
-24.28
-23.77
-20.89
-15.81
-9.14
-1.69
5.68
12.22
17.36
20.75
22.31
22.20
20.83
18.84
16.89
15.61
15.38
16.33
18.26
20.70
23.08
24.86
25.70
25.60
24.78
23.63
22.44
21.33
20.27
19.16
17.92
16.57
15.21
13.92
12.76
11.72
10.80
9.92
9.03
8.06
6.93
5.51
3.74
1.61
-0.92
-3.80
-6.89
-9.99
-12.86
-15.27
-17.11
-18.45
-19.52
-20.64
-22.10
-24.12
-26.76
-29.95
-33.47
-37.02
-40.25
-42.96
-45.16
-47.09
-49.20
-51.83
-55.00
-58.31
-60.99
-62.21
-61.39
-58.35
-53.33
-46.78
-39.26
-31.25
-23.30
-15.98
-9.87
-5.35
-2.50
-0.96
-0.12
0.64
1.70
3.05
4.40
5.35
5.57
4.97
3.65
1.85
-0.21
-2.42
-4.81
-7.54
-10.83
-14.85
-19.64
-25.03
-30.68
-36.06
-40.45
-43.08
-43.21
-40.42
-34.75
-26.81
-17.66
-8.51
-0.43
5.89
10.20
12.64
13.52
13.26
12.28
10.96
9.61
8.42
7.42
6.56
5.68
4.59
3.06
0.92
-2.02
-5.81
-10.49
-16.00
-22.25
-29.07
-36.07
-42.57
-47.61
-50.19
-49.56
-45.53
-38.60
-29.73
-20.08
-10.63
-2.06
5.25
11.08
15.26
17.69
18.45
17.83
16.30
14.30
12.18
10.01
7.71
5.11
2.11
-1.29
-4.94
-8.71
-12.63
-16.87
-21.83
-27.91
-35.29
-43.72
-52.42
-60.21
-65.78
-68.06
-66.54
-61.37
-53.27
-43.27
-32.40
-21.56
-11.41
-2.42
5.05
10.75
14.57
16.57
17.06
16.52
15.51
14.54
13.99
13.97
14.38
14.90
15.09
14.47
12.62
9.28
4.42
-1.68
-8.47
-15.21
-21.06
-25.26
-27.14
-26.30
-22.56
-16.03
-7.10
3.57
15.12
26.65
37.21
46.07
52.71
56.93
58.88
58.95
57.70
55.75
53.67
51.91
50.74
50.17
49.96
49.61
48.46
45.93
41.67
35.71
28.43
20.33
11.84
3.18
-5.50
-13.89
-21.38
-27.04
-29.82
-28.92
-24.03
-15.42
-3.90
9.46
23.47
36.92
48.61
57.49
62.81
64.36
62.59
58.57
53.63
48.98
45.29
42.66
40.67
38.77
36.55
33.90
30.95
27.83
24.52
20.70
15.98
10.01
2.74
-5.48
-14.04
-22.21
-29.24
-34.52
-37.57
-38.00
-35.53
-30.11
-21.91
-11.39
0.72
13.53
26.10
37.53
47.02
54.09
58.52
60.47
60.44
59.08
57.12
55.17
53.66
52.74
52.35
52.19
51.81
50.74
48.58
45.19
40.73
35.57
30.11
24.53
18.67
12.24
5.13
-2.25
-8.88
-13.49
-15.17
-13.83
-10.21
-5.36
-0.02
5.80
12.50
20.23
28.23
34.74
37.68
35.56
28.33
17.45
5.25
-6.02
-14.93
-21.25
-25.57
-28.88
-31.96
-35.11
-38.26
-41.18
-43.82
-46.51
-49.89
-54.49
-60.38
-66.95
-73.30
-78.75
-83.18
-87.02
-90.66
-93.84
-95.58
-94.48
-89.29
-79.39
-64.66
-45.19
-21.19
6.70
36.84
66.22
90.87
107.00
112.38
107.27
94.24
77.02
59.13
42.96
29.32
18.04
8.56
0.58
-5.87
-10.51
-13.35
-14.79
-15.70
-17.15
-19.95
-24.45
-30.50
-37.65
-45.30
-52.90
-59.76
-65.06
-67.88
-67.39
-63.11
-55.14
-44.10
-30.95
-16.74
-2.47
10.93
22.54
31.58
37.52
40.35
40.57
39.17
37.18
35.41
34.22
33.50
32.91
32.09
30.81
29.01
26.69
23.89
20.54
16.59
12.03
6.90
1.32
-4.58
-10.76
-17.24
-24.03
-30.99
-37.68
-43.36
-47.11
-48.06
-45.72
-40.08
-31.64
-21.27
-9.84
1.88
13.31
23.95
33.33
40.96
46.45
49.65
50.75
50.23
48.71
46.74
44.68
42.66
40.69
38.73
36.75
34.72
32.54
30.10
27.26
23.97
20.26
16.26
12.05
7.64
2.95
-2.18
-7.90
-14.30
-21.36
-28.89
-36.41
-43.15
-48.05
-50.05
-48.36
-42.80
-33.88
-22.63
-10.32
1.96
13.45
23.73
32.58
39.83
45.32
48.90
50.70
51.05
50.57
49.97
49.76
50.13
50.88
51.62
51.91
51.53
50.44
48.79
46.66
43.98
40.54
36.15
30.85
24.92
18.85
13.06
7.71
2.64
-2.57
-8.40
-15.21
-22.99
-31.38
-39.63
-46.75
-51.73
-53.80
-52.62
-48.35
-41.54
-33.00
-23.59
-14.10
-5.19
2.60
8.96
13.76
17.14
19.43
21.01
22.28
23.43
24.53
25.49
26.19
26.48
26.34
25.81
24.99
24.01
22.91
21.60
19.90
17.59
14.59
10.99
7.07
3.20
-0.36
-3.50
-6.39
-9.37
-12.88
-17.21
-22.43
-28.24
-33.94
-38.60
-41.21
-41.04
-37.82
-31.87
-24.02
-15.36
-6.93
0.48
6.52
11.11
14.38
16.47
17.50
17.60
16.98
15.98
15.01
14.39
14.28
14.59
15.01
15.23
14.97
14.13
12.72
10.90
8.78
6.53
4.26
2.09
0.00
-2.16
-4.70
-8.04
-12.52
-18.31
-25.22
-32.64
-39.64
-45.05
-47.74
-46.90
-42.29
-34.30
-23.94
-12.56
-1.48
8.32
16.31
22.39
26.72
29.52
30.99
31.32
30.77
29.60
28.08
26.39
24.60
22.68
20.55
18.19
15.65
12.99
10.31
7.66
5.04
2.44
-0.19
-2.91
-5.84
-9.15
-13.04
-17.63
-22.92
-28.68
-34.39
-39.28
-42.51
-43.29
-41.19
-36.19
-28.76
-19.71
-10.01
-0.61
7.76
14.63
19.74
23.06
24.67
24.80
23.79
22.06
20.10
18.35
17.21
16.86
17.25
18.05
18.76
18.82
17.87
15.82
12.90
9.46
5.89
2.42
-0.91
-4.19
-7.57
-11.18
-15.24
-19.97
-25.53
-31.89
-38.61
-44.84
-49.48
-51.49
-50.28
-45.86
-38.85
-30.27
-21.19
-12.51
-4.80
1.68
6.90
10.92
13.84
15.83
17.08
17.88
18.55
19.35
20.43
21.72
22.94
23.73
23.76
22.88
21.14
18.82
16.26
13.74
11.34
8.94
6.27
3.08
-0.71
-4.98
-9.38
-13.55
-17.15
-19.92
-21.66
-22.08
-20.92
-17.94
-13.14
-6.90
0.05
6.73
12.21
15.83
17.32
16.74
14.27
10.09
4.30
-2.94
-11.30
-20.15
-28.74
-36.36
-42.61
-47.52
-51.46
-55.12
-59.19
-64.26
-70.67
-78.34
-86.76
-95.10
-102.46
-108.25
-112.48
-115.91
-119.83
-125.47
-133.45
-143.38
-153.87
-162.79
-167.85
-167.07
-159.13
-143.54
-120.81
-92.63
-61.85
-32.11
-6.76
12.38
25.67
35.29
43.61
51.52
57.68
59.42
54.90
45.03
34.02
27.84
31.71
47.80
74.60
108.14
144.17
179.66
213.15
243.82
270.45
290.98
303.13
305.52
298.60
284.84
268.06
252.12
239.55
230.63
223.22
213.52
197.58
172.82
138.90
97.67
52.34
6.53
-36.28
-72.92
-100.50
-116.70
-120.56
-113.20
-98.01
-79.71
-62.82
-49.96
-41.28
-35.06
-29.09
-21.93
-13.39
-4.19
4.75
12.64
18.85
22.57
22.79
18.62
9.84
-2.87
-17.94
-33.51
-48.06
-60.75
-71.28
-79.55
-85.36
-88.45
-88.67
-86.24
-81.70
-75.72
-68.91
-61.67
-54.37
-47.41
-41.30
-36.66
-34.00
-33.60
-35.41
-38.97
-43.38
-47.43
-49.92
-49.96
-47.26
-42.07
-34.92
-26.31
-16.56
-5.91
5.16
15.74
24.56
30.28
31.86
28.90
21.78
11.58
-0.12
-11.60
-21.43
-28.71
-33.16
-35.04
-34.79
-32.82
-29.42
-24.83
-19.49
-14.03
-9.21
-5.54
-3.24
-2.12
-1.83
-2.07
-2.67
-3.57
-4.68
-5.83
-6.85
-7.69
-8.39
-9.10
-9.93
-10.88
-11.80
-12.53
-12.99
-13.27
-13.64
-14.48
-16.20
-19.21
-23.78
-29.96
-37.31
-44.92
-51.45
-55.55
-56.23
-53.24
-47.12
-38.88
-29.68
-20.48
-11.97
-4.66
1.02
4.71
6.28
5.98
4.42
2.46
0.88
0.08
0.06
0.43
0.72
0.54
-0.28
-1.70
-3.54
-5.57
-7.54
-9.35
-11.03
-12.74
-14.78
-17.43
-20.88
-25.01
-29.38
-33.27
-35.90
-36.59
-35.01
-31.22
-25.65
-18.89
-11.61
-4.45
2.05
7.42
11.30
13.54
14.24
13.75
12.60
11.32
10.30
9.68
9.37
9.14
8.72
7.85
6.33
4.17
1.48
-1.47
-4.39
-7.05
-9.46
-11.82
-14.56
-18.05
-22.52
-27.80
-33.33
-38.20
-41.40
-42.12
-39.91
-34.91
-27.68
-19.04
-9.86
-0.84
7.46
14.63
20.31
24.23
26.27
26.58
25.67
24.22
22.93
22.25
22.19
22.35
22.16
21.05
18.79
15.52
11.68
7.76
4.11
0.72
-2.70
-6.65
-11.59
-17.75
-25.01
-32.89
-40.67
-47.51
-52.63
-55.48
-55.79
-53.65
-49.45
-43.80
-37.30
-30.34
-22.99
-15.13
-6.63
2.38
11.36
19.49
25.89
29.92
31.29
29.99
26.20
20.26
12.74
4.60
-2.81
-7.88
-9.11
-5.43
3.43
16.81
33.10
49.96
64.74
74.96
78.87
75.75
66.10
51.52
34.41
17.60
3.75
-5.06
-7.80
-4.78
2.30
10.70
17.27
19.28
15.19
5.04
-9.47
-25.34
-38.79
-46.08
-44.34
-32.39
-11.13
16.42
45.77
72.01
90.92
100.04
98.96
89.21
73.59
55.27
37.15
21.30
8.89
0.23
-5.14
-8.20
-10.34
-13.01
-17.44
-24.23
-33.05
-42.64
-51.14
-56.68
-57.96
-54.78
-47.95
-38.93
-29.14
-19.57
-10.58
-2.14
5.69
12.53
17.67
20.50
20.83
19.18
16.49
13.66
11.21
9.14
7.17
5.08
2.97
1.14
0.06
0.02
1.06
2.98
5.32
7.63
9.56
11.05
12.27
13.54
14.96
16.23
16.71
15.68
12.94
9.00
5.03
2.43
2.29
4.91
9.74
15.62
21.31
25.93
29.19
31.32
32.58
33.18
33.01
32.02
30.34
28.29
26.11
23.63
20.12
14.68
6.80
-3.06
-13.44
-22.44
-28.65
-31.74
-32.54
-32.36
-32.22
-32.39
-32.48
-31.88
-30.41
-28.57
-27.35
-27.73
-30.08
-33.98
-38.30
-41.71
-43.21
-42.38
-39.39
-34.62
-28.53
-21.45
-13.69
-5.68
2.03
8.76
13.92
17.15
18.47
18.28
17.27
16.27
15.86
16.12
16.56
16.31
14.60
11.18
6.52
1.57
-2.74
-5.90
-8.09
-9.86
-11.72
-13.83
-15.89
-17.34
-17.85
-17.45
-16.70
-16.38
-17.14
-19.25
-22.40
-25.83
-28.56
-29.69
-28.59
-25.04
-19.21
-11.51
-2.61
6.67
15.41
22.73
27.96
30.90
31.85
31.53
30.75
30.13
29.91
29.97
29.99
29.76
29.26
28.72
28.42
28.59
29.25
30.16
30.90
31.01
30.14
28.16
25.21
21.64
17.83
14.03
10.36
6.72
2.94
-1.15
-5.69
-10.63
-15.72
-20.50
-24.26
-26.27
-25.94
-23.02
-17.72
-10.69
-2.83
4.85
11.48
16.51
19.78
21.51
22.22
22.54
22.96
23.69
24.66
25.54
26.05
26.07
25.77
25.54
25.78
26.61
27.65
28.09
27.02
23.86
18.59
11.79
4.30
-3.13
-10.03
-16.05
-20.85
-24.10
-25.66
-25.91
-25.73
-26.15
-27.66
-29.70
-30.78
-29.19
-23.99
-15.56
-5.48
4.41
12.92
19.97
26.21
32.13
37.45
41.12
42.01
39.78
35.24
29.99
25.47
22.14
19.27
15.54
10.01
2.75
-5.12
-12.06
-17.00
-19.81
-21.30
-22.57
-24.48
-27.24
-30.50
-33.69
-36.46
-38.84
-41.12
-43.49
-45.81
-47.49
-47.72
-45.87
-41.77
-35.89
-29.12
-22.49
-16.80
-12.40
-9.12
-6.47
-3.89
-1.09
1.85
4.53
6.52
7.54
7.62
6.97
5.74
3.91
1.24
-2.40
-6.81
-11.39
-15.26
-17.69
-18.49
-18.10
-17.39
-17.31
-18.54
-21.23
-25.08
-29.50
-33.74
-37.08
-38.90
-38.75
-36.45
-32.07
-25.90
-18.33
-9.87
-1.08
7.38
14.77
20.41
23.88
25.19
24.83
23.57
22.19
21.22
20.79
20.69
20.55
20.04
18.98
17.37
15.35
13.09
10.76
8.49
6.28
4.00
1.41
-1.81
-5.94
-11.08
-17.02
-23.17
-28.78
-33.03
-35.31
-35.36
-33.32
-29.63
-24.86
-19.66
-14.53
-9.90
-6.05
-3.23
-1.61
-1.23
-1.94
-3.37
-4.99
-6.26
-6.88
-6.80
-6.30
-5.77
-5.58
-5.93
-6.86
-8.32
-10.23
-12.58
-15.31
-18.38
-21.73
-25.22
-28.67
-31.72
-33.91
-34.65
-33.50
-30.30
-25.30
-19.16
-12.67
-6.60
-1.46
2.51
5.28
6.89
7.50
7.34
6.68
5.84
5.07
4.51
4.15
3.87
3.50
2.92
2.10
1.02
-0.30
-1.91
-3.95
-6.62
-10.13
-14.59
-19.92
-25.80
-31.59
-36.48
-39.61
-40.36
-38.42
-33.96
-27.51
-19.76
-11.41
-2.97
5.21
12.90
19.89
25.93
30.76
34.18
36.19
36.89
36.49
35.19
33.16
30.50
27.37
23.95
20.49
17.19
14.11
11.11
7.86
3.97
-0.91
-6.88
-13.76
-21.06
-27.95
-33.46
-36.66
-36.84
-33.79
-27.77
-19.49
-9.84
0.27
10.08
19.02
26.68
32.75
37.09
39.73
40.88
40.94
40.30
39.25
37.92
36.31
34.35
32.00
29.35
26.58
23.95
21.66
19.73
17.89
15.56
11.88
6.10
-2.13
-12.40
-23.51
-33.72
-41.28
-45.04
-44.78
-41.19
-35.45
-28.67
-21.43
-13.77
-5.52
3.18
11.50
18.06
21.40
20.69
16.15
8.96
0.71
-7.26
-14.23
-20.05
-24.81
-28.59
-31.37
-33.27
-34.67
-36.01
-37.29
-37.75
-36.12
-31.37
-23.59
-14.27
-5.62
0.63
4.25
6.85
11.19
20.06
35.14
56.26
81.27
106.51
127.68
140.97
144.25
137.82
124.39
108.31
94.02
84.50
80.65
81.50
85.20
90.13
95.48
101.17
107.33
113.68
119.27
122.83
123.31
120.55
115.54
110.17
106.48
105.94
108.83
114.22
120.34
125.12
126.63
123.42
114.67
100.32
81.16
58.87
35.78
14.44
-3.02
-15.32
-22.38
-25.21
-25.70
-25.92
-27.69
-32.15
-39.53
-49.26
-60.24
-71.08
-80.52
-87.67
-92.28
-94.72
-95.84
-96.57
-97.57
-98.87
-99.92
-99.77
-97.56
-92.90
-86.06
-77.97
-69.98
-63.51
-59.57
-58.42
-59.33
-60.58
-59.93
-55.34
-45.76
-31.62
-14.88
1.70
15.36
24.19
27.43
25.42
19.14
9.93
-0.62
-10.77
-18.81
-23.48
-24.37
-22.12
-18.25
-14.53
-12.46
-12.80
-15.62
-20.38
-26.34
-32.66
-38.58
-43.54
-47.35
-50.24
-52.85
-55.87
-59.61
-63.75
-67.30
-68.92
-67.43
-62.22
-53.42
-41.73
-28.15
-13.60
1.16
15.55
28.99
40.75
50.12
56.50
59.71
60.09
58.35
55.38
51.90
48.32
44.70
40.97
37.05
33.02
28.99
25.08
21.26
17.47
13.64
9.84
6.30
3.25
0.71
-1.61
-4.26
-7.82
-12.67
-18.74
-25.67
-32.76
-39.32
-44.70
-48.39
-50.05
-49.51
-46.82
-42.21
-36.10
-28.98
-21.43
-13.95
-7.09
-1.35
2.87
5.34
6.06
5.30
3.59
1.52
-0.42
-2.01
-3.33
-4.77
-6.65
-9.07
-11.52
-12.96
-12.09
-7.79
0.46
12.32
26.77
42.38
57.64
71.19
81.95
88.99
91.65
89.54
82.67
71.50
56.89
39.99
22.16
4.89
-10.24
-21.78
-28.61
-30.29
-27.16
-20.32
-11.29
-1.64
7.33
14.75
20.18
23.45
24.62
23.94
21.78
18.64
15.07
11.56
8.49
6.04
4.24
2.90
1.80
0.66
-0.68
-2.27
-4.09
-6.05
-8.12
-10.32
-12.69
-15.25
-18.02
-20.92
-23.94
-27.07
-30.33
-33.75
-37.22
-40.48
-43.05
-44.38
-43.94
-41.43
-36.84
-30.55
-23.13
-15.22
-7.43
-0.18
6.17
11.33
15.06
17.25
17.94
17.40
16.06
14.39
12.78
11.42
10.33
9.37
8.36
7.12
5.54
3.63
1.48
-0.77
-3.00
-5.10
-7.11
-9.18
-11.52
-14.39
-17.97
-22.34
-27.33
-32.52
-37.16
-40.41
-41.45
-39.81
-35.49
-29.02
-21.30
-13.25
-5.62
1.11
6.74
11.18
14.36
16.20
16.68
15.91
14.18
11.92
9.61
7.66
6.32
5.66
5.54
5.68
5.69
5.24
4.03
1.98
-0.80
-4.06
-7.47
-10.77
-13.86
-16.88
-20.12
-23.95
-28.70
-34.41
-40.81
-47.23
-52.72
-56.26
-57.00
-54.61
-49.44
-42.43
-34.82
-27.78
-21.90
-17.11
-12.72
-7.95
-2.29
4.14
10.53
15.78
18.83
19.20
17.05
13.12
8.44
3.93
0.17
-2.84
-5.73
-9.66
-15.94
-25.50
-38.26
-52.79
-66.36
-75.71
-77.95
-71.53
-56.76
-35.73
-11.72
11.64
31.37
45.74
54.62
59.34
62.19
65.54
71.07
79.22
89.14
99.09
107.06
111.33
110.80
105.07
94.41
79.59
61.71
41.92
21.19
0.41
-19.53
-37.42
-51.80
-61.37
-65.41
-64.13
-58.63
-50.29
-40.33
-29.46
-18.10
-6.73
3.84
12.63
18.96
22.99
25.75
28.74
33.20
39.57
47.26
54.93
60.92
63.72
62.35
56.69
47.68
37.12
27.29
20.14
16.58
16.21
17.52
18.69
18.45
16.45
13.20
9.57
6.12
2.88
-0.43
-4.03
-7.68
-10.73
-12.40
-12.28
-10.53
-7.92
-5.48
-4.10
-4.28
-6.02
-9.01
-12.80
-17.00
-21.34
-25.60
-29.63
-33.37
-36.90
-40.43
-44.19
-48.19
-52.02
-54.88
-55.85
-54.20
-49.75
-42.97
-34.72
-26.02
-17.70
-10.26
-3.91
1.28
5.29
8.06
9.61
9.98
9.42
8.26
6.90
5.71
4.92
4.53
4.30
3.88
2.95
1.33
-0.91
-3.56
-6.36
-9.12
-11.72
-14.20
-16.67
-19.35
-22.54
-26.53
-31.44
-37.06
-42.83
-47.83
-51.12
-52.00
-50.18
-45.84
-39.52
-31.82
-23.27
-14.26
-5.06
4.07
12.73
20.37
26.37
30.21
31.68
30.99
28.82
26.06
23.55
21.74
20.61
19.70
18.44
16.44
13.66
10.33
6.86
3.51
0.33
-2.80
-6.05
-9.53
-13.23
-17.16
-21.34
-25.87
-30.81
-35.96
-40.83
-44.60
-46.36
-45.42
-41.59
-35.19
-27.02
-18.04
-9.13
-0.90
6.32
12.46
17.52
21.57
24.61
26.66
27.77
28.03
27.64
26.85
25.93
25.10
24.43
23.80
22.95
21.55
19.41
16.49
12.96
9.10
5.18
1.34
-2.37
-6.01
-9.70
-13.55
-17.72
-22.34
-27.43
-32.72
-37.68
-41.43
-43.11
-42.08
-38.22
-31.97
-24.14
-15.62
-7.18
0.68
7.63
13.45
17.94
20.94
22.41
22.53
21.67
20.29
18.84
17.61
16.72
16.06
15.42
14.57
13.35
11.74
9.85
7.87
5.92
4.02
2.03
-0.26
-3.05
-6.49
-10.69
-15.66
-21.30
-27.24
-32.89
-37.34
-39.64
-39.08
-35.45
-29.15
-21.01
-12.04
-3.10
5.15
12.24
17.79
21.47
23.09
22.70
20.73
17.85
14.84
12.27
10.40
9.15
8.20
7.18
5.81
3.95
1.68
-0.80
-3.26
-5.60
-7.87
-10.31
-13.26
-17.00
-21.62
-26.92
-32.39
-37.25
-40.66
-41.88
-40.46
-36.34
-29.89
-21.74
-12.62
-3.21
5.96
14.49
22.00
28.07
32.36
34.66
35.10
34.16
32.48
30.69
29.11
27.71
26.14
24.03
21.20
17.77
14.06
10.45
7.14
4.08
1.04
-2.27
-6.12
-10.67
-16.04
-22.19
-28.88
-35.51
-41.21
-44.93
-45.82
-43.44
-37.98
-30.11
-20.74
-10.71
-0.61
9.20
18.42
26.64
33.38
38.18
40.85
41.53
40.72
39.07
37.20
35.48
34.00
32.55
30.82
28.51
25.49
21.90
18.04
14.28
10.85
7.79
4.82
1.53
-2.49
-7.48
-13.48
-20.27
-27.40
-34.21
-39.87
-43.45
-44.17
-41.61
-35.86
-27.57
-17.68
-7.20
3.08
12.67
21.29
28.79
34.98
39.65
42.56
43.66
43.11
41.30
38.78
36.07
33.52
31.26
29.22
27.20
24.98
22.44
19.55
16.37
12.94
9.34
5.57
1.64
-2.46
-6.72
-11.15
-15.72
-20.45
-25.32
-30.18
-34.64
-38.11
-39.84
-39.19
-35.83
-29.96
-22.18
-13.34
-4.25
4.42
12.22
18.88
24.17
27.95
30.17
30.96
30.63
29.62
28.35
27.15
26.17
25.42
24.81
24.11
23.15
21.75
19.84
17.44
14.68
11.69
8.59
5.44
2.22
-1.14
-4.72
-8.62
-12.97
-17.87
-23.32
-29.12
-34.72
-39.31
-41.97
-41.94
-38.89
-33.10
-25.33
-16.59
-7.83
0.27
7.28
12.96
17.11
19.56
20.24
19.34
17.34
14.95
12.85
11.48
10.92
10.82
10.68
10.05
8.71
6.79
4.57
2.43
0.56
-1.05
-2.61
-4.41
-6.71
-9.71
-13.44
-17.86
-22.79
-27.88
-32.60
-36.24
-38.01
-37.29
-33.84
-27.88
-20.08
-11.38
-2.64
5.44
12.42
18.08
22.32
25.05
26.28
26.13
24.96
23.26
21.55
20.19
19.28
18.61
17.78
16.44
14.41
11.74
8.73
5.65
2.71
-0.10
-2.92
-5.98
-9.42
-13.38
-17.89
-22.94
-28.47
-34.14
-39.37
-43.31
-45.10
-44.07
-40.08
-33.54
-25.20
-15.98
-6.62
2.39
10.78
18.34
24.80
29.88
33.30
35.03
35.21
34.25
32.57
30.52
28.31
26.01
23.54
20.82
17.83
14.58
11.17
7.74
4.44
1.36
-1.42
-3.99
-6.52
-9.25
-12.47
-16.40
-21.14
-26.50
-32.03
-36.98
-40.49
-41.72
-40.18
-35.79
-28.93
-20.30
-10.72
-0.99
8.28
16.61
23.67
29.22
33.13
35.44
36.30
35.99
34.82
33.11
31.11
29.02
26.96
24.97
23.05
21.08
18.97
16.61
13.95
11.00
7.82
4.45
0.89
-2.87
-6.89
-11.20
-15.92
-21.12
-26.84
-32.93
-39.01
-44.44
-48.37
-49.98
-48.73
-44.48
-37.57
-28.73
-18.85
-8.75
0.88
9.51
16.74
22.26
25.84
27.41
27.22
25.76
23.71
21.77
20.36
19.53
19.00
18.31
17.05
14.98
12.16
8.81
5.20
1.57
-1.93
-5.24
-8.39
-11.46
-14.60
-18.04
-21.99
-26.51
-31.38
-36.09
-39.83
-41.69
-40.97
-37.39
-31.20
-23.14
-14.13
-5.08
3.38
10.84
17.11
22.00
25.35
27.07
27.24
26.23
24.58
22.86
21.48
20.55
19.86
19.04
17.69
15.62
12.85
9.67
6.39
3.29
0.46
-2.25
-5.16
-8.63
-12.95
-18.23
-24.37
-31.06
-37.84
-44.00
-48.73
-51.21
-50.76
-47.16
-40.65
-31.97
-22.08
-11.98
-2.47
5.93
12.94
18.44
22.36
24.71
25.57
25.18
23.95
22.39
20.95
19.90
19.23
18.72
18.01
16.82
15.05
12.86
10.46
8.08
5.79
3.50
0.99
-2.00
-5.68
-10.19
-15.53
-21.52
-27.75
-33.51
-37.89
-39.98
-39.11
-35.14
-28.50
-20.03
-10.80
-1.71
6.60
13.74
19.46
23.57
25.89
26.39
25.32
23.24
20.85
18.79
17.34
16.41
15.55
14.26
12.26
9.61
6.67
3.85
1.44
-0.56
-2.43
-4.56
-7.28
-10.80
-15.11
-20.04
-25.17
-29.89
-33.42
-35.01
-34.08
-30.50
-24.60
-17.05
-8.68
-0.24
7.69
14.64
20.20
23.96
25.66
25.38
23.55
20.88
18.13
15.85
14.17
12.90
11.69
10.24
8.42
6.33
4.15
2.01
-0.10
-2.31
-4.84
-7.96
-11.81
-16.41
-21.52
-26.65
-31.15
-34.28
-35.45
-34.31
-30.82
-25.22
-17.93
-9.51
-0.59
8.20
16.16
22.68
27.25
29.66
30.00
28.67
26.26
23.39
20.56
18.08
16.05
14.41
12.98
11.57
10.04
8.29
6.34
4.22
1.95
-0.49
-3.20
-6.36
-10.14
-14.66
-19.87
-25.47
-30.82
-35.08
-37.36
-36.91
-33.42
-27.11
-18.65
-9.00
0.79
9.77
17.25
22.80
26.19
27.51
27.03
25.25
22.81
20.30
18.20
16.65
15.54
14.46
13.04
10.96
8.15
4.79
1.16
-2.47
-6.06
-9.69
-13.67
-18.26
-23.60
-29.52
-35.48
-40.72
-44.30
-45.44
-43.61
-38.76
-31.25
-21.83
-11.45
-1.12
8.27
16.03
21.73
25.23
26.69
26.52
25.33
23.72
22.23
21.07
20.22
19.41
18.27
16.53
14.09
11.03
7.62
4.13
0.82
-2.27
-5.37
-8.90
-13.37
-19.11
-26.01
-33.40
-40.13
-44.84
-46.42
-44.31
-38.76
-30.57
-20.88
-10.76
-1.02
7.83
15.44
21.54
25.94
28.58
29.65
29.60
28.98
28.20
27.44
26.51
25.11
22.91
19.81
15.91
11.52
6.98
2.57
-1.56
-5.49
-9.53
-14.13
-19.64
-26.19
-33.43
-40.51
-46.24
-49.44
-49.30
-45.62
-38.82
-29.76
-19.40
-8.57
2.11
12.19
21.22
28.79
34.44
37.88
39.15
38.62
36.91
34.75
32.63
30.75
28.97
27.01
24.58
21.65
18.34
14.91
11.56
8.33
5.02
1.32
-3.11
-8.53
-15.01
-22.35
-30.05
-37.30
-43.10
-46.44
-46.60
-43.30
-36.82
-27.89
-17.36
-6.08
5.27
16.08
25.75
33.62
39.13
41.95
42.23
40.54
37.80
34.88
32.39
30.52
29.13
27.88
26.44
24.62
22.36
19.71
16.77
13.63
10.33
6.86
3.11
-1.08
-5.93
-11.54
-17.82
-24.26
-29.97
-33.89
-35.13
-33.22
-28.29
-21.01
-12.31
-3.16
5.64
13.41
19.68
24.10
26.50
27.01
25.99
24.06
21.82
19.80
18.24
17.08
16.09
14.91
13.23
10.85
7.83
4.35
0.67
-2.95
-6.41
-9.75
-13.16
-16.95
-21.36
-26.42
-31.87
-37.01
-40.90
-42.60
-41.49
-37.42
-30.78
-22.34
-12.99
-3.56
5.26
12.87
18.76
22.56
24.13
23.75
21.99
19.60
17.25
15.31
13.81
12.50
11.08
9.32
7.17
4.74
2.17
-0.40
-3.03
-5.85
-9.11
-13.09
-18.07
-24.17
-31.22
-38.70
-45.73
-51.23
-54.15
-53.78
-49.91
-42.82
-33.20
-21.98
-10.16
1.30
11.55
19.94
26.05
29.81
31.50
31.59
30.74
29.49
28.20
26.95
25.56
23.75
21.29
18.20
14.70
11.16
7.91
4.97
2.11
-1.15
-5.32
-10.70
-17.25
-24.60
-32.00
-38.54
-43.24
-45.24
-44.04
-39.54
-32.13
-22.57
-11.82
-0.75
9.87
19.43
27.47
33.57
37.45
39.04
38.59
36.65
33.94
31.13
28.63
26.47
24.40
22.02
19.06
15.49
11.56
7.66
4.09
0.95
-1.98
-5.08
-8.83
-13.55
-19.30
-25.86
-32.64
-38.79
-43.31
-45.22
-43.89
-39.13
-31.31
-21.28
-10.08
1.33
12.20
22.01
30.42
37.12
41.87
44.52
45.19
44.23
42.24
39.81
37.44
35.34
33.44
31.50
29.24
26.47
23.13
19.34
15.25
10.98
6.54
1.84
-3.28
-8.96
-15.24
-22.03
-29.02
-35.73
-41.39
-45.10
-46.00
-43.51
-37.61
-28.85
-18.20
-6.79
4.38
14.57
23.25
29.99
34.48
36.62
36.60
35.08
32.87
30.73
29.08
27.92
26.89
25.54
23.55
20.82
17.47
13.70
9.83
6.04
2.44
-1.06
-4.69
-8.82
-13.77
-19.61
-26.00
-32.18
-37.03
-39.41
-38.51
-34.07
-26.51
-16.75
-5.92
4.90
14.89
23.51
30.37
35.21
37.86
38.41
37.25
35.07
32.58
30.40
28.75
27.52
26.37
24.88
22.80
20.03
16.70
13.05
9.31
5.63
2.00
-1.82
-6.23
-11.64
-18.33
-26.13
-34.42
-42.12
-47.95
-50.76
-49.87
-45.25
-37.50
-27.59
-16.61
-5.41
5.39
15.37
24.25
31.66
37.28
40.85
42.33
42.01
40.41
38.17
35.89
33.92
32.28
30.75
28.97
26.63
23.64
20.16
16.46
12.78
9.17
5.44
1.31
-3.55
-9.33
-16.04
-23.48
-31.24
-38.65
-44.79
-48.61
-49.17
-46.00
-39.25
-29.70
-18.53
-6.95
4.15
14.17
22.78
29.80
35.03
38.30
39.60
39.12
37.28
34.67
31.84
29.17
26.81
24.67
22.56
20.32
17.90
15.39
12.90
10.48
8.03
5.29
2.05
-1.77
-6.10
-10.79
-15.71
-20.91
-26.49
-32.42
-38.32
-43.39
-46.56
-46.79
-43.49
-36.74
-27.29
-16.28
-4.92
5.78
15.10
22.56
27.84
30.66
31.02
29.19
25.85
21.91
18.30
15.64
14.04
13.16
12.45
11.37
9.69
7.43
4.84
2.22
-0.25
-2.49
-4.57
-6.59
-8.68
-10.96
-13.59
-16.78
-20.75
-25.60
-31.16
-36.85
-41.66
-44.37
-43.96
-39.89
-32.44
-22.58
-11.64
-0.96
8.54
16.35
22.32
26.48
28.90
29.69
29.09
27.55
25.65
23.93
22.72
22.00
21.42
20.52
18.92
16.44
13.20
9.48
5.60
1.81
-1.80
-5.32
-8.94
-12.84
-17.19
-22.04
-27.32
-32.81
-38.11
-42.58
-45.47
-45.98
-43.53
-38.04
-29.88
-19.96
-9.32
1.00
10.25
17.95
23.89
27.98
30.21
30.75
29.91
28.23
26.29
24.59
23.31
22.31
21.16
19.36
16.62
12.94
8.65
4.25
0.15
-3.47
-6.73
-9.89
-13.28
-17.14
-21.67
-26.96
-32.96
-39.42
-45.73
-50.96
-54.07
-54.19
-50.96
-44.64
-36.07
-26.27
-16.22
-6.59
2.29
10.26
17.17
22.83
27.04
29.68
30.81
30.68
29.70
28.21
26.51
24.75
22.99
21.23
19.44
17.55
15.45
13.13
10.58
7.86
5.05
2.18
-0.86
-4.27
-8.27
-13.07
-18.74
-25.18
-32.03
-38.66
-44.21
-47.76
-48.52
-46.15
-40.75
-32.97
-23.71
-13.87
-4.21
4.73
12.60
19.12
24.04
27.24
28.71
28.67
27.48
25.60
23.45
21.36
19.50
17.91
16.48
15.12
13.68
12.09
10.31
8.34
6.16
3.74
1.01
-2.04
-5.39
-8.93
-12.60
-16.45
-20.64
-25.33
-30.55
-35.99
-40.93
-44.39
-45.38
-43.25
-37.91
-29.90
-20.22
-10.00
-0.20
8.51
15.80
21.55
25.62
27.95
28.52
27.55
25.48
22.93
20.47
18.48
17.03
15.91
14.81
13.45
11.69
9.46
6.77
3.64
0.15
-3.52
-7.16
-10.52
-13.51
-16.22
-18.98
-22.21
-26.20
-30.90
-35.76
-39.82
-41.94
-41.16
-37.02
-29.76
-20.23
-9.68
0.68
9.85
17.27
22.75
26.32
28.15
28.44
27.48
25.66
23.47
21.40
19.79
18.68
17.81
16.71
14.98
12.39
9.04
5.25
1.40
-2.28
-5.75
-9.11
-12.57
-16.31
-20.51
-25.29
-30.78
-36.88
-43.20
-48.97
-53.15
-54.73
-53.10
-48.23
-40.68
-31.35
-21.21
-11.06
-1.40
7.38
15.00
21.17
25.69
28.49
29.76
29.92
29.47
28.88
28.43
28.20
28.05
27.71
26.86
25.27
22.83
19.62
15.84
11.75
7.57
3.44
-0.67
-4.87
-9.28
-14.06
-19.29
-25.00
-31.06
-37.12
-42.56
-46.50
-48.08
-46.68
-42.14
-34.87
-25.73
-15.67
-5.53
4.08
12.81
20.35
26.37
30.52
32.60
32.76
31.45
29.41
27.34
25.72
24.70
24.15
23.79
23.35
22.55
21.27
19.42
17.02
14.17
11.00
7.66
4.24
0.71
-3.06
-7.31
-12.25
-18.01
-24.43
-31.04
-37.04
-41.39
-43.12
-41.62
-36.81
-29.19
-19.70
-9.38
0.81
10.16
18.23
24.70
29.42
32.29
33.37
32.90
31.33
29.17
26.93
24.94
23.23
21.63
19.85
17.65
14.97
11.94
8.79
5.74
2.91
0.29
-2.24
-4.84
-7.69
-10.94
-14.76
-19.25
-24.33
-29.66
-34.54
-38.07
-39.32
-37.58
-32.65
-24.88
-15.16
-4.64
5.56
14.54
21.76
27.00
30.27
31.67
31.42
29.75
27.10
23.98
20.92
18.33
16.37
14.92
13.68
12.28
10.43
8.09
5.37
2.50
-0.28
-2.89
-5.40
-8.04
-11.09
-14.78
-19.22
-24.36
-29.95
-35.48
-40.27
-43.43
-44.11
-41.76
-36.31
-28.25
-18.48
-8.06
2.08
11.31
19.25
25.71
30.55
33.69
35.19
35.28
34.37
32.93
31.37
29.96
28.73
27.57
26.29
24.67
22.51
19.72
16.29
12.35
8.10
3.73
-0.66
-5.05
-9.49
-14.09
-18.88
-23.87
-29.04
-34.38
-39.78
-44.92
-49.23
-51.88
-51.99
-48.97
-42.70
-33.68
-22.89
-11.42
-0.22
10.10
19.20
26.91
33.02
37.33
39.68
40.18
39.19
37.25
34.93
32.68
30.67
28.96
27.46
26.14
24.95
23.80
22.53
20.89
18.66
15.71
12.12
8.11
3.96
-0.07
-3.87
-7.49
-11.16
-15.24
-20.06
-25.79
-32.23
-38.74
-44.26
-47.52
-47.52
-43.85
-36.87
-27.66
-17.60
-7.98
0.36
7.17
12.60
16.95
20.46
23.19
25.11
26.22
26.65
26.65
26.50
26.35
26.21
25.90
25.19
23.95
22.10
19.72
16.95
13.87
10.55
7.00
3.25
-0.60
-4.39
-7.97
-11.26
-14.35
-17.48
-20.93
-24.91
-29.39
-34.03
-38.17
-41.06
-41.96
-40.43
-36.43
-30.37
-22.91
-14.88
-6.96
0.35
6.72
11.97
15.95
18.48
19.52
19.15
17.73
15.81
14.02
12.82
12.39
12.57
12.96
13.16
12.90
12.09
10.78
9.05
6.95
4.48
1.68
-1.32
-4.33
-7.20
-9.91
-12.67
-15.83
-19.72
-24.39
-29.49
-34.28
-37.77
-39.07
-37.60
-33.29
-26.54
-18.15
-9.01
0.00
8.18
15.02
20.16
23.42
24.83
24.59
23.13
21.03
18.87
17.06
15.84
15.15
14.81
14.59
14.28
13.71
12.75
11.27
9.21
6.57
3.52
0.30
-2.78
-5.57
-8.13
-10.69
-13.61
-17.17
-21.53
-26.57
-31.98
-37.29
-41.79
-44.75
-45.44
-43.39
-38.57
-31.39
-22.68
-13.41
-4.43
3.69
10.65
16.35
20.77
23.88
25.72
26.42
26.29
25.65
24.82
23.92
22.93
21.78
20.40
18.82
17.13
15.34
13.40
11.13
8.41
5.20
1.66
-1.91
-5.23
-8.11
-10.63
-13.04
-15.76
-19.12
-23.27
-28.08
-33.07
-37.49
-40.48
-41.26
-39.33
-34.67
-27.70
-19.21
-10.07
-1.09
7.14
14.32
20.28
24.95
28.25
30.11
30.55
29.76
28.17
26.26
24.43
22.87
21.55
20.32
19.07
17.80
16.56
15.37
14.14
12.62
10.62
8.04
5.01
1.77
-1.45
-4.57
-7.65
-10.91
-14.58
-18.84
-23.73
-29.09
-34.49
-39.21
-42.41
-43.24
-41.16
-36.14
-28.67
-19.69
-10.30
-1.47
6.15
12.22
16.68
19.61
21.18
21.59
21.11
20.10
18.87
17.72
16.79
16.07
15.46
14.79
13.91
12.71
11.12
9.14
6.90
4.53
2.18
-0.10
-2.38
-4.81
-7.52
-10.61
-14.12
-18.06
-22.37
-26.87
-31.15
-34.58
-36.38
-35.89
-32.78
-27.24
-19.94
-11.80
-3.75
3.52
9.59
14.36
17.86
20.18
21.45
21.79
21.40
20.53
19.44
18.33
17.28
16.27
15.22
14.01
12.59
10.89
8.86
6.46
3.68
0.60
-2.66
-5.96
-9.24
-12.57
-16.08
-19.95
-24.32
-29.16
-34.21
-39.00
-42.91
-45.20
-45.22
-42.51
-37.04
-29.20
-19.83
-9.93
-0.43
7.99
14.95
20.33
24.13
26.37
27.14
26.60
25.07
23.01
20.92
19.13
17.68
16.40
14.98
13.20
10.98
8.44
5.75
2.99
0.12
-3.10
-6.90
-11.41
-16.56
-22.14
-27.90
-33.69
-39.51
-45.42
-51.45
-57.47
-63.13
-68.01
-71.71
-73.88
-74.26
-72.54
-68.38
-61.49
-51.85
-39.95
-26.70
-13.30
-0.84
9.99
18.93
26.08
31.70
35.98
39.11
41.26
42.69
43.68
44.45
45.01
45.22
44.89
43.91
42.38
40.47
38.41
36.33
34.18
31.85
29.18
26.05
22.40
18.21
13.61
8.82
4.34
0.88
-0.79
-0.01
3.45
9.24
16.52
24.12
30.84
35.66
37.75
36.51
31.60
23.02
11.39
-1.88
-14.83
-25.35
-31.90
-33.94
-32.02
-27.40
-21.41
-14.99
-8.51
-2.02
4.37
10.34
15.40
19.23
21.88
23.90
26.02
28.77
32.15
35.52
37.78
37.78
34.75
28.70
20.50
11.73
4.22
-0.47
-1.57
0.72
5.35
10.79
15.51
18.36
18.70
16.44
11.89
5.85
-0.60
-6.19
-9.75
-10.59
-8.71
-4.82
-0.09
4.29
7.41
8.74
8.13
5.62
1.43
-4.01
-9.99
-15.59
-19.91
-22.45
-23.30
-23.22
-23.37
-24.91
-28.57
-34.43
-41.94
-50.10
-57.73
-63.60
-66.63
-65.97
-61.15
-52.22
-39.77
-24.96
-9.22
6.02
19.67
31.10
40.12
46.82
51.42
54.12
55.18
54.93
53.71
51.78
49.15
45.57
40.60
34.05
26.10
17.56
9.63
3.54
0.02
-0.86
0.24
2.23
3.90
4.17
2.36
-1.74
-7.74
-14.73
-21.42
-26.43
-28.72
-27.82
-23.97
-17.93
-10.66
-3.03
4.32
10.96
16.53
20.74
23.35
24.34
23.91
22.53
20.76
19.07
17.71
16.69
15.87
15.09
14.25
13.33
12.29
11.00
9.23
6.80
3.61
-0.17
-4.23
-8.22
-11.94
-15.44
-18.93
-22.71
-26.98
-31.75
-36.86
-41.90
-46.24
-49.12
-49.74
-47.52
-42.31
-34.46
-24.77
-14.23
-3.74
6.04
14.69
21.92
27.52
31.32
33.33
33.80
33.16
31.94
30.61
29.41
28.39
27.45
26.49
25.47
24.42
23.34
22.17
20.76
18.84
16.19
12.73
8.57
3.99
-0.59
-4.87
-8.68
-12.07
-15.27
-18.60
-22.45
-27.09
-32.56
-38.60
-44.51
-49.32
-51.97
-51.61
-47.84
-40.93
-31.66
-21.11
-10.37
-0.33
8.41
15.44
20.57
23.77
25.21
25.30
24.55
23.52
22.63
22.08
21.89
21.91
21.97
21.86
21.43
20.56
19.13
17.16
14.71
11.95
9.05
6.14
3.26
0.41
-2.49
-5.51
-8.77
-12.38
-16.46
-21.13
-26.27
-31.53
-36.22
-39.50
-40.55
-38.81
-34.20
-27.13
-18.40
-8.95
0.34
8.74
15.81
21.28
25.08
27.30
28.17
28.02
27.20
26.08
24.96
24.02
23.37
22.95
22.64
22.20
21.41
20.03
17.93
15.09
11.64
7.82
3.89
0.04
-3.63
-7.16
-10.67
-14.30
-18.22
-22.59
-27.50
-33.00
-38.90
-44.69
-49.49
-52.28
-52.16
-48.67
-42.00
-32.88
-22.40
-11.66
-1.51
7.47
14.98
20.87
25.07
27.60
28.58
28.32
27.25
25.87
24.58
23.57
22.81
22.15
21.38
20.48
19.48
18.49
17.51
16.38
14.88
12.83
10.20
7.16
3.98
0.82
-2.29
-5.50
-9.06
-13.18
-17.97
-23.45
-29.45
-35.63
-41.45
-46.13
-48.79
-48.65
-45.31
-38.93
-30.24
-20.31
-10.23
-0.81
7.55
14.79
20.95
26.00
29.79
32.16
33.11
32.87
31.88
30.65
29.51
28.54
27.70
26.83
25.87
24.83
23.70
22.45
20.97
19.10
16.72
13.80
10.42
6.74
2.96
-0.74
-4.24
-7.55
-10.76
-14.09
-17.84
-22.23
-27.38
-33.10
-38.83
-43.63
-46.43
-46.27
-42.70
-35.94
-26.86
-16.72
-6.74
2.18
9.60
15.41
19.70
22.63
24.34
25.05
25.02
24.58
24.00
23.47
23.03
22.63
22.20
21.65
20.94
20.00
18.85
17.41
15.68
13.64
11.31
8.73
5.94
3.02
0.08
-2.83
-5.74
-8.84
-12.38
-16.65
-21.81
-27.71
-33.85
-39.36
-43.22
-44.51
-42.67
-37.71
-30.25
-21.28
-11.92
-3.14
4.38
10.31
14.59
17.29
18.58
18.71
17.96
16.73
15.38
14.22
13.40
12.94
12.68
12.37
11.73
10.58
8.81
6.50
3.75
0.79
-2.26
-5.29
-8.28
-11.27
-14.34
-17.61
-21.27
-25.42
-29.96
-34.47
-38.24
-40.31
-39.91
-36.61
-30.59
-22.50
-13.29
-3.96
4.70
12.17
18.12
22.44
25.14
26.33
26.26
25.29
23.84
22.29
20.95
19.93
19.13
18.26
16.94
14.90
12.11
8.75
5.16
1.69
-1.47
-4.32
-7.03
-9.85
-13.08
-16.96
-21.67
-27.23
-33.40
-39.61
-44.97
-48.49
-49.35
-47.13
-41.97
-34.53
-25.72
-16.46
-7.47
0.82
8.23
14.65
19.98
24.11
26.97
28.56
29.03
28.63
27.66
26.41
25.06
23.70
22.33
20.87
19.17
17.08
14.50
11.40
7.87
4.05
0.06
-4.03
-8.24
-12.64
-17.32
-22.30
-27.58
-33.06
-38.47
-43.37
-47.09
-48.84
-47.95
-44.06
-37.32
-28.39
-18.23
-7.85
1.96
10.69
18.12
24.15
28.75
31.88
33.56
33.96
33.37
32.18
30.78
29.47
28.33
27.28
26.16
24.78
23.01
20.76
18.03
14.85
11.28
7.43
3.42
-0.65
-4.66
-8.55
-12.31
-16.05
-19.99
-24.44
-29.58
-35.24
-40.84
-45.34
-47.51
-46.43
-41.78
-34.00
-24.12
-13.41
-2.98
6.48
14.59
21.25
26.42
30.13
32.48
33.68
34.02
33.75
33.09
32.09
30.84
29.42
27.93
26.47
25.01
23.41
21.46
19.02
16.07
12.70
9.11
5.46
1.86
-1.64
-5.03
-8.40
-11.92
-15.86
-20.51
-25.94
-31.94
-37.84
-42.65
-45.31
-44.97
-41.35
-34.75
-25.97
-16.12
-6.25
2.77
10.38
16.29
20.43
22.89
23.91
23.86
23.16
22.24
21.39
20.77
20.34
20.02
19.61
18.96
17.88
16.32
14.28
11.81
9.03
6.04
2.92
-0.29
-3.51
-6.71
-9.88
-13.15
-16.81
-21.19
-26.36
-32.00
-37.31
-41.12
-42.32
-40.27
-34.97
-27.10
-17.73
-7.95
1.34
9.58
16.49
21.93
25.76
27.94
28.54
27.86
26.33
24.51
22.85
21.60
20.71
20.06
19.42
18.60
17.47
15.90
13.77
10.98
7.60
3.78
-0.24
-4.24
-8.11
-11.86
-15.66
-19.70
-24.18
-29.21
-34.77
-40.58
-46.02
-50.28
-52.40
-51.60
-47.55
-40.44
-30.97
-20.11
-8.84
2.04
11.97
20.60
27.66
32.99
36.52
38.35
38.75
38.15
37.06
35.91
34.91
34.08
33.24
32.21
30.84
29.08
26.94
24.45
21.55
18.21
14.41
10.21
5.81
1.41
-2.81
-6.78
-10.57
-14.41
-18.56
-23.30
-28.79
-34.90
-41.14
-46.64
-50.35
-51.29
-48.93
-43.31
-35.07
-25.19
-14.67
-4.37
5.16
13.60
20.78
26.56
30.89
33.81
35.42
35.97
35.74
35.03
34.09
33.13
32.26
31.51
30.87
30.22
29.37
28.05
26.04
23.18
19.47
15.12
10.43
5.75
1.33
-2.68
-6.27
-9.54
-12.67
-15.91
-19.56
-23.84
-28.79
-34.14
-39.19
-42.98
-44.54
-43.17
-38.70
-31.57
-22.63
-12.94
-3.41
5.23
12.59
18.46
22.83
25.81
27.59
28.43
28.59
28.27
27.62
26.69
25.49
24.01
22.24
20.20
17.95
15.54
13.08
10.65
8.26
5.83
3.25
0.41
-2.66
-5.85
-8.98
-11.94
-14.75
-17.61
-20.80
-24.55
-28.82
-33.28
-37.25
-39.84
-40.24
-37.88
-32.66
-25.07
-16.02
-6.58
2.24
9.81
15.82
20.25
23.18
24.70
24.92
24.08
22.55
20.82
19.28
18.18
17.43
16.78
15.97
14.75
13.03
10.83
8.21
5.24
2.01
-1.34
-4.65
-7.79
-10.77
-13.65
-16.65
-20.04
-24.07
-28.84
-34.16
-39.49
-43.95
-46.54
-46.41
-43.15
-36.94
-28.49
-18.80
-8.86
0.52
8.84
15.77
21.15
24.88
27.00
27.66
27.25
26.20
24.92
23.69
22.60
21.58
20.52
19.34
18.01
16.51
14.82
12.88
10.61
8.00
5.06
1.88
-1.44
-4.81
-8.23
-11.76
-15.59
-19.93
-25.00
-30.87
-37.21
-43.32
-48.21
-50.83
-50.45
-46.84
-40.35
-31.72
-21.83
-11.52
-1.49
7.72
15.70
22.10
26.75
29.65
31.01
31.18
30.61
29.72
28.75
27.83
26.95
26.01
24.92
23.66
22.22
20.59
18.72
16.52
13.92
10.85
7.38
3.59
-0.35
-4.29
-8.19
-12.11
-16.31
-21.06
-26.54
-32.60
-38.62
-43.62
-46.49
-46.34
-42.88
-36.44
-27.87
-18.22
-8.42
0.82
9.07
16.08
21.66
25.69
28.17
29.27
29.31
28.72
27.85
26.94
26.11
25.35
24.67
24.03
23.33
22.40
20.98
18.90
16.09
12.67
8.92
5.11
1.45
-2.04
-5.49
-9.07
-12.96
-17.30
-22.14
-27.48
-33.10
-38.51
-42.96
-45.52
-45.37
-42.09
-35.88
-27.48
-17.97
-8.42
0.36
7.93
14.10
18.80
22.02
23.73
24.00
23.08
21.36
19.36
17.54
16.22
15.48
15.15
14.90
14.34
13.17
11.26
8.66
5.57
2.27
-1.00
-4.09
-6.95
-9.67
-12.45
-15.58
-19.35
-23.87
-28.94
-33.97
-38.07
-40.25
-39.73
-36.23
-30.02
-21.80
-12.44
-2.82
6.38
14.58
21.26
25.97
28.36
28.41
26.49
23.35
19.88
16.90
14.88
13.93
13.75
13.89
13.82
13.16
11.69
9.40
6.47
3.13
-0.40
-4.03
-7.76
-11.69
-15.91
-20.51
-25.53
-30.91
-36.43
-41.63
-45.72
-47.79
-47.03
-43.08
-36.18
-27.20
-17.25
-7.39
1.71
9.75
16.67
22.38
26.69
29.39
30.40
29.90
28.35
26.32
24.30
22.60
21.31
20.36
19.58
18.73
17.55
15.81
13.40
10.39
7.03
3.61
0.33
-2.85
-6.15
-9.95
-14.57
-20.15
-26.53
-33.21
-39.36
-44.02
-46.22
-45.35
-41.27
-34.45
-25.79
-16.31
-6.89
1.91
9.81
16.69
22.41
26.81
29.79
31.45
32.12
32.19
32.01
31.70
31.13
30.05
28.35
26.11
23.63
21.24
19.10
17.14
15.15
12.85
10.10
6.89
3.35
-0.40
-4.30
-8.45
-13.00
-18.11
-23.81
-29.86
-35.66
-40.35
-42.93
-42.62
-39.05
-32.44
-23.53
-13.33
-2.85
7.14
16.11
23.68
29.58
33.56
35.56
35.71
34.45
32.44
30.35
28.71
27.74
27.29
27.02
26.55
25.56
23.96
21.73
18.91
15.58
11.79
7.69
3.49
-0.62
-4.53
-8.32
-12.24
-16.61
-21.62
-27.25
-33.13
-38.65
-42.97
-45.25
-44.79
-41.25
-34.81
-26.20
-16.49
-6.84
1.83
9.00
14.47
18.31
20.61
21.47
21.05
19.71
17.98
16.45
15.55
15.42
15.83
16.32
16.38
15.65
14.06
11.79
9.15
6.41
3.74
1.09
-1.68
-4.79
-8.41
-12.69
-17.70
-23.34
-29.32
-35.03
-39.64
-42.22
-42.09
-38.95
-33.06
-25.11
-16.01
-6.68
2.07
9.64
15.62
19.76
22.03
22.63
21.97
20.58
19.04
17.76
16.99
16.68
16.59
16.32
15.53
13.96
11.58
8.56
5.15
1.64
-1.79
-5.10
-8.42
-11.99
-16.12
-21.04
-26.80
-33.13
-39.43
-44.79
-48.28
-49.10
-46.82
-41.48
-33.57
-23.90
-13.43
-3.08
6.37
14.44
20.87
25.66
28.94
30.86
31.67
31.59
30.89
29.85
28.70
27.53
26.32
24.94
23.21
21.02
18.35
15.28
11.95
8.51
5.03
1.53
-2.13
-6.12
-10.64
-15.75
-21.42
-27.51
-33.70
-39.57
-44.59
-48.05
-49.27
-47.72
-43.20
-36.05
-26.97
-16.89
-6.64
3.16
12.12
19.91
26.24
30.81
33.54
34.63
34.55
33.83
32.93
32.03
31.10
30.01
28.73
27.34
26.03
24.87
23.77
22.43
20.50
17.70
13.93
9.36
4.28
-0.94
-6.01
-10.84
-15.48
-20.14
-25.09
-30.50
-36.30
-42.13
-47.28
-50.80
-51.79
-49.67
-44.38
-36.41
-26.64
-16.03
-5.41
4.62
13.65
21.32
27.39
31.70
34.33
35.60
35.95
35.81
35.45
34.97
34.28
33.32
32.05
30.59
29.03
27.46
25.83
23.99
21.76
18.97
15.58
11.69
7.51
3.26
-0.85
-4.76
-8.50
-12.23
-16.14
-20.44
-25.34
-30.90
-36.97
-43.11
-48.52
-52.20
-53.16
-50.77
-44.99
-36.39
-26.07
-15.23
-4.85
4.45
12.43
19.04
24.25
28.06
30.49
31.69
32.01
31.88
31.67
31.54
31.45
31.19
30.52
29.37
27.75
25.84
23.74
21.47
18.93
15.98
12.51
8.56
4.33
0.08
-3.92
-7.53
-10.76
-13.79
-16.90
-20.41
-24.57
-29.44
-34.84
-40.18
-44.60
-47.10
-46.82
-43.29
-36.71
-27.73
-17.42
-6.93
2.74
10.86
17.06
21.29
23.74
24.73
24.65
23.88
22.74
21.48
20.28
19.26
18.49
17.95
17.53
17.07
16.32
15.08
13.23
10.79
7.88
4.67
1.29
-2.20
-5.83
-9.65
-13.73
-18.07
-22.69
-27.61
-32.75
-37.84
-42.31
-45.35
-46.12
-43.97
-38.73
-30.77
-20.95
-10.35
-0.05
9.15
16.74
22.59
26.72
29.31
30.61
30.85
30.33
29.32
28.04
26.71
25.39
24.08
22.71
21.15
19.31
17.08
14.38
11.16
7.42
3.26
-1.12
-5.45
-9.50
-13.10
-16.25
-19.15
-22.17
-25.75
-30.24
-35.71
-41.78
-47.64
-52.21
-54.35
-53.27
-48.70
-40.98
-31.01
-19.93
-8.88
1.28
10.05
17.28
23.03
27.50
30.90
33.41
35.18
36.29
36.73
36.49
35.55
34.03
32.14
30.16
28.29
26.57
24.85
22.90
20.50
17.55
14.09
10.24
6.10
1.79
-2.61
-7.00
-11.27
-15.43
-19.59
-24.02
-28.98
-34.47
-40.09
-44.98
-48.01
-48.18
-44.96
-38.51
-29.61
-19.38
-8.95
0.88
9.58
16.89
22.65
26.77
29.32
30.52
30.78
30.53
30.14
29.71
29.21
28.55
27.66
26.58
25.41
24.23
23.06
21.78
20.23
18.30
15.93
13.13
9.96
6.43
2.52
-1.81
-6.52
-11.48
-16.51
-21.49
-26.45
-31.57
-36.95
-42.40
-47.29
-50.64
-51.45
-49.06
-43.40
-34.98
-24.73
-13.66
-2.73
7.26
15.66
22.02
26.09
27.93
27.92
26.67
24.86
23.04
21.53
20.44
19.69
19.13
18.58
17.91
16.99
15.76
14.12
12.06
9.64
7.02
4.42
2.02
-0.07
-1.91
-3.65
-5.50
-7.70
-10.40
-13.75
-17.77
-22.36
-27.09
-31.27
-33.97
-34.38
-32.04
-27.05
-20.06
-12.01
-3.87
3.60
9.99
15.06
18.75
21.06
22.10
22.13
21.48
20.55
19.62
18.86
18.30
17.88
17.45
16.79
15.66
13.86
11.28
8.00
4.25
0.35
-3.41
-6.88
-10.04
-13.00
-15.96
-19.13
-22.80
-27.17
-32.29
-37.89
-43.31
-47.54
-49.50
-48.36
-43.82
-36.21
-26.45
-15.69
-5.05
4.59
12.72
19.05
23.56
26.36
27.71
28.02
27.68
27.07
26.37
25.67
25.00
24.34
23.73
23.13
22.41
21.35
19.64
17.13
13.88
10.17
6.33
2.66
-0.73
-3.92
-7.13
-10.61
-14.60
-19.28
-24.67
-30.65
-36.80
-42.40
-46.51
-48.17
-46.68
-41.86
-34.20
-24.66
-14.45
-4.61
4.15
11.56
17.64
22.45
26.03
28.34
29.38
29.33
28.48
27.21
25.84
24.57
23.41
22.31
21.12
19.72
17.97
15.81
13.25
10.32
7.09
3.62
-0.05
-3.85
-7.70
-11.52
-15.30
-19.22
-23.59
-28.63
-34.32
-40.09
-44.99
-47.87
-47.77
-44.29
-37.70
-28.82
-18.74
-8.48
1.18
9.79
17.09
22.94
27.22
29.91
31.07
30.99
30.06
28.80
27.63
26.76
26.10
25.43
24.44
22.96
20.98
18.61
15.98
13.16
10.14
6.91
3.53
0.13
-3.15
-6.23
-9.20
-12.35
-15.99
-20.43
-25.72
-31.55
-37.26
-41.87
-44.37
-43.93
-40.26
-33.64
-24.90
-15.10
-5.30
3.67
11.29
17.27
21.52
24.12
25.30
25.39
24.77
23.81
22.74
21.66
20.63
19.62
18.60
17.47
16.06
14.21
11.83
8.93
5.69
2.35
-0.86
-3.83
-6.59
-9.33
-12.34
-15.93
-20.28
-25.38
-30.89
-36.18
-40.40
-42.65
-42.27
-38.95
-32.89
-24.71
-15.27
-5.53
3.64
11.55
17.74
22.00
24.38
25.23
25.01
24.27
23.42
22.69
22.11
21.58
21.05
20.49
19.92
19.28
18.44
17.17
15.22
12.50
9.04
5.07
0.81
-3.52
-7.81
-12.11
-16.53
-21.28
-26.57
-32.55
-39.17
-46.06
-52.47
-57.34
-59.54
-58.20
-53.05
-44.50
-33.58
-21.61
-9.81
0.91
10.04
17.42
23.02
26.97
29.42
30.66
31.03
30.93
30.68
30.43
30.16
29.76
29.08
28.09
26.81
25.29
23.53
21.43
18.86
15.65
11.77
7.30
2.48
-2.40
-7.06
-11.36
-15.37
-19.37
-23.72
-28.74
-34.48
-40.63
-46.45
-50.94
-53.10
-52.20
-47.97
-40.72
-31.14
-20.19
-8.84
2.09
11.93
20.21
26.61
31.03
33.54
34.48
34.34
33.68
32.95
32.36
31.89
31.33
30.48
29.24
27.69
26.02
24.36
22.71
20.86
18.50
15.41
11.52
7.02
2.28
-2.35
-6.62
-10.46
-14.03
-17.61
-21.56
-26.20
-31.73
-38.10
-44.90
-51.29
-56.15
-58.35
-57.02
-51.90
-43.40
-32.49
-20.38
-8.17
3.33
13.65
22.53
29.81
35.32
39.00
40.97
41.58
41.38
40.91
40.51
40.22
39.83
38.99
37.49
35.28
32.59
29.74
27.02
24.54
22.17
19.61
16.54
12.81
8.48
3.82
-0.81
-5.12
-9.00
-12.56
-16.10
-19.97
-24.46
-29.76
-35.81
-42.26
-48.44
-53.39
-56.11
-55.75
-51.89
-44.70
-34.86
-23.48
-11.73
-0.66
9.03
16.96
23.02
27.30
29.94
31.20
31.43
31.10
30.70
30.65
31.10
31.86
32.52
32.58
31.73
29.93
27.44
24.64
21.85
19.19
16.54
13.71
10.50
6.86
2.91
-1.12
-5.00
-8.63
-12.06
-15.49
-19.18
-23.35
-28.13
-33.49
-39.21
-44.87
-49.79
-53.12
-54.01
-51.78
-46.18
-37.51
-26.58
-14.51
-2.46
8.58
17.95
25.24
30.32
33.25
34.31
33.91
32.63
31.08
29.78
29.09
29.05
29.43
29.80
29.71
28.84
27.12
24.76
22.07
19.32
16.57
13.69
10.45
6.73
2.59
-1.74
-6.02
-10.06
-13.81
-17.43
-21.14
-25.25
-30.04
-35.71
-42.24
-49.25
-56.02
-61.50
-64.57
-64.32
-60.36
-52.88
-42.66
-30.79
-18.41
-6.48
4.41
13.98
22.11
28.71
33.68
36.97
38.69
39.18
38.97
38.59
38.36
38.37
38.44
38.29
37.67
36.47
34.74
32.62
30.30
27.92
25.53
23.07
20.38
17.27
13.62
9.48
5.08
0.77
-3.20
-6.71
-9.94
-13.19
-16.86
-21.24
-26.49
-32.64
-39.50
-46.70
-53.54
-59.03
-62.08
-61.78
-57.72
-50.18
-40.05
-28.56
-16.88
-5.82
4.20
13.11
20.87
27.38
32.44
35.86
37.67
38.13
37.77
37.14
36.71
36.63
36.83
37.04
36.96
36.35
35.09
33.16
30.67
27.73
24.51
21.16
17.74
14.28
10.76
7.18
3.61
0.14
-3.17
-6.35
-9.55
-12.98
-16.84
-21.31
-26.49
-32.39
-38.89
-45.59
-51.77
-56.49
-58.75
-57.81
-53.50
-46.22
-36.82
-26.26
-15.38
-4.81
5.00
13.63
20.67
25.81
28.97
30.40
30.61
30.28
29.92
29.82
29.97
30.15
30.09
29.56
28.44
26.73
24.56
22.14
19.67
17.27
14.96
12.58
9.96
6.91
3.46
-0.25
-3.93
-7.35
-10.44
-13.33
-16.29
-19.62
-23.62
-28.44
-34.12
-40.45
-46.88
-52.55
-56.37
-57.34
-54.84
-48.84
-39.99
-29.32
-18.01
-7.00
3.07
11.77
18.83
24.05
27.38
28.96
29.23
28.73
28.04
27.53
27.34
27.35
27.35
27.12
26.53
25.53
24.15
22.37
20.18
17.51
14.28
10.46
6.18
1.64
-2.83
-6.94
-10.61
-13.94
-17.29
-21.08
-25.67
-31.16
-37.35
-43.63
-49.12
-52.84
-53.90
-51.75
-46.36
-38.16
-28.04
-17.02
-6.07
4.08
12.98
20.43
26.32
30.59
33.25
34.46
34.59
34.15
33.62
33.32
33.25
33.15
32.67
31.56
29.77
27.50
24.98
22.36
19.60
16.56
13.14
9.31
5.19
0.97
-3.15
-7.12
-11.03
-15.07
-19.53
-24.69
-30.75
-37.66
-45.06
-52.16
-57.87
-61.06
-60.85
-56.94
-49.66
-39.85
-28.58
-16.87
-5.49
5.03
14.31
22.06
28.02
32.07
34.27
34.96
34.64
33.91
33.25
32.94
32.91
32.91
32.60
31.73
30.27
28.40
26.35
24.25
22.06
19.55
16.49
12.80
8.62
4.28
0.12
-3.65
-7.02
-10.13
-13.30
-16.82
-21.00
-26.06
-32.05
-38.81
-45.79
-52.10
-56.59
-58.21
-56.26
-50.67
-42.01
-31.28
-19.62
-7.98
2.95
12.77
21.14
27.86
32.74
35.76
37.13
37.24
36.55
35.50
34.31
33.06
31.66
30.05
28.25
26.40
24.66
23.17
21.93
20.74
19.30
17.25
14.36
10.60
6.18
1.51
-2.99
-7.00
-10.43
-13.45
-16.37
-19.65
-23.68
-28.68
-34.65
-41.23
-47.63
-52.77
-55.49
-54.85
-50.50
-42.77
-32.64
-21.35
-10.13
0.12
8.89
15.96
21.26
24.85
26.90
27.74
27.79
27.54
27.30
27.20
27.15
26.98
26.53
25.77
24.78
23.61
22.28
20.70
18.71
16.23
13.24
9.84
6.15
2.33
-1.55
-5.44
-9.35
-13.30
-17.47
-22.08
-27.40
-33.51
-40.12
-46.51
-51.58
-54.21
-53.60
-49.49
-42.21
-32.57
-21.56
-10.18
0.75
10.62
18.96
25.49
30.09
32.88
34.20
34.58
34.52
34.42
34.42
34.40
34.10
33.31
31.94
30.10
27.99
25.80
23.57
21.19
18.44
15.11
11.07
6.35
1.15
-4.18
-9.28
-13.88
-17.86
-21.35
-24.74
-28.53
-33.21
-39.02
-45.78
-52.74
-58.77
-62.49
-62.83
-59.23
-51.89
-41.66
-29.69
-17.19
-5.06
6.12
16.01
24.39
31.02
35.75
38.53
39.60
39.43
38.65
37.80
37.21
36.85
36.47
35.76
34.54
32.89
31.06
29.35
27.87
26.43
24.61
21.96
18.18
13.35
7.90
2.40
-2.66
-7.06
-10.90
-14.54
-18.38
-22.78
-27.97
-34.01
-40.79
-47.84
-54.34
-59.19
-61.24
-59.62
-54.11
-45.19
-33.89
-21.46
-8.97
2.80
13.38
22.47
29.82
35.24
38.65
40.21
40.34
39.63
38.69
37.91
37.40
36.99
36.37
35.27
33.53
31.26
28.67
26.09
23.70
21.56
19.49
17.20
14.41
10.98
6.98
2.73
-1.43
-5.30
-8.85
-12.37
-16.29
-21.04
-26.90
-33.88
-41.57
-49.23
-55.81
-60.11
-61.14
-58.30
-51.66
-41.91
-30.26
-18.05
-6.43
3.81
12.30
18.95
23.82
26.99
28.62
28.97
28.48
27.63
26.81
26.25
25.96
25.79
25.58
25.19
24.50
23.41
21.75
19.38
16.26
12.47
8.22
3.78
-0.56
-4.62
-8.27
-11.53
-14.54
-17.63
-21.24
-25.80
-31.54
-38.26
-45.27
-51.42
-55.37
-55.92
-52.42
-45.01
-34.55
-22.44
-10.12
1.27
11.13
19.35
26.07
31.43
35.42
37.98
39.10
38.98
38.01
36.68
35.35
34.20
33.13
31.90
30.33
28.34
26.02
23.54
21.03
18.47
15.65
12.30
8.16
3.24
-2.26
-7.85
-13.00
-17.37
-20.89
-23.91
-26.99
-30.76
-35.68
-41.84
-48.86
-55.87
-61.65
-64.93
-64.64
-60.36
-52.36
-41.58
-29.30
-16.77
-4.89
5.86
15.28
23.33
29.87
34.75
37.86
39.27
39.32
38.47
37.20
35.93
34.79
33.77
32.68
31.33
29.63
27.65
25.57
23.62
21.91
20.35
18.65
16.39
13.23
9.09
4.19
-0.98
-5.84
-10.01
-13.45
-16.50
-19.74
-23.75
-28.88
-35.06
-41.87
-48.62
-54.45
-58.51
-60.03
-58.46
-53.61
-45.75
-35.59
-24.14
-12.46
-1.40
8.49
17.02
24.10
29.70
33.75
36.20
37.16
36.98
36.11
35.06
34.13
33.36
32.60
31.60
30.17
28.25
25.93
23.37
20.82
18.49
16.46
14.69
12.92
10.84
8.21
4.97
1.24
-2.75
-6.83
-10.96
-15.24
-19.78
-24.60
-29.70
-35.07
-40.72
-46.68
-52.72
-58.20
-62.08
-63.22
-60.79
-54.59
-45.23
-33.86
-21.83
-10.29
0.00
8.66
15.53
20.57
23.79
25.35
25.55
24.86
23.79
22.83
22.23
22.03
22.04
21.99
21.62
20.83
19.64
18.22
16.66
14.96
12.97
10.49
7.37
3.68
-0.29
-4.15
-7.57
-10.41
-12.79
-15.05
-17.67
-21.08
-25.59
-31.18
-37.45
-43.57
-48.42
-50.84
-49.94
-45.43
-37.69
-27.67
-16.59
-5.61
4.42
13.04
20.09
25.50
29.27
31.37
31.91
31.17
29.65
27.95
26.60
25.90
25.78
25.91
25.86
25.28
24.06
22.27
20.11
17.77
15.23
12.35
8.90
4.73
-0.12
-5.35
-10.53
-15.27
-19.31
-22.73
-25.86
-29.20
-33.25
-38.37
-44.52
-51.24
-57.60
-62.40
-64.41
-62.80
-57.39
-48.73
-37.93
-26.26
-14.77
-4.08
5.56
14.10
21.44
27.39
31.70
34.31
35.41
35.43
34.90
34.26
33.69
33.19
32.58
31.72
30.58
29.26
27.91
26.62
25.33
23.80
21.69
18.68
14.64
9.69
4.21
-1.34
-6.54
-11.19
-15.33
-19.25
-23.35
-28.06
-33.67
-40.27
-47.53
-54.69
-60.64
-64.11
-64.04
-59.89
-51.90
-40.97
-28.45
-15.69
-3.74
6.84
15.92
23.60
30.00
35.08
38.76
40.95
41.78
41.60
40.96
40.38
40.13
40.17
40.15
39.66
38.42
36.38
33.82
31.09
28.51
26.16
23.84
21.26
18.11
14.25
9.77
4.94
0.03
-4.73
-9.27
-13.63
-17.94
-22.36
-27.08
-32.32
-38.25
-44.86
-51.81
-58.36
-63.41
-65.78
-64.57
-59.40
-50.62
-39.12
-26.14
-12.83
-0.11
11.44
21.43
29.56
35.60
39.45
41.21
41.32
40.42
39.19
38.13
37.42
36.94
36.40
35.55
34.24
32.50
30.48
28.33
26.15
23.94
21.58
18.95
15.86
12.19
7.96
3.26
-1.63
-6.45
-10.97
-15.10
-18.97
-22.82
-26.98
-31.77
-37.31
-43.48
-49.79
-55.44
-59.38
-60.60
-58.39
-52.62
-43.74
-32.76
-20.86
-9.11
1.74
11.23
19.03
24.90
28.67
30.35
30.30
29.21
27.92
27.17
27.36
28.42
29.93
31.28
31.96
31.71
30.54
28.67
26.38
23.85
21.17
18.26
15.00
11.31
7.19
2.80
-1.65
-5.95
-10.00
-13.86
-17.74
-21.97
-26.85
-32.58
-39.20
-46.42
-53.63
-59.92
-64.21
-65.50
-63.13
-57.05
-47.77
-36.33
-23.93
-11.65
-0.24
9.93
18.69
25.96
31.62
35.55
37.73
38.38
37.95
37.01
36.06
35.39
34.99
34.63
34.06
33.07
31.67
29.99
28.16
26.30
24.32
22.02
19.12
15.43
10.98
6.05
1.08
-3.52
-7.54
-11.06
-14.44
-18.12
-22.57
-28.04
-34.57
-41.85
-49.33
-56.19
-61.48
-64.23
-63.71
-59.62
-52.20
-42.21
-30.71
-18.72
-7.06
3.82
13.72
22.53
30.02
35.90
39.85
41.79
41.94
40.83
39.14
37.40
35.93
34.72
33.61
32.43
31.04
29.48
27.82
26.11
24.31
22.26
19.73
16.57
12.74
8.40
3.83
-0.70
-4.96
-8.92
-12.67
-16.39
-20.24
-24.44
-29.15
-34.59
-40.85
-47.73
-54.61
-60.40
-63.85
-63.88
-60.01
-52.53
-42.38
-30.80
-18.90
-7.50
2.91
12.08
19.74
25.68
29.78
32.16
33.19
33.38
33.23
33.04
32.87
32.62
32.09
31.22
30.06
28.74
27.38
25.99
24.45
22.54
20.00
16.72
12.72
8.22
3.59
-0.84
-4.86
-8.50
-12.02
-15.85
-20.41
-26.02
-32.76
-40.36
-48.20
-55.34
-60.67
-63.06
-61.69
-56.30
-47.27
-35.62
-22.70
-9.85
1.87
11.82
19.75
25.63
29.63
31.95
32.94
33.05
32.73
32.37
32.22
32.25
32.28
32.02
31.20
29.72
27.65
25.15
22.37
19.28
15.76
11.60
6.78
1.51
-3.75
-8.54
-12.65
-16.19
-19.63
-23.55
-28.42
-34.45
-41.51
-49.09
-56.29
-61.97
-64.88
-64.10
-59.26
-50.78
-39.70
-27.29
-14.64
-2.43
9.03
19.62
29.09
37.02
42.91
46.46
47.76
47.34
45.96
44.35
42.98
41.90
40.88
39.62
37.92
35.79
33.39
30.94
28.54
26.12
23.47
20.32
16.50
12.02
7.04
1.89
-3.13
-7.84
-12.19
-16.36
-20.71
-25.65
-31.55
-38.58
-46.58
-54.88
-62.46
-67.99
-70.28
-68.48
-62.51
-52.94
-40.93
-27.77
-14.55
-1.88
10.02
21.09
31.20
39.94
46.79
51.32
53.50
53.76
52.87
51.60
50.48
49.61
48.84
47.89
46.56
44.84
42.84
40.68
38.41
35.94
33.10
29.71
25.63
20.85
15.49
9.77
3.98
-1.64
-6.94
-11.90
-16.62
-21.27
-26.10
-31.40
-37.40
-44.22
-51.71
-59.30
-66.03
-70.61
-71.87
-69.03
-61.99
-51.40
-38.40
-24.31
-10.31
2.80
14.53
24.62
32.90
39.21
43.48
45.79
46.40
45.76
44.41
42.85
41.38
40.09
38.85
37.48
35.83
33.91
31.87
29.81
27.68
25.29
22.29
18.43
13.69
8.36
2.91
-2.18
-6.64
-10.52
-14.07
-17.73
-21.94
-27.04
-33.16
-40.09
-47.28
-53.78
-58.41
-60.05
-57.96
-52.03
-42.84
-31.45
-19.16
-7.15
3.70
12.87
20.14
25.46
28.87
30.54
30.77
30.01
28.79
27.62
26.80
26.46
26.44
26.49
26.30
25.65
24.44
22.63
20.23
17.25
13.69
9.62
5.16
0.49
-4.21
-8.81
-13.32
-17.89
-22.81
-28.38
-34.75
-41.79
-48.89
-55.08
-59.11
-59.83
-56.52
-49.19
-38.59
-26.01
-12.87
-0.32
10.90
20.49
28.35
34.43
38.69
41.14
42.00
41.73
40.88
39.95
39.14
38.35
37.28
35.69
33.53
31.00
28.38
25.85
23.34
20.57
17.16
12.92
7.93
2.55
-2.74
-7.60
-11.93
-15.93
-19.98
-24.54
-30.00
-36.48
-43.79
-51.27
-57.94
-62.56
-63.99
-61.55
-55.15
-45.44
-33.54
-20.78
-8.31
3.05
12.93
21.24
28.04
33.40
37.32
39.83
41.04
41.23
40.77
39.98
39.06
37.99
36.69
35.08
33.24
31.34
29.58
27.97
26.33
24.32
21.58
17.94
13.45
8.38
3.09
-2.01
-6.67
-10.75
-14.32
-17.67
-21.25
-25.59
-31.10
-37.88
-45.53
-53.17
-59.54
-63.31
-63.44
-59.46
-51.61
-40.77
-28.21
-15.21
-2.79
8.40
17.98
25.79
31.65
35.42
37.14
37.10
35.88
34.22
32.82
32.08
32.06
32.50
33.04
33.40
33.42
33.06
32.35
31.27
29.81
27.92
25.56
22.70
19.28
15.21
10.49
5.21
-0.35
-5.85
-10.91
-15.38
-19.33
-23.06
-26.97
-31.47
-36.74
-42.73
-48.99
-54.76
-59.03
-60.75
-59.13
-53.87
-45.35
-34.45
-22.42
-10.41
0.67
10.31
18.27
24.46
28.88
31.61
32.89
33.11
32.68
31.98
31.20
30.37
29.42
28.30
27.04
25.77
24.59
23.54
22.48
21.15
19.25
16.54
12.98
8.70
4.04
-0.67
-5.20
-9.48
-13.62
-17.76
-22.02
-26.49
-31.19
-36.06
-40.86
-45.14
-48.16
-49.08
-47.21
-42.28
-34.64
-25.18
-15.02
-5.25
3.36
10.46
15.99
20.00
22.59
23.83
23.88
22.95
21.42
19.76
18.39
17.58
17.33
17.37
17.22
16.47
14.80
12.20
8.89
5.18
1.43
-2.18
-5.57
-8.80
-11.93
-15.05
-18.25
-21.71
-25.67
-30.32
-35.61
-41.10
-45.88
-48.78
-48.77
-45.30
-38.54
-29.34
-18.88
-8.29
1.68
10.66
18.56
25.30
30.74
34.72
37.19
38.39
38.72
38.72
38.75
38.99
39.36
39.68
39.76
39.53
38.98
38.14
37.06
35.79
34.39
32.87
31.29
29.65
27.99
26.37
24.85
23.49
22.28
21.14
19.95
18.63
17.16
15.60
13.99
12.41
10.90
9.47
8.15
6.92
5.70
4.35
2.77
0.92
-1.11
-3.14
-4.98
-6.58
-7.96
-9.24
-10.52
-11.88
-13.29
-14.74
-16.17
-17.54
-18.82
-20.05
-21.37
-22.96
-25.10
-27.97
-31.61
-35.82
-40.25
-44.44
-48.07
-51.06
-53.63
-56.28
-59.55
-63.87
-69.33
-75.55
-81.72
-86.69
-89.19
-88.18
-83.12
-74.20
-62.30
-48.74
-34.94
-21.98
-10.51
-0.71
7.44
14.01
19.05
22.63
24.90
26.19
26.86
27.19
27.33
27.26
26.94
26.32
25.44
24.37
23.19
21.91
20.48
18.82
16.88
14.57
11.86
8.79
5.43
1.90
-1.68
-5.28
-8.94
-12.80
-17.05
-21.78
-26.96
-32.22
-36.94
-40.27
-41.36
-39.69
-35.21
-28.46
-20.34
-11.86
-3.84
3.29
9.34
14.27
17.94
20.15
20.79
19.94
18.05
15.74
13.72
12.48
12.18
12.66
13.51
14.20
14.25
13.34
11.33
8.31
4.52
0.31
-3.97
-8.07
-11.89
-15.54
-19.32
-23.56
-28.55
-34.28
-40.39
-46.16
-50.62
-52.79
-52.00
-48.01
-41.05
-31.83
-21.29
-10.43
-0.12
8.99
16.51
22.27
26.28
28.70
29.81
29.99
29.63
29.03
28.34
27.54
26.49
25.10
23.35
21.32
19.10
16.73
14.12
11.16
7.79
4.05
0.11
-3.87
-7.82
-11.74
-15.71
-19.86
-24.33
-29.26
-34.80
-40.89
-47.26
-53.23
-57.88
-60.18
-59.38
-55.24
-48.11
-38.81
-28.31
-17.45
-6.75
3.51
13.16
21.95
29.47
35.31
39.17
41.08
41.41
40.72
39.60
38.49
37.62
37.05
36.77
36.68
36.62
36.34
35.57
34.15
32.05
29.42
26.47
23.34
20.03
16.43
12.50
8.33
4.11
0.02
-3.94
-7.95
-12.33
-17.32
-23.09
-29.64
-36.85
-44.45
-52.00
-58.79
-63.89
-66.28
-65.20
-60.38
-52.16
-41.37
-29.09
-16.29
-3.66
8.40
19.63
29.74
38.36
45.09
49.69
52.24
53.13
52.95
52.32
51.67
51.16
50.79
50.40
49.89
49.16
48.12
46.65
44.61
41.87
38.42
34.40
30.06
25.68
21.48
17.56
13.87
10.29
6.71
3.05
-0.65
-4.35
-8.03
-11.74
-15.64
-19.93
-24.83
-30.49
-36.94
-43.96
-51.01
-57.19
-61.34
-62.36
-59.53
-52.83
-42.92
-31.01
-18.31
-5.84
5.83
16.41
25.69
33.38
39.10
42.63
44.04
43.79
42.60
41.23
40.28
40.00
40.34
41.05
41.70
41.92
41.42
40.05
37.85
34.99
31.73
28.24
24.64
20.92
17.03
12.97
8.77
4.58
0.52
-3.30
-6.90
-10.35
-13.80
-17.36
-21.15
-25.32
-30.05
-35.50
-41.63
-47.99
-53.69
-57.55
-58.44
-55.67
-49.31
-40.08
-29.10
-17.52
-6.20
4.32
13.63
21.38
27.21
30.83
32.29
32.01
30.72
29.22
28.15
27.73
27.86
28.16
28.25
27.87
26.94
25.53
23.76
21.73
19.42
16.76
13.67
10.14
6.28
2.31
-1.55
-5.13
-8.46
-11.72
-15.18
-19.16
-23.89
-29.47
-35.70
-42.13
-48.02
-52.49
-54.66
-53.98
-50.30
-43.95
-35.60
-26.05
-16.04
-6.11
3.40
12.24
20.17
26.94
32.32
36.14
38.42
39.30
39.11
38.23
37.02
35.69
34.40
33.21
32.07
30.96
29.77
28.42
26.82
24.90
22.60
19.88
16.76
13.30
9.60
5.76
1.87
-1.97
-5.77
-9.56
-13.40
-17.39
-21.62
-26.18
-31.18
-36.65
-42.50
-48.41
-53.79
-57.91
-59.94
-59.28
-55.68
-49.34
-40.88
-31.07
-20.70
-10.36
-0.44
8.86
17.32
24.68
30.65
34.99
37.63
38.75
38.74
38.08
37.18
36.30
35.53
34.84
34.18
33.49
32.68
31.66
30.35
28.64
26.47
23.87
20.92
17.78
14.59
11.53
8.65
5.90
3.17
0.26
-2.97
-6.57
-10.47
-14.50
-18.50
-22.39
-26.25
-30.34
-34.93
-40.24
-46.23
-52.46
-58.09
-62.08
-63.41
-61.44
-56.16
-48.14
-38.37
-27.89
-17.53
-7.77
1.20
9.26
16.22
21.84
25.92
28.49
29.83
30.37
30.53
30.55
30.46
30.18
29.65
28.93
28.16
27.49
26.89
26.21
25.21
23.74
21.78
19.51
17.15
14.86
12.68
10.48
8.03
5.12
1.61
-2.51
-7.08
-11.82
-16.40
-20.56
-24.18
-27.37
-30.46
-33.89
-38.02
-43.00
-48.67
-54.41
-59.33
-62.41
-62.75
-59.88
-53.81
-45.13
-34.78
-23.82
-13.16
-3.46
4.94
11.91
17.41
21.50
24.35
26.22
27.48
28.50
29.50
30.53
31.41
31.91
31.88
31.31
30.37
29.31
28.34
27.50
26.66
25.55
23.87
21.48
18.42
14.97
11.46
8.18
5.15
2.21
-0.93
-4.48
-8.46
-12.73
-17.06
-21.27
-25.34
-29.37
-33.52
-37.96
-42.85
-48.31
-54.36
-60.75
-66.91
-71.89
-74.56
-74.01
-69.78
-62.14
-51.96
-40.42
-28.58
-17.22
-6.65
3.00
11.66
19.11
25.10
29.40
32.08
33.44
33.98
34.16
34.30
34.47
34.64
34.71
34.70
34.64
34.60
34.55
34.34
33.77
32.65
30.89
28.50
25.64
22.52
19.35
16.29
13.35
10.46
7.43
4.07
0.27
-3.97
-8.50
-13.06
-17.43
-21.50
-25.42
-29.50
-34.22
-39.96
-46.82
-54.39
-61.77
-67.72
-70.91
-70.34
-65.64
-57.12
-45.78
-32.96
-19.97
-7.78
3.09
12.50
20.52
27.16
32.35
36.04
38.28
39.36
39.75
39.92
40.18
40.61
41.05
41.30
41.18
40.65
39.76
38.56
37.05
35.18
32.88
30.18
27.10
23.74
20.17
16.38
12.35
8.06
3.58
-0.95
-5.36
-9.56
-13.59
-17.63
-21.96
-26.85
-32.46
-38.83
-45.74
-52.72
-58.99
-63.53
-65.27
-63.37
-57.51
-48.10
-36.26
-23.50
-11.26
-0.60
8.05
14.79
19.91
23.70
26.30
27.76
28.22
27.94
27.34
26.81
26.54
26.53
26.59
26.55
26.26
25.72
24.91
23.78
22.19
19.91
16.73
12.65
7.81
2.60
-2.54
-7.28
-11.51
-15.43
-19.40
-23.86
-29.10
-35.17
-41.82
-48.45
-54.23
-58.17
-59.33
-57.09
-51.35
-42.62
-31.94
-20.51
-9.46
0.44
8.81
15.51
20.53
23.93
25.79
26.33
25.87
24.84
23.61
22.39
21.16
19.74
17.83
15.19
11.70
7.38
2.34
-3.27
-9.41
-16.12
-23.45
-31.40
-39.84
-48.54
-57.26
-65.83
-74.28
-82.80
-91.77
-101.56
-112.52
-124.71
-137.84
-151.17
-163.55
-173.71
-180.58
-183.66
-183.13
-179.70
-174.25
-167.37
-159.15
-149.17
-136.74
-121.25
-102.38
-80.10
-54.69
-26.48
4.02
36.15
68.86
100.78
130.33
156.00
176.66
191.77
201.36
205.81
205.70
201.58
194.01
183.54
170.89
156.90
142.52
128.56
115.52
103.49
92.12
80.77
68.82
55.84
41.87
27.49
13.84
2.32
-5.70
-9.34
-8.44
-3.70
3.65
12.26
21.02
29.26
36.72
43.26
48.68
52.69
55.07
55.82
55.26
53.89
52.19
50.44
48.66
46.70
44.44
41.89
39.22
36.61
34.17
31.82
29.33
26.38
22.70
18.18
12.94
7.33
1.79
-3.28
-7.72
-11.67
-15.54
-19.89
-25.23
-31.77
-39.31
-47.10
-54.00
-58.64
-59.81
-56.83
-49.75
-39.37
-27.00
-14.06
-1.75
9.19
18.45
25.95
31.69
35.63
37.76
38.18
37.25
35.48
33.42
31.53
30.03
28.92
28.04
27.17
26.05
24.43
22.12
18.98
14.99
10.32
5.30
0.32
-4.25
-8.22
-11.62
-14.71
-17.89
-21.69
-26.49
-32.45
-39.33
-46.47
-52.83
-57.16
-58.36
-55.68
-49.03
-38.99
-26.72
-13.64
-1.07
10.01
19.11
26.10
31.06
34.14
35.50
35.39
34.25
32.63
31.08
29.95
29.26
28.74
27.95
26.53
24.33
21.40
17.94
14.16
10.22
6.19
2.07
-2.15
-6.44
-10.79
-15.15
-19.57
-24.23
-29.47
-35.62
-42.81
-50.73
-58.47
-64.67
-67.81
-66.76
-61.20
-51.71
-39.54
-26.17
-12.83
-0.27
11.25
21.61
30.68
38.16
43.66
47.00
48.31
48.06
46.87
45.28
43.61
41.95
40.26
38.51
36.71
34.88
32.94
30.71
27.91
24.31
19.83
14.66
9.15
3.70
-1.37
-5.93
-10.10
-14.19
-18.61
-23.77
-29.97
-37.14
-44.81
-52.03
-57.53
-60.01
-58.59
-53.08
-44.08
-32.78
-20.52
-8.35
3.14
13.73
23.35
31.85
38.87
44.09
47.39
49.02
49.51
49.46
49.19
48.74
47.87
46.37
44.18
41.51
38.67
35.86
33.09
30.16
26.74
22.60
17.71
12.27
6.57
0.96
-4.35
-9.31
-14.06
-18.85
-23.95
-29.57
-35.76
-42.38
-48.95
-54.69
-58.60
-59.64
-57.15
-50.97
-41.68
-30.32
-18.13
-6.15
4.91
14.68
22.93
29.46
34.06
36.64
37.43
36.97
35.97
35.09
34.72
34.85
35.20
35.33
34.88
33.64
31.58
28.81
25.45
21.64
17.44
12.91
8.17
3.37
-1.26
-5.56
-9.50
-13.20
-16.94
-21.01
-25.67
-31.00
-36.85
-42.78
-48.12
-51.97
-53.44
-51.91
-47.19
-39.72
-30.38
-20.26
-10.34
-1.33
6.42
12.74
17.55
20.81
22.55
22.99
22.48
21.45
20.24
19.07
17.92
16.65
15.12
13.19
10.89
8.35
5.85
3.70
2.20
1.47
1.48
1.98
2.60
2.97
2.82
2.02
0.50
-1.82
-5.07
-9.45
-15.00
-21.43
-27.99
-33.54
-36.83
-36.92
-33.50
-27.06
-18.63
-9.45
-0.54
7.53
14.58
20.59
25.50
29.12
31.24
31.83
31.20
29.90
28.50
27.38
26.58
25.90
25.04
23.79
22.12
20.07
17.67
14.85
11.51
7.59
3.20
-1.43
-6.06
-10.52
-14.76
-18.88
-23.00
-27.25
-31.79
-36.74
-42.20
-48.05
-53.81
-58.51
-60.95
-60.03
-55.25
-46.94
-36.15
-24.32
-12.71
-2.07
7.36
15.66
22.87
28.84
33.28
36.02
37.15
37.10
36.44
35.68
35.01
34.38
33.54
32.25
30.45
28.23
25.81
23.35
20.89
18.27
15.26
11.65
7.43
2.75
-2.07
-6.67
-10.78
-14.36
-17.59
-20.83
-24.53
-29.06
-34.55
-40.77
-47.07
-52.46
-55.79
-56.10
-52.90
-46.34
-37.18
-26.49
-15.36
-4.66
5.13
13.75
21.11
27.08
31.53
34.35
35.62
35.62
34.84
33.76
32.75
31.95
31.27
30.49
29.41
27.93
26.10
24.06
21.90
19.57
16.89
13.64
9.69
5.11
0.22
-4.59
-8.96
-12.71
-15.94
-19.00
-22.31
-26.27
-31.11
-36.80
-43.05
-49.24
-54.45
-57.66
-57.95
-54.82
-48.35
-39.26
-28.62
-17.59
-7.11
2.27
10.28
16.80
21.75
25.10
26.86
27.26
26.70
25.59
24.25
22.79
21.18
19.37
17.36
15.32
13.43
11.83
10.42
8.98
7.19
4.88
1.99
-1.33
-4.87
-8.42
-11.82
-15.05
-18.14
-21.31
-24.78
-28.81
-33.44
-38.39
-43.01
-46.35
-47.50
-45.78
-41.02
-33.60
-24.32
-14.16
-4.14
4.94
12.51
18.23
21.97
23.81
24.07
23.24
21.92
20.67
19.83
19.49
19.44
19.43
19.23
18.76
18.03
16.96
15.41
13.14
9.95
5.87
1.14
-3.85
-8.70
-13.16
-17.20
-21.01
-24.92
-29.27
-34.37
-40.33
-47.02
-53.98
-60.40
-65.20
-67.30
-65.89
-60.74
-52.27
-41.51
-29.77
-18.24
-7.68
1.61
9.71
16.82
23.03
28.25
32.31
35.07
36.55
36.93
36.54
35.68
34.61
33.38
31.99
30.36
28.48
26.38
24.11
21.65
18.90
15.69
11.87
7.47
2.71
-2.14
-6.81
-11.23
-15.60
-20.26
-25.54
-31.68
-38.64
-46.12
-53.43
-59.54
-63.28
-63.64
-60.08
-52.82
-42.69
-30.90
-18.62
-6.73
4.27
14.06
22.41
29.09
33.94
37.01
38.62
39.26
39.44
39.58
39.80
40.03
40.06
39.61
38.47
36.55
33.91
30.79
27.51
24.26
21.09
17.83
14.22
10.08
5.42
0.46
-4.47
-9.04
-13.12
-16.82
-20.47
-24.54
-29.44
-35.40
-42.23
-49.27
-55.42
-59.37
-60.04
-56.86
-50.04
-40.39
-29.10
-17.30
-5.94
4.45
13.50
20.98
26.72
30.62
32.78
33.51
33.33
32.74
32.13
31.68
31.31
30.85
30.12
29.10
27.85
26.48
25.05
23.39
21.25
18.36
14.61
10.19
5.49
0.98
-3.06
-6.59
-9.92
-13.47
-17.66
-22.71
-28.57
-34.89
-41.06
-46.25
-49.50
-49.95
-47.02
-40.66
-31.40
-20.25
-8.48
2.75
12.58
20.53
26.47
30.49
32.84
33.86
33.95
33.49
32.75
31.89
30.96
29.93
28.77
27.43
25.87
23.99
21.63
18.68
15.08
10.92
6.42
1.84
-2.60
-6.77
-10.71
-14.54
-18.41
-22.53
-27.10
-32.36
-38.47
-45.33
-52.38
-58.58
-62.56
-63.03
-59.29
-51.49
-40.62
-28.16
-15.51
-3.68
6.87
15.98
23.65
29.76
34.14
36.79
37.97
38.13
37.84
37.49
37.24
37.03
36.68
36.08
35.21
34.14
32.90
31.44
29.57
27.07
23.75
19.61
14.79
9.57
4.31
-0.68
-5.23
-9.38
-13.29
-17.32
-21.86
-27.26
-33.65
-40.76
-47.91
-53.98
-57.76
-58.22
-54.87
-47.99
-38.47
-27.54
-16.29
-5.48
4.61
13.87
22.21
29.39
35.03
38.90
41.04
41.82
41.81
41.53
41.25
40.97
40.51
39.73
38.61
37.22
35.68
34.04
32.23
30.11
27.50
24.30
20.45
16.03
11.21
6.25
1.38
-3.24
-7.59
-11.87
-16.40
-21.60
-27.75
-34.87
-42.65
-50.37
-57.05
-61.61
-63.19
-61.31
-56.03
-47.89
-37.73
-26.49
-15.04
-4.08
5.89
14.50
21.53
26.88
30.56
32.75
33.73
33.89
33.62
33.22
32.84
32.43
31.87
30.97
29.62
27.82
25.65
23.21
20.58
17.77
14.72
11.32
7.43
3.04
-1.73
-6.60
-11.19
-15.21
-18.60
-21.64
-24.86
-28.83
-33.85
-39.79
-46.04
-51.57
-55.23
-56.08
-53.57
-47.74
-39.18
-28.83
-17.75
-6.93
2.90
11.24
17.74
22.26
24.85
25.76
25.45
24.53
23.51
22.73
22.28
22.09
21.97
21.74
21.26
20.42
19.14
17.32
14.92
11.94
8.48
4.65
0.62
-3.45
-7.46
-11.40
-15.37
-19.57
-24.23
-29.58
-35.62
-42.13
-48.52
-53.92
-57.30
-57.73
-54.66
-48.19
-39.05
-28.40
-17.50
-7.31
1.71
9.50
16.24
22.02
26.74
30.23
32.38
33.31
33.34
32.89
32.28
31.68
31.03
30.19
29.03
27.49
25.61
23.41
20.89
17.99
14.61
10.72
6.41
1.90
-2.47
-6.44
-9.93
-13.14
-16.50
-20.52
-25.65
-32.10
-39.63
-47.57
-54.78
-59.93
-61.80
-59.63
-53.39
-43.80
-32.10
-19.68
-7.69
3.16
12.61
20.68
27.40
32.74
36.60
38.99
40.05
40.14
39.69
39.10
38.56
38.04
37.38
36.41
35.05
33.36
31.51
29.64
27.77
25.75
23.31
20.16
16.12
11.25
5.84
0.34
-4.81
-9.39
-13.45
-17.34
-21.51
-26.43
-32.32
-39.09
-46.27
-53.07
-58.44
-61.35
-60.96
-56.90
-49.40
-39.22
-27.44
-15.20
-3.39
7.39
16.81
24.64
30.71
34.91
37.29
38.16
38.05
37.57
37.17
36.99
36.86
36.48
35.61
34.24
32.54
30.77
29.07
27.37
25.45
23.03
19.93
16.12
11.69
6.83
1.76
-3.35
-8.33
-13.03
-17.36
-21.36
-25.17
-29.07
-33.31
-38.03
-43.13
-48.15
-52.37
-54.90
-54.92
-51.93
-45.84
-37.10
-26.51
-15.10
-3.89
6.29
14.90
21.69
26.61
29.81
31.54
32.16
32.09
31.74
31.43
31.30
31.31
31.23
30.76
29.69
27.98
25.72
23.12
20.31
17.30
14.00
10.33
6.30
2.06
-2.10
-5.95
-9.36
-12.44
-15.50
-18.95
-23.17
-28.40
-34.65
-41.61
-48.64
-54.81
-59.08
-60.47
-58.37
-52.70
-43.94
-33.00
-21.01
-9.00
2.28
12.39
21.08
28.21
33.66
37.37
39.42
40.08
39.78
38.99
38.08
37.27
36.55
35.77
34.72
33.26
31.34
29.04
26.57
24.13
21.83
19.57
17.08
14.04
10.28
5.89
1.20
-3.32
-7.34
-10.78
-13.91
-17.17
-21.07
-25.93
-31.82
-38.58
-45.85
-53.14
-59.82
-65.05
-67.95
-67.67
-63.74
-56.20
-45.73
-33.46
-20.61
-8.23
3.05
12.95
21.39
28.33
33.69
37.42
39.60
40.53
40.65
40.45
40.26
40.18
40.12
39.89
39.39
38.56
37.45
36.13
34.58
32.77
30.61
28.05
25.11
21.82
18.19
14.26
10.03
5.56
0.98
-3.58
-7.96
-12.13
-16.13
-20.15
-24.40
-29.16
-34.60
-40.80
-47.55
-54.36
-60.42
-64.71
-66.24
-64.32
-58.86
-50.36
-39.79
-28.29
-16.80
-5.93
4.03
12.99
20.80
27.23
32.06
35.19
36.77
37.22
37.02
36.63
36.27
36.00
35.73
35.32
34.66
33.69
32.38
30.72
28.74
26.50
24.00
21.26
18.23
14.86
11.10
7.02
2.77
-1.42
-5.35
-8.94
-12.23
-15.39
-18.59
-21.97
-25.71
-29.92
-34.71
-40.12
-45.88
-51.32
-55.44
-57.08
-55.36
-50.03
-41.60
-31.16
-20.04
-9.37
0.12
8.14
14.65
19.70
23.34
25.68
26.95
27.54
27.86
28.25
28.82
29.42
29.77
29.61
28.79
27.42
25.68
23.78
21.79
19.62
17.07
13.92
10.05
5.58
0.77
-4.06
-8.61
-12.73
-16.42
-19.83
-23.16
-26.74
-30.87
-35.75
-41.34
-47.15
-52.25
-55.45
-55.62
-52.20
-45.35
-35.98
-25.38
-14.75
-4.90
3.89
11.63
18.38
24.09
28.54
31.54
33.10
33.47
33.09
32.38
31.69
31.09
30.55
29.92
29.06
27.88
26.31
24.40
22.22
19.89
17.49
15.02
12.33
9.25
5.63
1.48
-3.03
-7.56
-11.83
-15.67
-19.16
-22.58
-26.35
-30.86
-36.36
-42.70
-49.35
-55.38
-59.64
-61.04
-58.93
-53.28
-44.71
-34.30
-23.18
-12.32
-2.25
6.76
14.60
21.18
26.35
29.98
32.10
32.96
32.97
32.61
32.22
31.90
31.56
31.01
30.17
29.08
27.93
26.89
25.96
24.93
23.45
21.16
17.92
13.79
9.08
4.21
-0.45
-4.61
-8.17
-11.21
-13.94
-16.77
-20.11
-24.34
-29.66
-35.88
-42.47
-48.53
-52.97
-54.84
-53.52
-48.92
-41.51
-32.13
-21.75
-11.28
-1.41
7.43
14.95
20.98
25.42
28.29
29.75
30.14
29.89
29.36
28.83
28.36
27.89
27.33
26.64
25.86
25.06
24.28
23.46
22.42
20.93
18.83
16.05
12.67
8.86
4.80
0.68
-3.43
-7.45
-11.38
-15.25
-19.19
-23.36
-27.98
-33.12
-38.63
-44.00
-48.45
-51.05
-51.06
-48.08
-42.28
-34.26
-24.93
-15.19
-5.78
2.82
10.35
16.63
21.53
24.90
26.75
27.28
26.87
26.05
25.24
24.67
24.32
24.04
23.63
22.99
22.03
20.66
18.71
16.06
12.68
8.73
4.53
0.45
-3.25
-6.51
-9.49
-12.46
-15.68
-19.42
-23.84
-29.01
-34.76
-40.67
-45.97
-49.70
-50.87
-48.81
-43.44
-35.32
-25.45
-14.98
-4.91
4.15
11.95
18.48
23.76
27.78
30.48
31.86
32.09
31.48
30.44
29.29
28.21
27.20
26.17
25.07
23.85
22.49
20.93
19.04
16.61
13.46
9.56
5.04
0.19
-4.60
-9.04
-12.99
-16.50
-19.90
-23.58
-27.95
-33.22
-39.33
-45.83
-51.99
-56.86
-59.51
-59.23
-55.74
-49.22
-40.32
-29.94
-18.99
-8.17
2.07
11.52
20.09
27.58
33.72
38.24
41.02
42.17
42.06
41.17
39.90
38.50
37.03
35.46
33.78
32.04
30.37
28.88
27.52
26.10
24.32
21.85
18.51
14.32
9.57
4.67
-0.02
-4.32
-8.35
-12.41
-16.86
-21.99
-27.84
-34.23
-40.70
-46.58
-50.99
-53.04
-51.99
-47.58
-40.14
-30.55
-19.98
-9.47
0.25
8.90
16.42
22.74
27.71
31.17
33.12
33.86
33.86
33.66
33.56
33.61
33.61
33.32
32.57
31.35
29.73
27.78
25.49
22.77
19.48
15.57
11.16
6.53
2.07
-1.94
-5.37
-8.40
-11.32
-14.49
-18.16
-22.46
-27.40
-32.85
-38.51
-43.84
-48.04
-50.22
-49.63
-45.94
-39.40
-30.76
-20.97
-10.93
-1.26
7.67
15.59
22.23
27.34
30.71
32.37
32.62
31.97
30.97
30.04
29.37
28.93
28.57
28.12
27.40
26.27
24.60
22.28
19.27
15.65
11.59
7.29
2.94
-1.33
-5.50
-9.56
-13.55
-17.57
-21.75
-26.32
-31.46
-37.14
-42.99
-48.22
-51.79
-52.69
-50.30
-44.66
-36.39
-26.55
-16.18
-6.13
3.16
11.55
18.99
25.44
30.71
34.60
37.03
38.09
38.05
37.28
36.10
34.71
33.18
31.50
29.65
27.64
25.58
23.48
21.34
19.05
16.41
13.27
9.62
5.57
1.40
-2.60
-6.24
-9.51
-12.64
-16.02
-20.08
-25.12
-31.18
-37.93
-44.62
-50.25
-53.71
-54.12
-51.11
-44.91
-36.27
-26.26
-15.84
-5.72
3.74
12.43
20.25
27.02
32.45
36.34
38.62
39.49
39.36
38.63
37.64
36.54
35.35
33.99
32.44
30.69
28.74
26.57
24.09
21.18
17.74
13.76
9.36
4.82
0.39
-3.68
-7.28
-10.43
-13.33
-16.27
-19.63
-23.77
-28.89
-34.90
-41.33
-47.30
-51.71
-53.56
-52.23
-47.71
-40.57
-31.74
-22.18
-12.66
-3.64
4.68
12.13
18.55
23.71
27.42
29.68
30.70
30.85
30.53
30.08
29.61
29.04
28.20
26.98
25.39
23.58
21.78
20.08
18.40
16.47
13.97
10.73
6.82
2.54
-1.74
-5.71
-9.24
-12.40
-15.36
-18.33
-21.50
-25.09
-29.20
-33.81
-38.55
-42.71
-45.35
-45.59
-42.89
-37.27
-29.34
-20.08
-10.59
-1.78
5.73
11.64
15.90
18.61
20.00
20.38
20.12
19.61
19.18
19.02
19.15
19.41
19.54
19.32
18.63
17.43
15.76
13.69
11.21
8.31
5.01
1.42
-2.24
-5.77
-9.05
-12.10
-15.10
-18.33
-22.10
-26.58
-31.78
-37.38
-42.72
-46.86
-48.83
-47.83
-43.59
-36.48
-27.38
-17.41
-7.61
1.31
9.00
15.32
20.21
23.58
25.45
25.97
25.56
24.77
24.15
24.01
24.32
24.73
24.80
24.24
22.99
21.27
19.36
17.43
15.40
12.99
9.90
6.02
1.46
-3.37
-8.06
-12.27
-15.90
-19.03
-21.96
-25.03
-28.62
-33.06
-38.52
-44.89
-51.69
-58.07
-62.90
-65.07
-63.80
-58.90
-50.86
-40.64
-29.37
-17.98
-7.05
3.17
12.61
21.09
28.37
34.10
38.07
40.27
40.99
40.68
39.81
38.83
37.98
37.37
36.91
36.46
35.79
34.77
33.29
31.42
29.24
26.81
24.09
20.98
17.33
13.11
8.42
3.48
-1.35
-5.79
-9.69
-13.14
-16.44
-20.02
-24.30
-29.55
-35.76
-42.63
-49.54
-55.68
-60.08
-61.85
-60.35
-55.38
-47.22
-36.65
-24.77
-12.67
-1.28
8.86
17.51
24.67
30.46
34.91
38.08
40.01
40.82
40.78
40.28
39.73
39.40
39.35
39.41
39.28
38.63
37.32
35.37
32.93
30.19
27.27
24.18
20.84
17.14
12.99
8.42
3.54
-1.46
-6.31
-10.83
-14.88
-18.49
-21.79
-25.03
-28.52
-32.55
-37.30
-42.72
-48.41
-53.61
-57.26
-58.32
-56.04
-50.26
-41.45
-30.60
-18.86
-7.32
3.31
12.59
20.29
26.25
30.35
32.59
33.17
32.52
31.18
29.70
28.45
27.58
27.05
26.73
26.52
26.31
26.03
25.61
24.95
23.92
22.35
20.11
17.11
13.34
8.95
4.21
-0.56
-5.04
-9.03
-12.54
-15.78
-19.11
-22.94
-27.54
-32.96
-38.89
-44.62
-49.17
-51.48
-50.64
-46.26
-38.55
-28.38
-17.01
-5.69
4.60
13.43
20.73
26.61
31.09
34.08
35.51
35.52
34.51
33.13
31.96
31.30
31.10
31.00
30.62
29.64
28.06
25.99
23.68
21.25
18.70
15.91
12.71
9.05
4.98
0.70
-3.58
-7.64
-11.39
-14.91
-18.33
-21.86
-25.70
-30.02
-34.94
-40.49
-46.49
-52.47
-57.66
-61.11
-61.89
-59.42
-53.62
-44.98
-34.40
-22.90
-11.43
-0.65
9.09
17.57
24.64
30.14
33.96
36.15
36.92
36.69
35.96
35.13
34.42
33.82
33.15
32.23
30.99
29.49
27.90
26.37
24.91
23.37
21.45
18.88
15.54
11.49
7.03
2.52
-1.69
-5.46
-8.82
-12.02
-15.38
-19.29
-24.04
-29.77
-36.29
-43.05
-49.18
-53.59
-55.30
-53.65
-48.55
-40.44
-30.21
-18.95
-7.70
2.76
11.92
19.58
25.67
30.24
33.34
35.09
35.65
35.29
34.36
33.24
32.21
31.38
30.69
29.93
28.91
27.49
25.72
23.72
21.62
19.49
17.26
14.76
11.79
8.26
4.24
-0.03
-4.25
-8.13
-11.60
-14.81
-18.12
-21.93
-26.56
-32.04
-38.08
-44.06
-49.12
-52.29
-52.75
-50.07
-44.31
-36.07
-26.27
-16.01
-6.16
2.64
10.07
15.97
20.31
23.13
24.55
24.86
24.45
23.71
22.95
22.32
21.82
21.37
20.86
20.23
19.43
18.41
17.06
15.26
12.87
9.85
6.24
2.20
-1.99
-6.07
-9.83
-13.20
-16.28
-19.32
-22.61
-26.42
-30.77
-35.43
-39.82
-43.14
-44.48
-43.10
-38.70
-31.53
-22.41
-12.47
-2.89
5.47
12.13
17.05
20.41
22.48
23.51
23.69
23.25
22.43
21.52
20.72
20.14
19.73
19.31
18.66
17.60
16.05
14.04
11.66
8.95
5.96
2.69
-0.81
-4.48
-8.20
-11.89
-15.54
-19.27
-23.25
-27.66
-32.58
-37.90
-43.26
-48.06
-51.52
-52.87
-51.53
-47.30
-40.45
-31.68
-21.91
-12.01
-2.61
5.91
13.38
19.69
24.74
28.42
30.76
31.91
32.21
32.00
31.58
31.06
30.43
29.60
28.49
27.08
25.43
23.58
21.55
19.28
16.69
13.68
10.25
6.51
2.67
-1.00
-4.34
-7.34
-10.24
-13.42
-17.29
-22.09
-27.85
-34.22
-40.59
-46.05
-49.66
-50.60
-48.41
-43.15
-35.40
-26.08
-16.17
-6.48
2.51
10.60
17.70
23.71
28.50
31.90
33.91
34.70
34.62
34.06
33.35
32.62
31.84
30.87
29.59
27.97
26.08
23.99
21.74
19.26
16.40
13.05
9.21
5.05
0.88
-3.00
-6.43
-9.45
-12.32
-15.40
-19.00
-23.28
-28.20
-33.47
-38.55
-42.76
-45.31
-45.49
-42.91
-37.62
-30.13
-21.31
-12.14
-3.44
4.22
10.57
15.56
19.18
21.51
22.72
23.04
22.83
22.40
22.01
21.74
21.53
21.26
20.84
20.20
19.31
18.14
16.58
14.54
11.96
8.89
5.53
2.14
-1.00
-3.75
-6.12
-8.29
-10.58
-13.31
-16.73
-20.96
-25.88
-31.13
-36.09
-39.93
-41.80
-41.01
-37.29
-30.90
-22.53
-13.16
-3.74
4.96
12.50
18.68
23.45
26.83
28.90
29.80
29.81
29.28
28.56
27.92
27.43
27.02
26.48
25.64
24.39
22.77
20.85
18.70
16.33
13.65
10.59
7.14
3.43
-0.29
-3.74
-6.70
-9.11
-11.11
-13.01
-15.25
-18.26
-22.39
-27.76
-34.22
-41.25
-48.05
-53.59
-56.86
-57.07
-53.87
-47.52
-38.73
-28.52
-17.87
-7.52
2.12
10.83
18.47
24.89
29.91
33.37
35.30
35.91
35.57
34.72
33.75
32.90
32.27
31.80
31.35
30.75
29.86
28.61
26.97
25.02
22.80
20.38
17.84
15.20
12.40
9.36
5.98
2.25
-1.71
-5.69
-9.49
-12.98
-16.21
-19.40
-22.80
-26.66
-31.12
-36.25
-41.93
-47.85
-53.40
-57.74
-59.88
-59.01
-54.79
-47.51
-37.97
-27.27
-16.38
-5.97
3.61
12.23
19.75
25.93
30.59
33.69
35.41
36.13
36.24
36.05
35.68
35.17
34.55
33.87
33.20
32.50
31.68
30.58
29.08
27.20
25.04
22.73
20.39
18.01
15.52
12.75
9.59
5.97
1.95
-2.30
-6.57
-10.61
-14.28
-17.56
-20.57
-23.58
-26.92
-30.83
-35.47
-40.76
-46.30
-51.45
-55.31
-56.93
-55.61
-51.08
-43.61
-34.00
-23.37
-12.81
-3.20
5.03
11.81
17.32
21.73
25.19
27.77
29.52
30.58
31.15
31.42
31.54
31.53
31.35
30.95
30.34
29.56
28.67
27.65
26.43
24.92
23.09
20.99
18.72
16.30
13.72
10.87
7.67
4.12
0.37
-3.37
-6.91
-10.16
-13.18
-16.13
-19.19
-22.54
-26.33
-30.67
-35.61
-41.04
-46.56
-51.44
-54.70
-55.35
-52.76
-46.82
-38.08
-27.56
-16.45
-5.83
3.57
11.38
17.52
22.06
25.15
26.95
27.70
27.69
27.27
26.79
26.51
26.56
26.87
27.23
27.37
27.09
26.28
25.03
23.49
21.84
20.15
18.38
16.42
14.03
11.09
7.57
3.57
-0.69
-4.93
-8.96
-12.70
-16.19
-19.61
-23.14
-26.97
-31.28
-36.17
-41.67
-47.60
-53.45
-58.42
-61.57
-62.03
-59.38
-53.72
-45.71
-36.30
-26.40
-16.71
-7.60
0.79
8.39
15.09
20.73
25.18
28.40
30.50
31.72
32.34
32.62
32.76
32.84
32.84
32.70
32.30
31.51
30.28
28.64
26.65
24.40
21.95
19.34
16.53
13.44
10.01
6.23
2.12
-2.16
-6.45
-10.56
-14.41
-18.01
-21.52
-25.14
-29.12
-33.67
-38.93
-44.89
-51.25
-57.34
-62.20
-64.69
-63.89
-59.39
-51.49
-41.13
-29.57
-18.01
-7.27
2.29
10.70
18.08
24.49
29.85
33.99
36.78
38.26
38.69
38.44
37.94
37.49
37.22
37.08
36.93
36.54
35.76
34.50
32.74
30.56
28.06
25.33
22.47
19.52
16.45
13.19
9.66
5.80
1.62
-2.72
-7.04
-11.18
-15.09
-18.95
-23.06
-27.72
-33.12
-39.13
-45.32
-50.97
-55.24
-57.35
-56.76
-53.29
-47.12
-38.77
-28.94
-18.39
-7.81
2.19
11.18
18.83
24.95
29.46
32.37
33.84
34.11
33.51
32.44
31.31
30.42
29.97
29.88
29.92
29.76
29.14
27.98
26.40
24.57
22.60
20.40
17.74
14.41
10.37
5.79
1.07
-3.38
-7.32
-10.71
-13.79
-16.92
-20.53
-24.95
-30.33
-36.52
-43.01
-48.94
-53.19
-54.71
-52.83
-47.48
-39.27
-29.25
-18.55
-8.07
1.60
10.23
17.64
23.63
27.99
30.58
31.52
31.23
30.38
29.57
29.21
29.34
29.71
29.97
29.84
29.21
28.14
26.72
24.96
22.77
19.96
16.39
12.04
7.06
1.72
-3.64
-8.75
-13.39
-17.54
-21.27
-24.88
-28.80
-33.47
-39.15
-45.68
-52.34
-57.99
-61.30
-61.20
-57.28
-49.87
-39.98
-28.89
-17.77
-7.34
2.12
10.68
18.43
25.31
31.08
35.45
38.30
39.75
40.19
40.06
39.68
39.19
38.54
37.63
36.41
34.91
33.25
31.55
29.89
28.21
26.35
24.07
21.09
17.27
12.64
7.43
2.09
-2.97
-7.43
-11.26
-14.67
-18.07
-21.91
-26.53
-32.10
-38.55
-45.50
-52.19
-57.60
-60.62
-60.35
-56.42
-49.08
-39.19
-27.91
-16.38
-5.49
4.33
12.94
20.41
26.76
31.97
35.98
38.76
40.37
41.01
40.96
40.58
40.13
39.79
39.54
39.23
38.68
37.75
36.38
34.64
32.65
30.50
28.22
25.71
22.82
19.45
15.57
11.23
6.60
1.85
-2.90
-7.54
-12.02
-16.35
-20.61
-25.02
-29.82
-35.26
-41.40
-47.90
-53.96
-58.49
-60.33
-58.67
-53.32
-44.80
-34.19
-22.75
-11.59
-1.42
7.48
15.09
21.49
26.70
30.69
33.42
35.01
35.70
35.81
35.63
35.37
35.12
34.95
34.85
34.77
34.62
34.20
33.32
31.89
29.93
27.58
24.94
22.09
19.03
15.75
12.29
8.70
5.06
1.39
-2.35
-6.15
-9.94
-13.60
-17.05
-20.41
-23.98
-28.18
-33.31
-39.32
-45.73
-51.65
-55.96
-57.65
-56.01
-50.89
-42.74
-32.45
-21.19
-10.06
0.11
8.84
15.95
21.45
25.45
28.07
29.48
29.94
29.76
29.30
28.88
28.65
28.64
28.69
28.60
28.10
27.07
25.48
23.43
21.11
18.63
15.96
12.95
9.41
5.30
0.79
-3.72
-7.79
-11.17
-13.95
-16.58
-19.67
-23.74
-29.06
-35.48
-42.51
-49.42
-55.33
-59.33
-60.60
-58.64
-53.34
-45.14
-34.93
-23.84
-13.00
-3.15
5.33
12.51
18.55
23.63
27.75
30.78
32.61
33.32
33.20
32.69
32.22
32.02
31.98
31.83
31.21
29.95
28.11
25.94
23.73
21.62
19.52
17.14
14.18
10.41
5.90
0.97
-3.93
-8.35
-12.09
-15.26
-18.28
-21.65
-25.81
-30.97
-37.03
-43.55
-49.88
-55.15
-58.43
-58.92
-56.16
-50.22
-41.76
-31.74
-21.23
-11.01
-1.53
7.11
14.89
21.81
27.71
32.46
35.96
38.28
39.59
40.14
40.15
39.78
39.12
38.21
37.03
35.59
33.90
32.00
29.95
27.81
25.62
23.38
21.03
18.50
15.63
12.32
8.52
4.27
-0.28
-4.88
-9.32
-13.44
-17.22
-20.70
-24.04
-27.42
-31.03
-35.07
-39.69
-44.79
-50.04
-54.70
-57.83
-58.51
-56.08
-50.47
-42.16
-32.07
-21.31
-10.84
-1.32
6.97
14.00
19.83
24.45
27.77
29.73
30.45
30.26
29.68
29.17
29.03
29.20
29.41
29.31
28.71
27.58
26.04
24.27
22.34
20.27
18.00
15.48
12.71
9.70
6.50
3.14
-0.32
-3.82
-7.30
-10.75
-14.22
-17.79
-21.63
-25.87
-30.60
-35.75
-41.02
-45.87
-49.54
-51.26
-50.39
-46.62
-40.14
-31.58
-21.87
-11.96
-2.63
5.59
12.43
17.78
21.57
23.85
24.69
24.41
23.44
22.29
21.37
20.86
20.66
20.52
20.16
19.44
18.37
17.04
15.49
13.67
11.43
8.67
5.34
1.61
-2.28
-6.09
-9.66
-13.02
-16.30
-19.73
-23.53
-27.88
-32.85
-38.35
-44.04
-49.28
-53.24
-54.97
-53.76
-49.33
-41.99
-32.49
-21.85
-11.03
-0.72
8.65
16.84
23.65
28.86
32.32
34.07
34.42
33.91
33.14
32.54
32.25
32.12
31.82
31.04
29.68
27.83
25.70
23.44
21.09
18.46
15.34
11.62
7.39
2.92
-1.41
-5.32
-8.78
-12.00
-15.37
-19.27
-24.00
-29.61
-35.94
-42.55
-48.68
-53.41
-55.76
-55.01
-50.92
-43.88
-34.76
-24.61
-14.38
-4.64
4.36
12.51
19.64
25.52
29.85
32.57
33.88
34.25
34.26
34.35
34.69
35.14
35.40
35.19
34.35
32.90
31.00
28.83
26.46
23.89
21.04
17.78
14.08
10.03
5.80
1.54
-2.65
-6.82
-11.14
-15.81
-21.06
-26.99
-33.52
-40.27
-46.56
-51.51
-54.23
-54.07
-50.79
-44.65
-36.32
-26.64
-16.48
-6.52
2.73
10.96
17.93
23.51
27.67
30.48
32.10
32.79
32.80
32.38
31.67
30.78
29.78
28.66
27.45
26.14
24.65
22.87
20.70
18.07
15.01
11.65
8.13
4.59
1.08
-2.50
-6.30
-10.50
-15.26
-20.64
-26.51
-32.62
-38.44
-43.20
-46.03
-46.13
-43.04
-36.87
-28.30
-18.44
-8.50
0.58
8.23
14.26
18.70
21.60
23.02
23.08
22.07
20.44
18.77
17.56
17.05
17.18
17.61
17.87
17.51
16.31
14.24
11.48
8.31
4.99
1.73
-1.39
-4.39
-7.37
-10.50
-14.04
-18.22
-23.21
-28.92
-34.87
-40.25
-44.00
-45.16
-43.14
-37.93
-30.11
-20.67
-10.69
-1.07
7.61
15.07
21.23
26.03
29.44
31.47
32.23
32.02
31.25
30.32
29.54
29.00
28.59
28.05
27.08
25.41
22.90
19.58
15.63
11.37
7.14
3.21
-0.34
-3.66
-7.04
-10.82
-15.23
-20.39
-26.22
-32.48
-38.78
-44.54
-49.00
-51.34
-50.84
-47.13
-40.38
-31.22
-20.62
-9.60
1.06
10.88
19.65
27.26
33.59
38.43
41.59
43.04
42.97
41.80
40.06
38.22
36.59
35.23
34.09
33.06
31.97
30.67
28.95
26.61
23.47
19.50
14.83
9.70
4.40
-0.82
-5.87
-10.69
-15.36
-20.01
-24.83
-30.06
-35.73
-41.59
-47.01
-51.01
-52.57
-50.99
-46.11
-38.40
-28.77
-18.21
-7.57
2.62
12.00
20.35
27.37
32.76
36.37
38.26
38.72
38.20
37.16
35.93
34.65
33.36
32.05
30.71
29.34
27.90
26.25
24.23
21.64
18.38
14.46
10.06
5.43
0.80
-3.64
-7.82
-11.82
-15.81
-20.05
-24.77
-30.05
-35.70
-41.20
-45.67
-48.09
-47.60
-43.83
-37.04
-28.08
-18.11
-8.25
0.72
8.43
14.83
19.95
23.80
26.32
27.45
27.30
26.19
24.57
22.91
21.55
20.67
20.24
20.07
19.89
19.42
18.42
16.76
14.38
11.33
7.76
3.87
-0.15
-4.16
-8.12
-12.13
-16.39
-21.12
-26.44
-32.18
-37.88
-42.69
-45.64
-45.86
-42.84
-36.67
-27.97
-17.76
-7.19
2.76
11.41
18.39
23.61
27.10
28.96
29.39
28.69
27.25
25.51
23.86
22.52
21.52
20.69
19.77
18.49
16.66
14.26
11.34
8.05
4.55
0.97
-2.58
-6.06
-9.55
-13.22
-17.28
-21.92
-27.23
-33.09
-39.13
-44.81
-49.36
-52.01
-52.11
-49.24
-43.46
-35.24
-25.44
-15.06
-5.01
4.12
12.04
18.77
24.35
28.79
32.00
33.89
34.48
33.97
32.74
31.16
29.52
27.96
26.44
24.90
23.27
21.54
19.65
17.57
15.16
12.34
9.04
5.31
1.29
-2.88
-7.12
-11.43
-15.92
-20.78
-26.14
-31.93
-37.79
-43.00
-46.64
-47.83
-46.02
-41.14
-33.69
-24.53
-14.62
-4.83
4.24
12.27
19.02
24.35
28.17
30.46
31.36
31.10
30.03
28.53
26.89
25.31
23.85
22.51
21.21
19.85
18.35
16.66
14.76
12.66
10.34
7.81
5.02
1.98
-1.33
-4.88
-8.63
-12.61
-16.87
-21.56
-26.77
-32.39
-37.97
-42.69
-45.52
-45.53
-42.26
-35.88
-27.20
-17.34
-7.41
1.75
9.70
16.27
21.41
25.12
27.45
28.57
28.76
28.41
27.80
27.08
26.23
25.16
23.84
22.33
20.77
19.26
17.77
16.10
13.99
11.28
7.92
4.11
0.11
-3.81
-7.52
-11.01
-14.40
-17.86
-21.54
-25.55
-29.91
-34.41
-38.61
-41.79
-43.07
-41.71
-37.38
-30.35
-21.45
-11.87
-2.76
5.00
11.02
15.26
17.98
19.46
19.96
19.67
18.79
17.54
16.22
15.11
14.42
14.13
14.07
13.92
13.39
12.24
10.43
8.06
5.29
2.29
-0.79
-3.89
-6.97
-10.07
-13.31
-16.82
-20.74
-25.07
-29.58
-33.76
-36.87
-38.16
-37.04
-33.36
-27.42
-19.92
-11.74
-3.73
3.46
9.42
13.93
16.93
18.48
18.80
18.24
17.20
16.11
15.26
14.84
14.85
15.17
15.59
15.82
15.50
14.33
12.15
9.06
5.35
1.44
-2.29
-5.69
-8.82
-11.93
-15.34
-19.29
-23.90
-29.15
-34.84
-40.55
-45.66
-49.32
-50.65
-48.95
-43.96
-36.04
-26.06
-15.20
-4.59
4.91
12.85
19.14
23.82
27.04
28.95
29.76
29.76
29.27
28.52
27.66
26.64
25.37
23.80
22.01
20.20
18.62
17.46
16.66
15.95
14.93
13.17
10.41
6.69
2.25
-2.44
-7.00
-11.15
-14.85
-18.29
-21.79
-25.75
-30.45
-35.99
-42.07
-47.99
-52.71
-55.10
-54.27
-49.91
-42.34
-32.50
-21.56
-10.63
-0.52
8.36
15.89
22.09
26.99
30.65
33.10
34.42
34.87
34.79
34.50
34.21
33.93
33.43
32.45
30.76
28.37
25.54
22.59
19.81
17.32
15.00
12.62
9.95
6.85
3.35
-0.37
-4.04
-7.41
-10.35
-12.95
-15.51
-18.42
-22.06
-26.60
-31.98
-37.82
-43.50
-48.21
-51.09
-51.40
-48.69
-43.01
-34.94
-25.45
-15.57
-6.18
2.26
9.56
15.72
20.69
24.32
26.51
27.32
27.07
26.31
25.57
25.23
25.29
25.52
25.56
25.16
24.28
23.02
21.57
20.02
18.38
16.56
14.44
11.97
9.18
6.14
3.01
-0.09
-3.03
-5.72
-8.17
-10.48
-12.91
-15.73
-19.20
-23.47
-28.43
-33.72
-38.71
-42.59
-44.57
-44.00
-40.68
-34.83
-27.12
-18.44
-9.66
-1.50
5.61
11.42
15.86
18.96
20.85
21.77
22.10
22.19
22.30
22.53
22.78
22.87
22.64
22.06
21.22
20.24
19.19
18.03
16.58
14.67
12.10
8.89
5.15
1.13
-2.91
-6.73
-10.23
-13.39
-16.38
-19.46
-23.00
-27.24
-32.21
-37.55
-42.42
-45.74
-46.45
-43.96
-38.38
-30.50
-21.50
-12.51
-4.30
2.84
8.91
14.06
18.33
21.74
24.29
26.11
27.44
28.49
29.34
29.92
30.05
29.58
28.49
26.88
24.98
22.96
20.99
19.09
17.19
15.10
12.64
9.65
6.12
2.23
-1.69
-5.32
-8.46
-11.16
-13.69
-16.42
-19.70
-23.78
-28.71
-34.45
-40.61
-46.62
-51.59
-54.54
-54.70
-51.70
-45.77
-37.64
-28.28
-18.59
-9.16
-0.28
7.91
15.25
21.53
26.49
29.96
32.00
32.93
33.17
33.15
33.09
33.04
32.87
32.40
31.51
30.19
28.53
26.67
24.76
22.89
21.02
19.04
16.73
13.92
10.55
6.69
2.55
-1.57
-5.45
-8.99
-12.26
-15.47
-18.92
-22.87
-27.54
-32.91
-38.70
-44.32
-48.91
-51.51
-51.32
-48.00
-41.79
-33.48
-24.16
-14.89
-6.40
0.96
7.18
12.34
16.46
19.53
21.51
22.55
23.00
23.29
23.78
24.59
25.55
26.29
26.48
25.97
24.82
23.27
21.53
19.66
17.56
15.06
12.03
8.54
4.77
1.00
-2.54
-5.81
-8.89
-12.00
-15.34
-19.10
-23.34
-27.99
-32.80
-37.25
-40.62
-42.10
-40.99
-37.04
-30.55
-22.26
-13.21
-4.32
3.75
10.63
16.17
20.30
22.98
24.27
24.41
23.80
22.94
22.20
21.75
21.54
21.37
20.99
20.27
19.14
17.60
15.65
13.31
10.56
7.44
4.01
0.41
-3.18
-6.54
-9.54
-12.11
-14.40
-16.70
-19.39
-22.84
-27.23
-32.52
-38.32
-44.01
-48.75
-51.65
-52.01
-49.42
-44.00
-36.28
-27.11
-17.41
-7.93
0.81
8.56
15.16
20.54
24.61
27.38
28.99
29.71
29.87
29.73
29.46
29.10
28.61
27.94
27.08
26.01
24.76
23.32
21.68
19.78
17.54
14.90
11.78
8.20
4.25
0.11
-4.01
-7.93
-11.58
-15.12
-18.91
-23.36
-28.76
-35.03
-41.53
-47.23
-50.90
-51.54
-48.74
-42.76
-34.41
-24.72
-14.63
-4.86
4.15
12.12
18.83
24.13
27.98
30.48
31.90
32.58
32.92
33.25
33.77
34.47
35.18
35.63
35.55
34.88
33.72
32.29
30.80
29.29
27.57
25.34
22.36
18.51
13.95
8.98
4.02
-0.65
-4.89
-8.76
-12.43
-16.14
-20.09
-24.46
-29.35
-34.77
-40.49
-45.98
-50.41
-52.83
-52.43
-48.86
-42.38
-33.76
-24.11
-14.45
-5.55
2.18
8.64
13.87
17.97
21.03
23.12
24.37
24.95
25.14
25.20
25.33
25.56
25.76
25.69
25.11
23.97
22.34
20.36
18.12
15.56
12.52
8.86
4.63
0.10
-4.30
-8.20
-11.42
-14.10
-16.64
-19.46
-22.93
-27.12
-31.79
-36.47
-40.53
-43.31
-44.24
-42.92
-39.22
-33.27
-25.52
-16.62
-7.38
1.44
9.24
15.65
20.55
24.03
26.28
27.52
27.97
27.86
27.46
26.98
26.53
26.04
25.31
24.14
22.43
20.30
17.98
15.71
13.57
11.42
8.99
5.99
2.36
-1.82
-6.30
-10.84
-15.24
-19.49
-23.73
-28.14
-32.98
-38.42
-44.41
-50.61
-56.34
-60.66
-62.61
-61.48
-56.99
-49.49
-39.73
-28.72
-17.40
-6.51
3.55
12.49
20.12
26.24
30.72
33.64
35.30
36.21
36.85
37.46
38.02
38.28
37.97
36.92
35.20
33.03
30.64
28.20
25.77
23.33
20.80
18.03
14.89
11.35
7.49
3.49
-0.41
-4.06
-7.43
-10.68
-14.08
-17.97
-22.61
-28.14
-34.39
-40.81
-46.53
-50.45
-51.60
-49.40
-43.89
-35.66
-25.69
-14.96
-4.23
5.98
15.34
23.56
30.32
35.37
38.62
40.24
40.71
40.59
40.34
40.19
40.08
39.76
39.01
37.71
35.88
33.66
31.16
28.40
25.37
22.01
18.28
14.25
10.00
5.71
1.54
-2.38
-6.01
-9.41
-12.77
-16.37
-20.50
-25.38
-30.99
-37.00
-42.70
-47.15
-49.32
-48.44
-44.23
-36.99
-27.53
-16.88
-6.09
4.08
13.12
20.68
26.56
30.61
32.85
33.47
32.87
31.53
29.89
28.25
26.74
25.37
24.08
22.80
21.52
20.21
18.83
17.31
15.55
13.43
10.85
7.85
4.57
1.22
-2.00
-5.07
-8.21
-11.81
-16.28
-21.79
-28.12
-34.57
-40.19
-43.93
-45.01
-43.00
-38.03
-30.67
-21.81
-12.44
-3.52
4.30
10.64
15.39
18.60
20.38
20.89
20.35
19.11
17.62
16.33
15.62
15.56
15.89
16.10
15.65
14.17
11.60
8.21
4.43
0.69
-2.78
-5.92
-8.87
-11.86
-15.15
-19.00
-23.62
-29.06
-35.06
-40.98
-45.85
-48.58
-48.30
-44.63
-37.82
-28.68
-18.25
-7.60
2.45
11.39
18.93
24.98
29.48
32.41
33.84
33.89
32.85
31.09
29.04
27.09
25.50
24.28
23.28
22.21
20.76
18.74
16.12
13.00
9.53
5.86
2.11
-1.70
-5.57
-9.61
-13.99
-18.92
-24.58
-30.97
-37.77
-44.30
-49.63
-52.72
-52.79
-49.49
-43.04
-34.14
-23.78
-12.91
-2.33
7.43
16.03
23.22
28.88
32.90
35.38
36.51
36.62
36.07
35.09
33.86
32.44
30.92
29.44
28.10
26.94
25.81
24.44
22.46
19.69
16.09
11.88
7.49
3.29
-0.47
-3.81
-6.95
-10.31
-14.30
-19.23
-25.17
-31.78
-38.35
-43.84
-47.08
-47.11
-43.49
-36.47
-26.93
-16.12
-5.23
4.87
13.71
21.16
27.18
31.72
34.74
36.31
36.69
36.33
35.69
35.10
34.61
34.05
33.20
31.94
30.32
28.45
26.43
24.17
21.49
18.19
14.16
9.54
4.60
-0.32
-4.92
-9.04
-12.72
-16.12
-19.54
-23.32
-27.71
-32.78
-38.31
-43.70
-48.10
-50.50
-50.10
-46.50
-39.90
-31.00
-20.84
-10.48
-0.79
7.69
14.70
20.16
24.01
26.33
27.27
27.14
26.35
25.33
24.38
23.65
23.10
22.61
22.02
21.24
20.12
18.56
16.47
13.84
10.79
7.56
4.39
1.42
-1.39
-4.22
-7.34
-10.92
-15.08
-19.78
-24.91
-30.22
-35.31
-39.52
-42.02
-42.00
-38.95
-32.87
-24.41
-14.66
-4.79
4.20
11.76
17.69
22.04
24.94
26.50
26.86
26.29
25.18
24.00
23.08
22.58
22.37
22.23
21.87
21.07
19.74
17.83
15.36
12.33
8.77
4.73
0.38
-4.08
-8.38
-12.31
-15.74
-18.77
-21.69
-24.96
-29.01
-34.07
-39.96
-45.94
-50.92
-53.69
-53.29
-49.38
-42.31
-32.98
-22.53
-11.93
-1.87
7.35
15.59
22.72
28.58
33.00
35.93
37.53
38.06
37.82
37.07
35.93
34.48
32.79
30.93
29.03
27.19
25.40
23.57
21.53
19.08
16.07
12.48
8.44
4.22
0.11
-3.65
-6.97
-9.96
-12.92
-16.25
-20.36
-25.43
-31.34
-37.52
-43.03
-46.77
-47.79
-45.61
-40.37
-32.78
-23.82
-14.43
-5.26
3.37
11.32
18.46
24.54
29.24
32.28
33.60
33.47
32.41
31.03
29.80
28.94
28.37
27.79
26.88
25.47
23.64
21.59
19.55
17.54
15.41
12.87
9.71
5.93
1.76
-2.38
-6.17
-9.45
-12.38
-15.25
-18.47
-22.35
-27.09
-32.62
-38.57
-44.29
-48.83
-51.18
-50.53
-46.58
-39.63
-30.57
-20.56
-10.76
-2.00
5.28
10.99
15.21
18.11
19.85
20.63
20.73
20.47
20.15
20.01
20.10
20.30
20.44
20.33
19.83
18.84
17.33
15.28
12.71
9.75
6.58
3.45
0.51
-2.16
-4.64
-7.10
-9.76
-12.84
-16.56
-21.07
-26.35
-32.10
-37.67
-42.12
-44.46
-43.91
-40.18
-33.54
-24.77
-14.93
-5.11
3.78
11.16
16.76
20.64
23.11
24.56
25.41
25.94
26.30
26.50
26.51
26.22
25.57
24.49
22.95
21.00
18.75
16.30
13.78
11.23
8.63
5.90
2.94
-0.32
-3.89
-7.73
-11.80
-16.03
-20.43
-25.05
-30.04
-35.56
-41.66
-48.10
-54.21
-58.95
-61.24
-60.26
-55.78
-48.24
-38.56
-27.84
-16.99
-6.63
2.93
11.55
19.05
25.23
29.88
32.93
34.51
34.95
34.69
34.15
33.59
33.15
32.74
32.26
31.59
30.68
29.58
28.28
26.75
24.88
22.50
19.44
15.69
11.41
6.89
2.50
-1.51
-5.05
-8.30
-11.56
-15.28
-19.79
-25.27
-31.62
-38.42
-44.98
-50.34
-53.53
-53.78
-50.75
-44.67
-36.25
-26.48
-16.35
-6.58
2.36
10.29
17.05
22.54
26.61
29.25
30.61
31.05
31.00
30.83
30.70
30.58
30.35
29.90
29.18
28.25
27.16
25.94
24.53
22.80
20.65
18.02
14.93
11.44
7.66
3.68
-0.40
-4.45
-8.38
-12.16
-15.90
-19.82
-24.21
-29.33
-35.17
-41.37
-47.13
-51.42
-53.15
-51.64
-46.74
-39.03
-29.50
-19.30
-9.38
-0.32
7.59
14.24
19.47
23.11
25.10
25.62
25.16
24.43
24.03
24.21
24.75
25.11
24.81
23.63
21.72
19.56
17.62
16.07
14.74
13.22
11.06
8.07
4.37
0.36
-3.53
-6.98
-9.92
-12.53
-15.12
-18.12
-21.87
-26.53
-31.97
-37.68
-42.83
-46.45
-47.63
-45.81
-40.95
-33.49
-24.27
-14.28
-4.48
4.38
11.74
17.34
21.10
23.20
24.04
24.12
23.94
23.87
24.02
24.30
24.46
24.24
23.53
22.33
20.75
18.87
16.69
14.19
11.31
8.08
4.62
1.07
-2.45
-5.84
-9.09
-12.22
-15.35
-18.68
-22.45
-26.91
-32.19
-38.16
-44.31
-49.81
-53.66
-55.00
-53.27
-48.48
-41.06
-31.79
-21.53
-11.05
-0.99
8.23
16.24
22.81
27.77
31.16
33.16
34.10
34.34
34.11
33.55
32.67
31.47
30.01
28.40
26.71
24.99
23.18
21.19
18.92
16.28
13.23
9.80
6.08
2.19
-1.69
-5.38
-8.77
-11.95
-15.12
-18.68
-22.97
-28.16
-34.01
-39.87
-44.72
-47.52
-47.42
-44.13
-37.96
-29.70
-20.39
-10.99
-2.17
5.67
12.38
17.90
22.19
25.22
27.04
27.89
28.07
27.90
27.64
27.39
27.14
26.80
26.31
25.63
24.71
23.50
21.97
20.04
17.69
14.88
11.60
7.89
3.88
-0.19
-4.07
-7.64
-10.97
-14.34
-18.18
-22.85
-28.37
-34.33
-39.95
-44.21
-46.15
-45.13
-41.03
-34.24
-25.53
-15.87
-6.20
2.77
10.54
16.79
21.38
24.25
25.52
25.43
24.40
22.92
21.44
20.30
19.57
19.19
18.90
18.41
17.49
15.98
13.86
11.22
8.25
5.13
2.04
-0.90
-3.71
-6.53
-9.57
-13.11
-17.36
-22.42
-28.13
-34.11
-39.66
-43.87
-45.81
-44.76
-40.42
-33.07
-23.50
-12.82
-2.16
7.59
15.85
22.37
27.08
30.09
31.59
31.87
31.33
30.37
29.38
28.53
27.88
27.32
26.70
25.86
24.68
23.08
21.02
18.46
15.36
11.74
7.67
3.29
-1.24
-5.75
-10.17
-14.53
-19.05
-23.99
-29.51
-35.52
-41.47
-46.48
-49.53
-49.76
-46.78
-40.79
-32.49
-22.91
-13.05
-3.64
4.90
12.43
18.94
24.40
28.76
31.90
33.80
34.57
34.48
33.88
33.12
32.43
31.91
31.48
30.97
30.11
28.62
26.32
23.15
19.24
14.84
10.26
5.74
1.41
-2.70
-6.64
-10.49
-14.41
-18.60
-23.28
-28.53
-34.16
-39.59
-43.91
-46.12
-45.45
-41.66
-35.05
-26.37
-16.58
-6.57
2.96
11.48
18.61
24.14
27.99
30.28
31.32
31.50
31.21
30.68
30.04
29.29
28.38
27.31
26.10
24.76
23.24
21.49
19.42
16.98
14.15
10.97
7.48
3.75
-0.17
-4.20
-8.30
-12.41
-16.58
-20.89
-25.52
-30.50
-35.66
-40.42
-43.88
-45.02
-43.13
-38.06
-30.32
-20.99
-11.28
-2.19
5.67
12.08
17.05
20.61
22.81
23.71
23.50
22.56
21.35
20.28
19.57
19.22
19.05
18.87
18.48
17.75
16.63
15.08
13.12
10.77
8.13
5.29
2.39
-0.54
-3.53
-6.76
-10.43
-14.75
-19.81
-25.47
-31.35
-36.80
-40.99
-43.12
-42.57
-39.14
-33.06
-24.96
-15.63
-5.89
3.56
12.20
19.60
25.45
29.58
31.98
32.91
32.78
32.05
31.07
29.99
28.83
27.52
26.03
24.36
22.54
20.53
18.25
15.58
12.41
8.74
4.64
0.31
-3.93
-7.83
-11.26
-14.32
-17.31
-20.68
-24.77
-29.75
-35.46
-41.40
-46.80
-50.77
-52.50
-51.36
-47.18
-40.23
-31.23
-21.12
-10.85
-1.15
7.53
15.02
21.28
26.26
29.92
32.26
33.43
33.70
33.49
33.13
32.80
32.45
31.88
30.89
29.40
27.50
25.40
23.29
21.23
19.08
16.60
13.55
9.85
5.61
1.16
-3.06
-6.67
-9.49
-11.62
-13.45
-15.52
-18.39
-22.41
-27.64
-33.76
-40.13
-45.80
-49.79
-51.23
-49.58
-44.74
-37.17
-27.64
-17.18
-6.71
3.05
11.67
18.92
24.72
29.05
31.93
33.51
34.01
33.76
33.11
32.34
31.64
31.05
30.51
29.91
29.10
27.97
26.49
24.67
22.58
20.29
17.85
15.22
12.33
9.09
5.46
1.52
-2.59
-6.66
-10.51
-14.01
-17.14
-19.94
-22.60
-25.36
-28.47
-32.12
-36.31
-40.75
-44.85
-47.82
-48.83
-47.30
-43.06
-36.42
-28.08
-18.95
-9.84
-1.38
6.03
12.17
16.90
20.15
21.95
22.50
22.20
21.53
20.91
20.56
20.41
20.22
19.71
18.73
17.34
15.76
14.21
12.75
11.32
9.73
7.78
5.36
2.51
-0.67
-3.99
-7.29
-10.48
-13.50
-16.46
-19.51
-22.84
-26.56
-30.59
-34.59
-38.01
-40.20
-40.55
-38.71
-34.60
-28.49
-20.89
-12.55
-4.19
3.45
9.86
14.74
18.05
19.95
20.75
20.78
20.39
19.85
19.36
19.04
18.96
19.07
19.24
19.28
18.97
18.16
16.79
14.82
12.31
9.27
5.73
1.78
-2.43
-6.60
-10.44
-13.77
-16.58
-19.11
-21.73
-24.85
-28.78
-33.57
-38.94
-44.26
-48.60
-51.03
-50.85
-47.79
-42.13
-34.51
-25.76
-16.60
-7.58
0.90
8.57
15.18
20.51
24.44
27.01
28.38
28.83
28.60
27.94
26.99
25.85
24.57
23.20
21.81
20.47
19.22
18.06
16.86
15.37
13.33
10.55
6.99
2.83
-1.57
-5.82
-9.61
-12.84
-15.64
-18.32
-21.28
-24.90
-29.38
-34.72
-40.56
-46.17
-50.60
-52.79
-51.96
-47.83
-40.75
-31.60
-21.52
-11.55
-2.42
5.51
12.14
17.45
21.48
24.22
25.79
26.46
26.62
26.66
26.86
27.28
27.73
27.94
27.70
26.91
25.69
24.24
22.76
21.37
20.02
18.58
16.86
14.68
11.94
8.67
4.97
1.08
-2.79
-6.53
-10.14
-13.79
-17.79
-22.42
-27.81
-33.89
-40.21
-46.03
-50.40
-52.35
-51.18
-46.67
-39.20
-29.68
-19.29
-9.16
-0.10
7.45
13.43
17.96
21.16
23.20
24.19
24.32
23.87
23.17
22.48
22.01
21.75
21.61
21.37
20.84
19.85
18.35
16.38
13.98
11.26
8.31
5.20
2.01
-1.21
-4.40
-7.58
-10.82
-14.28
-18.16
-22.57
-27.46
-32.49
-36.96
-40.03
-40.86
-38.93
-34.19
-27.13
-18.55
-9.42
-0.60
7.27
13.78
18.74
22.12
24.02
24.65
24.32
23.39
22.24
21.21
20.54
20.32
20.43
20.59
20.42
19.56
17.79
15.12
11.72
7.86
3.87
-0.05
-3.81
-7.45
-11.12
-15.06
-19.52
-24.68
-30.52
-36.85
-43.14
-48.68
-52.59
-54.04
-52.47
-47.78
-40.42
-31.24
-21.31
-11.59
-2.68
5.12
11.77
17.29
21.59
24.53
26.07
26.35
25.74
24.77
23.88
23.34
23.21
23.28
23.25
22.77
21.63
19.75
17.22
14.17
10.81
7.24
3.49
-0.48
-4.67
-9.10
-13.81
-18.86
-24.42
-30.53
-37.02
-43.27
-48.30
-50.95
-50.27
-45.86
-38.05
-27.78
-16.31
-4.87
5.61
14.64
22.02
27.77
31.94
34.67
36.11
36.53
36.24
35.55
34.70
33.81
32.88
31.85
30.64
29.16
27.33
25.02
22.20
18.89
15.24
11.41
7.55
3.69
-0.25
-4.39
-8.86
-13.73
-19.08
-24.93
-31.20
-37.56
-43.33
-47.58
-49.34
-47.92
-43.19
-35.59
-26.03
-15.52
-4.99
4.87
13.59
20.86
26.55
30.62
33.14
34.32
34.44
33.81
32.73
31.45
30.19
29.04
27.98
26.88
25.54
23.79
21.56
18.90
15.97
12.98
10.00
7.01
3.81
0.18
-4.11
-9.13
-14.82
-21.00
-27.39
-33.60
-39.12
-43.28
-45.29
-44.51
-40.59
-33.71
-24.59
-14.26
-3.83
5.78
14.01
20.60
25.46
28.61
30.09
30.08
28.93
27.18
25.39
24.07
23.44
23.38
23.49
23.22
22.12
19.98
16.90
13.20
9.30
5.48
1.87
-1.63
-5.21
-9.06
-13.37
-18.21
-23.62
-29.41
-35.18
-40.21
-43.56
-44.29
-41.79
-35.98
-27.41
-17.10
-6.21
4.20
13.41
21.00
26.78
30.75
33.03
33.88
33.68
32.86
31.88
30.97
30.22
29.52
28.67
27.49
25.83
23.61
20.80
17.48
13.74
9.80
5.88
2.15
-1.32
-4.67
-8.12
-11.99
-16.55
-21.99
-28.26
-35.08
-41.81
-47.47
-50.91
-51.11
-47.51
-40.27
-30.29
-18.79
-7.09
3.89
13.69
22.17
29.26
34.89
38.91
41.25
42.09
41.79
40.85
39.71
38.60
37.56
36.50
35.30
33.86
32.17
30.22
27.94
25.22
21.94
18.03
13.54
8.68
3.75
-0.96
-5.26
-9.16
-12.79
-16.44
-20.43
-24.98
-30.17
-35.77
-41.19
-45.54
-47.82
-47.22
-43.45
-36.77
-28.00
-18.12
-8.00
1.74
10.78
18.87
25.70
30.93
34.34
35.96
36.25
35.84
35.41
35.33
35.59
35.81
35.53
34.45
32.59
30.23
27.81
25.62
23.70
21.80
19.58
16.75
13.27
9.29
5.11
0.98
-2.96
-6.74
-10.50
-14.43
-18.71
-23.44
-28.67
-34.23
-39.72
-44.47
-47.65
-48.43
-46.28
-41.19
-33.67
-24.60
-15.05
-5.90
2.26
9.13
14.58
18.57
21.14
22.41
22.67
22.37
21.98
21.82
21.97
22.27
22.46
22.32
21.76
20.86
19.68
18.25
16.49
14.32
11.66
8.58
5.26
1.89
-1.33
-4.31
-7.06
-9.74
-12.56
-15.81
-19.72
-24.43
-29.79
-35.32
-40.20
-43.45
-44.14
-41.76
-36.35
-28.52
-19.27
-9.68
-0.64
7.33
14.00
19.32
23.29
25.92
27.28
27.53
27.03
26.18
25.30
24.55
23.86
23.05
21.93
20.45
18.68
16.78
14.82
12.72
10.30
7.33
3.70
-0.49
-5.01
-9.50
-13.71
-17.49
-20.88
-24.05
-27.27
-30.83
-34.92
-39.57
-44.46
-48.91
-51.96
-52.61
-50.21
-44.71
-36.67
-27.11
-17.10
-7.46
1.34
9.16
15.88
21.35
25.32
27.65
28.48
28.24
27.46
26.66
26.05
25.58
25.01
24.13
22.92
21.51
20.15
18.96
17.91
16.72
15.10
12.75
9.57
5.69
1.39
-3.00
-7.14
-10.85
-14.08
-16.97
-19.79
-22.89
-26.62
-31.15
-36.34
-41.69
-46.30
-49.20
-49.52
-46.80
-41.13
-33.11
-23.69
-13.91
-4.60
3.75
10.95
16.98
21.89
25.63
28.15
29.44
29.67
29.22
28.59
28.22
28.36
28.88
29.45
29.63
29.10
27.82
25.97
23.84
21.72
19.73
17.80
15.72
13.30
10.45
7.26
3.92
0.66
-2.43
-5.34
-8.21
-11.20
-14.41
-17.91
-21.71
-25.80
-30.22
-35.00
-40.02
-44.91
-49.03
-51.53
-51.63
-48.83
-43.17
-35.21
-25.87
-16.16
-6.91
1.40
8.49
14.22
18.49
21.24
22.56
22.77
22.41
22.00
21.89
22.06
22.28
22.21
21.65
20.63
19.39
18.18
17.11
16.09
14.88
13.23
10.98
8.15
4.90
1.47
-1.95
-5.22
-8.35
-11.40
-14.55
-17.96
-21.80
-26.13
-30.87
-35.71
-40.03
-43.04
-43.92
-42.10
-37.44
-30.32
-21.53
-12.05
-2.83
5.39
12.12
17.15
20.44
22.19
22.70
22.40
21.72
21.01
20.47
20.12
19.84
19.49
18.87
17.91
16.54
14.80
12.70
10.25
7.42
4.15
0.39
-3.80
-8.27
-12.78
-17.07
-20.95
-24.41
-27.63
-30.96
-34.76
-39.16
-43.89
-48.31
-51.45
-52.37
-50.46
-45.61
-38.28
-29.27
-19.50
-9.75
-0.62
7.50
14.32
19.61
23.28
25.42
26.28
26.28
25.84
25.26
24.69
24.16
23.64
23.08
22.47
21.76
20.94
19.94
18.66
16.97
14.75
11.91
8.45
4.49
0.31
-3.80
-7.62
-11.16
-14.61
-18.34
-22.66
-27.75
-33.50
-39.50
-45.04
-49.26
-51.24
-50.31
-46.25
-39.39
-30.55
-20.77
-10.99
-1.88
6.26
13.29
19.19
23.81
27.05
28.92
29.64
29.65
29.43
29.34
29.55
29.90
30.08
29.82
29.00
27.67
26.03
24.28
22.42
20.33
17.75
14.52
10.65
6.39
2.11
-1.85
-5.32
-8.37
-11.16
-14.02
-17.23
-21.06
-25.69
-31.12
-37.06
-42.91
-47.78
-50.72
-50.91
-47.97
-42.07
-33.89
-24.41
-14.68
-5.60
2.25
8.59
13.37
16.71
18.79
19.89
20.33
20.43
20.53
20.78
21.17
21.54
21.70
21.48
20.84
19.85
18.62
17.23
15.67
13.87
11.73
9.22
6.34
3.15
-0.27
-3.87
-7.61
-11.53
-15.66
-20.08
-24.80
-29.70
-34.47
-38.59
-41.36
-42.06
-40.13
-35.39
-28.13
-19.08
-9.28
0.21
8.56
15.26
20.19
23.51
25.44
26.27
26.20
25.49
24.38
23.16
22.08
21.27
20.70
20.16
19.31
17.85
15.63
12.68
9.22
5.58
2.06
-1.20
-4.24
-7.23
-10.38
-13.90
-17.93
-22.55
-27.75
-33.32
-38.87
-43.74
-47.05
-47.93
-45.74
-40.30
-32.06
-21.96
-11.20
-0.87
8.26
15.92
22.16
27.13
30.93
33.51
34.78
34.78
33.73
32.05
30.17
28.43
26.95
25.70
24.55
23.31
21.86
20.05
17.78
15.01
11.74
8.11
4.26
0.37
-3.49
-7.34
-11.28
-15.51
-20.21
-25.49
-31.24
-36.98
-41.91
-45.02
-45.36
-42.40
-36.24
-27.59
-17.53
-7.20
2.51
11.11
18.41
24.41
29.12
32.54
34.66
35.60
35.54
34.81
33.74
32.65
31.72
31.01
30.37
29.58
28.36
26.53
24.04
21.03
17.69
14.22
10.73
7.22
3.64
-0.02
-3.76
-7.57
-11.51
-15.76
-20.52
-25.87
-31.57
-37.03
-41.32
-43.44
-42.69
-38.83
-32.23
-23.74
-14.32
-4.91
3.88
11.67
18.29
23.62
27.62
30.28
31.72
32.13
31.82
31.09
30.16
29.18
28.17
27.10
25.91
24.51
22.83
20.78
18.34
15.52
12.33
8.82
5.08
1.21
-2.64
-6.33
-9.76
-12.98
-16.20
-19.73
-23.86
-28.68
-33.92
-38.89
-42.65
-44.21
-42.88
-38.47
-31.40
-22.56
-13.01
-3.77
4.50
11.46
17.08
21.39
24.43
26.19
26.71
26.23
25.14
23.93
23.02
22.57
22.45
22.35
21.89
20.84
19.12
16.83
14.12
11.15
8.02
4.78
1.49
-1.80
-5.08
-8.39
-11.89
-15.79
-20.31
-25.48
-31.11
-36.63
-41.22
-43.98
-44.12
-41.30
-35.64
-27.76
-18.56
-8.99
0.15
8.28
15.07
20.39
24.26
26.83
28.33
29.05
29.27
29.20
28.93
28.47
27.78
26.86
25.77
24.53
23.17
21.61
19.75
17.46
14.69
11.47
7.92
4.19
0.41
-3.33
-7.01
-10.66
-14.38
-18.30
-22.62
-27.51
-33.00
-38.80
-44.25
-48.46
-50.43
-49.45
-45.31
-38.40
-29.54
-19.76
-9.95
-0.75
7.51
14.68
20.67
25.34
28.57
30.37
30.98
30.76
30.21
29.66
29.28
29.05
28.84
28.53
28.11
27.53
26.76
25.67
24.07
21.76
18.73
15.10
11.14
7.21
3.62
0.47
-2.31
-4.99
-7.97
-11.58
-15.99
-21.11
-26.55
-31.66
-35.66
-37.79
-37.48
-34.44
-28.75
-20.86
-11.48
-1.47
8.39
17.50
25.45
32.04
37.18
40.96
43.53
45.21
46.36
47.36
48.46
49.80
51.37
53.06
54.76
56.36
57.81
59.13
60.48
62.09
64.23
66.85
69.39
70.68
69.27
63.94
54.30
41.03
25.68
10.06
-4.41
-17.02
-27.65
-36.40
-43.12
-47.35
-48.62
-46.82
-42.45
-36.58
-30.36
-24.72
-20.03
-16.25
-13.10
-10.41
-8.21
-6.63
-5.87
-5.93
-6.63
-7.66
-8.67
-9.37
-9.64
-9.49
-9.09
-8.63
-8.33
-8.34
-8.77
-9.73
-11.29
-13.47
-16.19
-19.26
-22.38
-25.30
-27.92
-30.39
-33.03
-36.23
-40.25
-45.11
-50.47
-55.67
-59.81
-61.95
-61.32
-57.56
-50.88
-42.03
-32.06
-22.03
-12.67
-4.30
3.01
9.28
14.42
18.22
20.53
21.37
21.08
20.15
19.03
17.93
16.83
15.57
14.11
12.62
11.39
10.65
10.35
10.08
9.32
7.61
4.81
1.15
-2.88
-6.85
-10.47
-13.74
-16.80
-19.84
-23.04
-26.56
-30.59
-35.29
-40.64
-46.19
-51.05
-54.05
-54.12
-50.73
-44.07
-35.09
-25.00
-14.99
-5.76
2.39
9.43
15.40
20.20
23.69
25.73
26.44
26.14
25.39
24.71
24.42
24.56
24.81
24.83
24.29
23.20
21.74
20.24
18.90
17.67
16.30
14.48
11.96
8.75
5.05
1.15
-2.68
-6.29
-9.71
-13.07
-16.60
-20.52
-25.02
-30.14
-35.73
-41.36
-46.39
-50.06
-51.65
-50.62
-46.77
-40.29
-31.78
-22.08
-12.10
-2.65
5.69
12.56
17.78
21.29
23.22
23.86
23.65
23.16
22.84
22.93
23.37
23.86
24.08
23.81
23.02
21.86
20.47
18.95
17.29
15.39
13.19
10.66
7.89
5.02
2.21
-0.41
-2.81
-5.13
-7.69
-10.93
-15.33
-21.07
-27.98
-35.36
-42.13
-47.06
-49.16
-47.90
-43.43
-36.45
-27.98
-19.02
-10.34
-2.39
4.57
10.39
14.86
17.85
19.29
19.39
18.57
17.36
16.25
15.51
15.21
15.20
15.24
15.10
14.57
13.49
11.82
9.57
6.80
3.61
0.12
-3.57
-7.36
-11.15
-14.91
-18.73
-22.78
-27.30
-32.39
-37.86
-43.16
-47.41
-49.62
-48.98
-45.16
-38.39
-29.46
-19.45
-9.40
-0.08
8.08
14.96
20.53
24.70
27.34
28.39
27.99
26.56
24.70
22.97
21.70
20.93
20.50
20.13
19.54
18.51
16.87
14.57
11.62
8.17
4.41
0.51
-3.48
-7.55
-11.79
-16.34
-21.33
-26.92
-33.17
-39.94
-46.74
-52.70
-56.71
-57.72
-55.12
-48.94
-39.87
-29.04
-17.67
-6.75
3.10
11.61
18.70
24.39
28.66
31.51
33.04
33.48
33.18
32.50
31.71
30.88
30.00
28.99
27.81
26.45
24.95
23.29
21.35
18.98
16.01
12.41
8.25
3.74
-0.87
-5.39
-9.75
-13.98
-18.29
-22.97
-28.32
-34.46
-41.17
-47.79
-53.29
-56.52
-56.59
-53.12
-46.39
-37.23
-26.67
-15.64
-4.80
5.48
14.93
23.24
30.04
34.99
38.00
39.30
39.43
39.02
38.55
38.22
37.90
37.31
36.25
34.70
32.79
30.69
28.46
26.00
23.07
19.50
15.28
10.56
5.69
1.01
-3.30
-7.23
-10.97
-14.84
-19.23
-24.45
-30.64
-37.59
-44.66
-50.81
-54.79
-55.49
-52.36
-45.59
-36.06
-25.03
-13.74
-3.10
6.42
14.62
21.43
26.75
30.48
32.61
33.28
32.85
31.75
30.42
29.20
28.22
27.51
26.92
26.26
25.26
23.71
21.50
18.68
15.47
12.13
8.85
5.71
2.64
-0.49
-3.81
-7.41
-11.42
-15.97
-21.20
-27.14
-33.43
-39.32
-43.71
-45.45
-43.79
-38.67
-30.73
-21.11
-11.05
-1.50
6.96
14.03
19.54
23.34
25.26
25.36
23.92
21.53
18.92
16.72
15.31
14.70
14.59
14.50
13.96
12.71
10.66
7.97
4.92
1.77
-1.30
-4.26
-7.20
-10.30
-13.82
-17.98
-22.97
-28.78
-35.06
-41.05
-45.70
-47.84
-46.62
-41.83
-33.94
-23.98
-13.20
-2.63
7.05
15.53
22.68
28.34
32.30
34.40
34.68
33.45
31.36
29.16
27.46
26.59
26.50
26.76
26.82
26.16
24.48
21.76
18.21
14.18
9.98
5.81
1.70
-2.45
-6.85
-11.82
-17.66
-24.59
-32.52
-40.93
-48.79
-54.83
-57.79
-56.84
-51.84
-43.35
-32.42
-20.34
-8.25
2.98
12.76
20.80
26.95
31.21
33.71
34.66
34.39
33.21
31.49
29.48
27.36
25.18
22.84
20.12
16.82
12.84
8.21
3.21
-1.74
-6.19
-9.78
-12.41
-14.32
-16.09
-18.48
-22.24
-27.73
-34.75
-42.36
-49.04
-53.03
-52.78
-47.38
-36.73
-21.62
-3.54
15.55
33.54
48.57
59.32
65.24
66.59
64.32
59.76
54.23
48.79
44.11
40.52
38.11
36.89
36.78
37.57
38.88
40.08
40.39
39.05
35.53
29.67
21.69
12.14
1.64
-9.30
-20.27
-31.00
-41.07
-49.83
-56.39
-59.78
-59.29
-54.75
-46.56
-35.64
-23.15
-10.17
2.31
13.50
22.66
29.17
32.64
33.10
31.01
27.30
23.04
19.18
16.35
14.68
13.95
13.66
13.27
12.31
10.49
7.78
4.36
0.52
-3.48
-7.51
-11.61
-15.90
-20.54
-25.56
-30.87
-36.22
-41.13
-44.91
-46.71
-45.74
-41.49
-34.02
-24.01
-12.65
-1.30
8.93
17.34
23.71
28.19
31.03
32.50
32.87
32.37
31.29
29.90
28.41
26.89
25.27
23.42
21.20
18.66
15.95
13.44
11.42
10.06
9.26
8.65
7.69
5.81
2.60
-2.15
-8.38
-15.80
-23.88
-31.89
-38.88
-43.80
-45.73
-44.15
-39.12
-31.28
-21.76
-11.75
-2.28
5.99
12.70
17.73
20.97
22.40
22.12
20.52
18.19
15.88
14.18
13.30
13.06
12.92
12.28
10.74
8.22
4.98
1.42
-2.09
-5.35
-8.38
-11.36
-14.52
-18.08
-22.23
-27.10
-32.66
-38.61
-44.26
-48.55
-50.34
-48.69
-43.31
-34.67
-23.85
-12.23
-1.06
8.76
16.77
22.85
27.01
29.37
30.13
29.65
28.40
26.91
25.60
24.69
24.11
23.59
22.73
21.20
18.82
15.64
11.86
7.77
3.63
-0.39
-4.27
-8.08
-11.96
-16.11
-20.72
-25.99
-31.99
-38.60
-45.37
-51.44
-55.69
-57.01
-54.66
-48.51
-39.15
-27.67
-15.37
-3.41
7.38
16.56
23.97
29.60
33.54
35.92
36.97
36.93
36.12
34.83
33.30
31.72
30.15
28.60
26.93
24.97
22.55
19.64
16.31
12.82
9.44
6.33
3.48
0.67
-2.38
-5.97
-10.33
-15.55
-21.61
-28.31
-35.20
-41.52
-46.24
-48.32
-46.96
-41.91
-33.61
-23.02
-11.37
0.15
10.58
19.32
26.06
30.73
33.48
34.61
34.54
33.72
32.54
31.26
30.02
28.84
27.69
26.50
25.24
23.88
22.36
20.62
18.55
16.04
12.99
9.42
5.44
1.29
-2.80
-6.61
-10.08
-13.28
-16.45
-19.91
-24.00
-28.92
-34.64
-40.69
-46.19
-49.95
-50.85
-48.17
-41.88
-32.71
-21.87
-10.68
-0.23
8.80
16.10
21.54
25.15
27.06
27.58
27.22
26.52
25.96
25.74
25.75
25.69
25.25
24.23
22.65
20.72
18.66
16.69
14.86
13.09
11.20
8.97
6.30
3.22
-0.11
-3.53
-6.92
-10.36
-14.06
-18.30
-23.27
-29.00
-35.18
-41.09
-45.73
-47.99
-47.01
-42.50
-34.91
-25.26
-14.87
-4.90
3.89
11.19
16.92
21.07
23.58
24.46
23.87
22.28
20.36
18.74
17.80
17.51
17.52
17.34
16.60
15.11
12.97
10.34
7.40
4.28
1.07
-2.19
-5.44
-8.67
-11.90
-15.20
-18.76
-22.75
-27.37
-32.60
-38.12
-43.20
-46.78
-47.75
-45.35
-39.49
-30.88
-20.77
-10.56
-1.34
6.32
12.33
16.86
20.10
22.16
23.07
22.97
22.11
20.87
19.68
18.82
18.37
18.18
17.98
17.39
16.13
14.06
11.23
7.79
4.01
0.12
-3.70
-7.39
-10.97
-14.53
-18.24
-22.35
-27.12
-32.76
-39.26
-46.21
-52.75
-57.72
-59.94
-58.57
-53.39
-44.89
-34.09
-22.23
-10.46
0.37
9.79
17.58
23.71
28.22
31.17
32.70
33.01
32.37
31.15
29.69
28.24
26.94
25.80
24.68
23.43
21.89
19.98
17.66
14.93
11.80
8.27
4.38
0.19
-4.15
-8.49
-12.74
-16.92
-21.28
-26.16
-31.86
-38.38
-45.21
-51.30
-55.35
-56.18
-53.14
-46.38
-36.74
-25.49
-13.85
-2.76
7.26
15.94
23.13
28.70
32.49
34.53
35.04
34.48
33.41
32.34
31.55
31.05
30.64
30.02
28.99
27.40
25.28
22.69
19.74
16.54
13.14
9.64
6.10
2.57
-0.90
-4.34
-7.87
-11.68
-16.04
-21.30
-27.63
-34.93
-42.54
-49.33
-53.89
-54.97
-51.89
-44.85
-34.86
-23.35
-11.69
-0.84
8.82
