1624961580.00
64.000000
-0.00
-0.00
-0.00
-0.00
-0.00
-0.00
-0.00
-0.00
-0.00
-0.00
0.00
0.01
0.01
-0.00
-0.03
-0.05
-0.05
0.00
0.13
0.36
0.66
1.01
1.37
1.72
2.06
2.40
2.79
3.24
3.80
4.42
5.06
5.66
6.20
6.68
7.15
7.68
8.31
9.14
10.09
11.04
11.88
12.56
13.14
13.76
14.65
15.96
17.91
20.32
22.90
25.38
27.58
29.57
31.68
34.32
37.81
42.54
48.15
54.10
59.83
64.97
69.58
74.14
79.34
85.71
93.76
103.00
112.62
121.73
129.77
136.75
143.30
150.75
157.77
166.64
177.95
191.79
206.97
220.57
228.25
225.36
208.53
176.87
132.76
80.05
23.07
-34.94
-92.44
-149.16
-205.23
-260.37
-313.74
-363.87
-409.83
-450.91
-486.50
-515.74
-537.23
-549.22
-549.96
-538.37
-514.21
-478.67
-433.88
-382.45
-327.02
-269.84
-212.63
-156.66
-102.95
-52.37
-5.90
35.58
71.43
101.35
125.50
144.38
158.69
169.15
176.37
180.75
182.57
182.07
179.51
175.23
169.65
163.18
156.15
148.81
141.30
133.69
126.02
118.33
110.69
103.16
95.80
88.68
81.83
75.25
68.95
62.95
57.25
51.86
46.78
42.03
37.59
33.45
29.61
26.07
22.81
19.83
17.11
14.67
12.48
10.54
8.83
7.35
6.07
4.97
4.05
3.27
2.62
2.09
1.65
1.30
1.01
0.79
0.61
0.47
0.37
0.29
0.23
0.19
0.17
0.15
0.15
0.16
0.18
0.20
0.23
0.26
0.30
0.34
0.38
0.43
0.47
0.52
0.57
0.62
0.68
0.73
0.79
0.86
0.94
1.02
1.11
1.21
1.32
1.44
1.59
1.75
1.92
2.12
2.34
2.58
2.84
3.14
3.46
3.82
4.21
4.63
5.09
5.58
6.11
6.68
7.29
7.95
8.64
9.38
10.17
11.00
11.88
12.79
13.76
14.79
15.89
17.04
18.26
19.50
20.75
21.95
23.02
23.87
24.37
24.41
23.87
22.69
20.79
18.21
14.98
11.18
7.00
2.61
-1.78
-5.97
-9.76
-13.00
-15.57
-17.42
-18.54
-18.96
-18.77
-18.06
-16.97
-15.59
-14.03
-12.34
-10.58
-8.76
-6.87
-4.95
-3.04
-1.15
0.70
2.51
4.31
6.14
8.07
10.15
12.32
14.50
16.66
18.79
20.93
23.15
25.57
28.31
31.54
35.05
38.70
42.39
46.04
49.68
53.39
57.31
61.69
66.72
72.06
77.39
82.47
87.12
91.30
95.19
99.09
103.33
108.20
113.10
117.38
120.37
121.46
120.26
116.44
109.58
98.57
86.31
73.21
59.04
43.33
25.77
6.49
-13.85
-34.33
-54.05
-72.42
-90.08
-107.87
-126.63
-147.08
-169.67
-194.60
-221.62
-249.70
-276.78
-300.47
-318.03
-327.54
-328.73
-323.07
-312.87
-299.96
-284.70
-265.91
-242.27
-213.25
-180.04
-145.41
-112.55
-83.76
-59.58
-38.92
-19.94
-1.18
17.98
37.22
55.75
72.77
87.78
100.57
111.09
119.26
124.91
127.98
128.64
127.36
124.89
122.00
119.35
117.26
115.70
114.31
112.57
110.00
106.33
101.63
96.24
90.64
85.19
80.00
74.90
69.59
63.81
57.54
50.98
44.53
38.53
33.23
28.62
24.49
20.50
16.31
11.68
6.53
1.00
-4.69
-10.26
-15.61
-20.81
-26.17
-32.05
-38.74
-46.25
-54.26
-62.18
-69.40
-75.55
-80.73
-85.54
-90.95
-97.99
-107.27
-118.64
-130.88
-141.82
-148.66
-148.74
-140.41
-123.65
-100.30
-73.53
-46.86
-23.03
-3.26
12.77
26.39
39.04
51.58
64.10
76.05
86.71
95.49
102.06
106.29
108.08
107.44
104.58
100.04
94.63
89.34
85.04
82.17
80.67
80.00
79.36
78.01
75.56
72.10
68.11
64.22
60.89
58.25
56.06
53.82
51.07
47.53
43.18
38.21
32.88
27.45
22.10
16.97
12.11
7.57
3.28
-0.86
-5.03
-9.48
-14.47
-20.23
-26.89
-34.39
-42.43
-50.46
-57.91
-64.35
-69.69
-74.33
-79.08
-84.96
-92.78
-102.74
-114.05
-124.87
-132.63
-134.84
-129.93
-117.92
-100.44
-80.27
-60.28
-42.55
-27.92
-16.06
-6.00
3.29
12.48
21.81
31.17
40.25
48.65
55.94
61.71
65.70
67.85
68.37
67.71
66.47
65.23
64.43
64.23
64.48
64.79
64.63
63.52
61.18
57.65
53.25
48.48
43.84
39.65
35.91
32.34
28.50
24.00
18.72
12.86
6.87
1.24
-3.75
-8.23
-12.63
-17.57
-23.48
-30.47
-38.20
-46.08
-53.49
-60.01
-65.62
-70.66
-75.79
-81.84
-89.56
-99.26
-110.49
-121.79
-130.90
-135.31
-133.11
-123.73
-108.28
-89.15
-69.20
-50.79
-35.14
-22.21
-11.09
-0.67
9.91
21.03
32.60
44.28
55.55
65.84
74.50
80.96
84.81
85.99
84.90
82.29
79.13
76.28
74.26
73.11
72.48
71.74
70.23
67.51
63.44
58.17
52.16
45.93
39.99
34.75
30.44
27.20
25.01
23.72
23.01
22.37
21.30
19.47
16.88
13.88
10.92
8.35
6.07
3.66
0.47
-3.98
-9.81
-16.65
-23.88
-30.86
-37.20
-42.88
-48.12
-53.39
-59.33
-66.68
-76.10
-87.83
-101.21
-114.43
-124.85
-129.65
-126.93
-116.48
-99.99
-80.42
-60.93
-43.76
-29.77
-18.48
-8.71
0.69
10.50
21.01
32.15
43.67
55.08
65.73
74.79
81.48
85.33
86.39
85.32
83.10
80.81
79.20
78.50
78.51
78.66
78.35
77.11
74.77
71.48
67.60
63.53
59.57
55.88
52.43
49.07
45.62
41.95
38.02
33.90
29.70
25.53
21.40
17.22
12.82
8.07
2.93
-2.46
-7.81
-12.81
-17.30
-21.40
-25.45
-29.92
-35.22
-41.44
-48.34
-55.39
-62.00
-67.78
-72.73
-77.28
-82.16
-88.15
-95.88
-105.49
-116.45
-127.36
-136.18
-140.57
-138.68
-129.81
-114.78
-95.82
-75.78
-57.21
-41.56
-28.92
-18.35
-8.51
1.66
12.69
24.50
36.61
48.41
59.23
68.46
75.61
80.45
83.04
83.81
83.42
82.62
81.99
81.86
82.14
82.49
82.38
81.36
79.18
75.91
71.93
67.71
63.70
60.08
56.77
53.52
50.03
46.17
42.03
37.79
33.65
29.68
25.76
21.70
17.27
12.38
7.10
1.68
-3.60
-8.54
-13.13
-17.62
-22.40
-27.80
-33.99
-40.76
-47.70
-54.29
-60.15
-65.17
-69.62
-74.02
-79.06
-85.48
-93.77
-103.94
-115.18
-125.78
-133.37
-135.63
-131.03
-119.56
-102.82
-83.46
-64.28
-47.30
-33.28
-21.85
-11.93
-2.46
7.25
17.43
27.90
38.36
48.35
57.43
65.12
71.00
74.82
76.63
76.79
75.87
74.51
73.19
72.22
71.60
71.12
70.45
69.25
67.27
64.38
60.70
56.48
52.06
47.81
43.97
40.66
37.77
35.08
32.26
29.05
25.22
20.77
15.82
10.67
5.69
1.17
-2.84
-6.52
-10.29
-14.63
-19.86
-25.98
-32.65
-39.32
-45.41
-50.59
-54.88
-58.74
-62.92
-68.23
-75.38
-84.61
-95.55
-107.05
-117.24
-123.96
-125.30
-120.31
-109.42
-94.39
-77.81
-62.22
-49.27
-39.42
-32.03
-25.93
-20.02
-13.69
-6.80
0.41
7.58
14.33
20.33
25.33
29.22
32.04
33.96
35.23
36.04
36.45
36.55
36.50
36.60
37.09
38.05
39.24
40.23
40.56
39.95
38.44
36.23
33.62
30.97
28.56
26.60
25.14
23.99
22.80
21.17
18.87
15.99
12.93
10.20
8.16
6.86
5.94
4.82
2.74
-1.11
-7.46
-16.77
-28.89
-42.80
-56.61
-67.85
-74.29
-74.67
-69.32
-59.95
-49.09
-39.02
-30.95
-24.78
-19.47
-13.76
-6.82
1.50
10.74
20.21
29.27
37.39
44.17
49.30
52.64
54.29
54.69
54.44
54.17
54.28
54.88
55.79
56.66
57.11
56.73
55.23
52.43
48.42
43.49
38.11
32.77
27.79
23.22
18.90
14.43
9.40
3.41
-3.68
-11.77
-20.38
-28.84
-36.45
-42.84
-48.12
-52.93
-58.20
-64.83
-73.39
-83.96
-96.04
-108.58
-119.96
-128.20
-131.32
-127.95
-117.89
-102.39
-83.85
-64.96
-47.86
-33.34
-20.94
-9.39
2.62
15.82
30.19
45.11
59.74
73.30
85.19
95.06
102.70
108.06
111.31
112.81
113.06
112.60
111.79
110.74
109.32
107.27
104.35
100.48
95.72
90.25
84.32
78.19
72.12
66.29
60.75
55.40
50.00
44.26
37.99
31.22
24.17
17.21
10.72
4.95
-0.05
-4.51
-8.82
-13.55
-19.18
-25.90
-33.51
-41.37
-48.64
-54.70
-59.35
-62.98
-66.43
-70.69
-76.65
-84.92
-95.59
-108.15
-121.26
-132.78
-140.16
-141.12
-134.51
-120.96
-102.80
-83.28
-65.36
-50.69
-39.17
-29.41
-19.60
-8.41
4.51
18.60
32.92
46.48
58.58
68.74
76.63
81.98
84.69
84.97
83.43
81.00
78.67
77.15
76.68
76.95
77.20
76.56
74.40
70.55
65.35
59.48
53.66
48.38
43.71
39.43
35.12
30.44
25.15
19.18
12.55
5.36
-2.14
-9.53
-16.33
-22.06
-26.49
-29.70
-32.12
-34.39
-37.14
-40.83
-45.58
-51.15
-57.02
-62.56
-67.23
-70.73
-73.16
-75.08
-77.46
-81.43
-87.93
-97.22
-108.51
-119.84
-128.56
-131.99
-128.49
-118.09
-102.43
-84.20
-66.08
-49.84
-36.02
-24.02
-12.80
-1.35
10.87
23.94
37.54
51.16
64.14
75.71
85.18
92.07
96.24
98.01
98.03
97.08
95.87
94.82
94.09
93.54
92.90
91.84
90.11
87.55
84.21
80.27
76.03
71.80
67.78
64.02
60.35
56.54
52.32
47.63
42.56
37.40
32.44
27.85
23.55
19.26
14.60
9.31
3.36
-3.00
-9.37
-15.35
-20.74
-25.64
-30.45
-35.63
-41.56
-48.30
-55.53
-62.73
-69.33
-75.02
-79.89
-84.46
-89.58
-96.09
-104.48
-114.48
-124.77
-133.09
-136.81
-133.67
-122.68
-104.57
-81.64
-57.01
-33.61
-13.34
3.32
17.04
29.11
40.82
52.94
65.67
78.58
90.87
101.58
109.84
114.97
116.73
115.30
111.32
105.82
99.89
94.46
90.05
86.65
83.79
80.75
76.87
71.76
65.39
58.09
50.34
42.74
35.79
29.86
25.03
21.10
17.61
14.04
10.02
5.57
0.99
-3.24
-6.73
-9.44
-11.63
-13.79
-16.42
-19.78
-23.85
-28.30
-32.76
-36.96
-40.98
-45.20
-50.18
-56.30
-63.62
-71.71
-79.87
-87.44
-94.13
-100.12
-106.02
-112.68
-120.94
-131.35
-143.86
-157.59
-170.60
-180.21
-183.61
-178.84
-165.58
-145.44
-121.40
-96.81
-74.20
-54.69
-37.94
-22.76
-7.82
7.76
24.27
41.38
58.43
74.57
88.95
100.87
109.91
116.02
119.50
120.95
121.08
120.60
120.02
119.70
119.67
119.71
119.36
118.08
115.49
111.53
106.50
101.01
95.65
90.83
86.55
82.49
78.16
73.14
67.26
60.66
53.70
46.83
40.39
34.48
28.87
23.14
16.86
9.79
2.03
-5.99
-13.73
-20.81
-27.19
-33.29
-39.70
-47.02
-55.43
-64.68
-74.17
-83.17
-91.15
-98.02
-104.18
-110.45
-117.93
-127.62
-140.05
-154.71
-169.87
-182.61
-189.57
-188.01
-176.75
-156.77
-130.87
-102.70
-75.62
-51.77
-31.74
-14.90
-0.00
14.26
28.80
44.05
59.91
75.83
90.94
104.28
114.99
122.61
127.12
128.95
128.84
127.60
125.95
124.32
122.85
121.39
119.61
117.15
113.76
109.37
104.13
98.32
92.29
86.35
80.65
75.20
69.88
64.50
58.92
53.07
46.94
40.57
33.98
27.14
20.02
12.68
5.32
-1.78
-8.38
-14.41
-20.08
-25.81
-32.10
-39.28
-47.33
-55.93
-64.51
-72.57
-79.82
-86.40
-92.83
-99.91
-108.55
-119.43
-132.65
-147.40
-161.75
-172.96
-178.04
-174.72
-162.28
-141.97
-116.67
-89.97
-65.00
-43.62
-26.09
-11.53
1.43
13.97
26.74
39.73
52.49
64.35
74.64
82.87
88.84
92.64
94.61
95.24
95.01
94.33
93.48
92.58
91.55
90.12
87.93
84.62
80.08
74.49
68.28
61.91
55.67
49.57
43.44
37.13
30.61
24.02
17.52
11.15
4.74
-2.05
-9.50
-17.72
-26.59
-35.76
-44.86
-53.58
-61.76
-69.50
-77.12
-85.26
-94.65
-105.98
-119.38
-134.09
-148.21
-159.00
-163.57
-159.84
-147.42
-127.78
-103.87
-79.04
-55.97
-35.94
-18.81
-3.50
11.20
26.11
41.37
56.64
71.32
84.83
96.62
106.24
113.33
117.70
119.47
119.08
117.23
114.69
112.13
109.91
108.07
106.31
104.11
100.89
96.30
90.28
83.25
75.85
68.74
62.21
56.15
50.04
43.35
35.80
27.51
18.96
10.72
3.16
-3.74
-10.36
-17.27
-24.97
-33.68
-43.22
-53.14
-62.92
-72.17
-80.84
-89.21
-97.91
-107.72
-119.30
-132.87
-147.83
-162.49
-174.30
-180.38
-178.52
-167.99
-149.95
-127.07
-102.58
-79.17
-58.24
-39.83
-23.07
-6.84
9.63
26.58
43.78
60.72
76.72
91.07
103.02
111.98
117.61
120.03
119.84
118.00
115.56
113.39
111.87
110.96
110.23
109.16
107.33
104.55
100.87
96.45
91.47
86.07
80.39
74.51
68.50
62.43
56.32
50.11
43.74
37.11
30.19
23.02
15.76
8.62
1.85
-4.35
-9.97
-15.21
-20.47
-26.31
-33.13
-41.13
-50.11
-59.57
-68.81
-77.26
-84.67
-91.21
-97.56
-104.64
-113.41
-124.45
-137.55
-151.45
-163.91
-172.12
-173.54
-166.82
-152.33
-132.16
-109.40
-87.05
-67.10
-50.05
-35.14
-21.02
-6.47
9.08
25.51
42.22
58.40
73.24
86.04
96.24
103.47
107.67
109.12
108.50
106.68
104.57
102.86
101.82
101.26
100.75
99.70
97.70
94.58
90.48
85.71
80.58
75.34
70.11
64.93
59.84
54.83
49.87
44.82
39.49
33.68
27.35
20.64
13.90
7.55
1.93
-2.89
-7.12
-11.29
-16.02
-21.81
-28.83
-36.84
-45.21
-53.20
-60.24
-66.12
-71.20
-76.23
-82.20
-89.95
-99.94
-111.93
-124.84
-136.71
-145.12
-147.74
-143.14
-131.35
-113.96
-93.67
-73.31
-54.96
-39.43
-26.33
-14.60
-3.20
8.48
20.48
32.47
43.97
54.55
63.76
71.23
76.66
79.94
81.22
80.95
79.78
78.37
77.18
76.40
75.85
75.14
73.78
71.35
67.69
62.94
57.47
51.83
46.46
41.62
37.24
33.03
28.60
23.69
18.29
12.66
7.13
1.93
-3.04
-8.07
-13.59
-19.87
-26.86
-34.16
-41.25
-47.66
-53.21
-58.08
-62.80
-68.04
-74.56
-82.86
-93.04
-104.48
-115.68
-124.48
-128.61
-126.41
-117.58
-103.35
-86.07
-68.39
-52.25
-38.38
-26.34
-15.03
-3.47
8.83
21.72
34.65
46.94
58.02
67.40
74.74
79.79
82.51
83.12
82.13
80.29
78.37
76.97
76.35
76.33
76.39
75.81
74.01
70.67
65.91
60.22
54.30
48.77
43.99
39.92
36.20
32.31
27.78
22.40
16.26
9.71
3.16
-3.03
-8.77
-14.23
-19.76
-25.77
-32.53
-40.06
-48.09
-56.20
-63.90
-70.90
-77.20
-83.17
-89.49
-96.98
-106.18
-117.05
-128.65
-139.20
-146.42
-148.32
-143.83
-133.27
-118.24
-100.99
-83.65
-67.51
-52.83
-39.14
-25.66
-11.83
2.55
17.35
32.25
46.89
60.79
73.38
83.99
91.98
97.03
99.28
99.30
98.01
96.32
94.88
93.90
93.17
92.19
90.49
87.77
84.05
79.69
75.14
70.83
66.93
63.33
59.73
55.80
51.35
46.38
41.11
35.79
30.68
25.92
21.47
17.18
12.75
7.89
2.40
-3.68
-10.14
-16.59
-22.73
-28.49
-34.09
-39.91
-46.30
-53.39
-60.92
-68.47
-75.56
-81.93
-87.68
-93.30
-99.55
-107.25
-117.01
-128.85
-141.87
-154.25
-163.54
-167.36
-164.22
-154.06
-138.35
-119.51
-100.06
-81.81
-65.46
-50.69
-36.71
-22.72
-8.30
6.58
21.67
36.63
50.97
64.14
75.46
84.27
90.15
93.13
93.76
92.96
91.70
90.72
90.27
90.20
90.05
89.32
87.64
84.91
81.32
77.27
73.32
69.93
67.39
65.66
64.40
63.09
61.27
58.71
55.49
51.93
48.38
45.08
41.99
38.87
35.34
31.07
25.90
19.95
13.53
6.96
0.49
-5.85
-12.21
-18.82
-25.83
-33.25
-40.96
-48.68
-56.17
-63.25
-69.91
-76.41
-83.25
-91.12
-100.74
-112.42
-125.68
-139.03
-150.11
-156.22
-155.18
-146.12
-129.86
-108.66
-85.49
-63.02
-42.94
-25.67
-10.62
3.22
16.76
30.48
44.39
58.18
71.35
83.28
93.37
101.12
106.27
108.93
109.57
108.95
107.84
106.77
105.97
105.28
104.38
102.88
100.46
96.91
92.23
86.53
80.12
73.48
67.11
61.41
56.49
52.11
47.68
42.49
36.02
28.15
19.32
10.34
2.07
-4.95
-10.74
-15.91
-21.32
-27.69
-35.29
-43.82
-52.56
-60.77
-67.91
-73.89
-79.07
-84.15
-90.01
-97.48
-107.03
-118.43
-130.53
-141.25
-148.06
-148.65
-141.80
-127.78
-108.37
-86.25
-64.11
-43.85
-26.25
-11.03
2.65
15.69
28.63
41.53
54.07
65.73
76.01
84.55
91.11
95.66
98.29
99.24
98.85
97.51
95.67
93.69
91.81
90.09
88.41
86.45
83.86
80.31
75.69
70.10
63.85
57.40
51.17
45.40
40.10
35.10
30.10
24.85
19.22
13.26
7.17
1.24
-4.33
-9.51
-14.54
-19.81
-25.81
-32.80
-40.75
-49.25
-57.67
-65.45
-72.31
-78.41
-84.36
-90.99
-99.13
-109.33
-121.50
-134.73
-147.24
-156.66
-160.61
-157.40
-146.69
-129.69
-108.80
-86.84
-66.17
-48.07
-32.56
-18.78
-5.57
7.96
22.15
36.76
51.24
64.90
77.06
87.14
94.76
99.71
102.13
102.43
101.29
99.46
97.57
95.98
94.70
93.51
92.01
89.87
86.86
82.98
78.40
73.42
68.34
63.44
58.84
54.54
50.37
46.07
41.41
36.17
30.30
23.87
17.13
10.42
4.14
-1.47
-6.42
-11.00
-15.75
-21.20
-27.69
-35.22
-43.40
-51.67
-59.46
-66.49
-72.79
-78.71
-84.86
-91.91
-100.49
-110.82
-122.49
-134.17
-143.79
-148.91
-147.60
-139.09
-124.19
-105.04
-84.33
-64.44
-46.76
-31.54
-18.15
-5.72
6.51
18.95
31.65
44.42
56.88
68.47
78.55
86.53
92.03
95.05
95.94
95.30
93.80
91.96
90.13
88.48
87.00
85.58
84.00
81.97
79.24
75.66
71.24
66.16
60.72
55.25
49.98
45.05
40.50
36.29
32.26
28.24
23.99
19.33
14.16
8.54
2.72
-3.02
-8.43
-13.39
-18.00
-22.53
-27.34
-32.67
-38.61
-44.99
-51.44
-57.53
-63.01
-67.89
-72.57
-77.73
-84.15
-92.44
-102.66
-114.09
-125.11
-133.50
-136.98
-134.00
-124.29
-109.06
-90.63
-71.60
-54.02
-38.86
-26.00
-14.69
-4.06
6.42
16.90
27.22
37.12
46.30
54.41
61.12
66.11
69.27
70.75
70.99
70.59
70.13
69.97
70.17
70.49
70.47
69.67
67.75
64.61
60.48
55.79
51.07
46.71
42.83
39.25
35.59
31.50
26.81
21.59
16.17
10.91
6.12
1.84
-2.14
-6.27
-11.04
-16.79
-23.57
-31.10
-38.79
-45.98
-52.19
-57.39
-62.09
-67.26
-74.01
-83.11
-94.62
-107.57
-120.04
-129.56
-133.79
-131.26
-121.82
-106.79
-88.44
-69.31
-51.49
-36.06
-23.03
-11.66
-0.94
9.96
21.41
33.36
45.42
57.02
67.47
76.10
82.32
85.85
86.83
85.85
83.83
81.74
80.28
79.65
79.58
79.52
78.90
77.36
74.84
71.55
67.78
63.83
59.92
56.12
52.44
48.76
44.94
40.83
36.38
31.70
27.01
22.52
18.34
14.37
10.36
6.05
1.35
-3.59
-8.47
-13.03
-17.22
-21.29
-25.68
-30.82
-36.89
-43.70
-50.81
-57.69
-63.97
-69.61
-74.92
-80.47
-86.93
-94.86
-104.39
-115.02
-125.42
-133.54
-137.17
-134.65
-125.53
-110.86
-92.89
-74.23
-56.93
-41.96
-29.13
-17.61
-6.49
4.85
16.57
28.55
40.51
52.08
62.81
72.10
79.35
84.14
86.38
86.40
84.89
82.68
80.49
78.77
77.59
76.73
75.77
74.34
72.18
69.28
65.87
62.26
58.78
55.66
52.95
50.50
48.08
45.40
42.24
38.53
34.35
29.94
25.62
21.66
18.19
15.06
11.98
8.56
4.50
-0.24
-5.40
-10.56
-15.31
-19.51
-23.38
-27.38
-32.00
-37.57
-44.02
-50.93
-57.71
-63.81
-68.93
-73.13
-76.83
-80.68
-85.49
-91.98
-100.53
-110.84
-121.68
-131.01
-136.41
-135.91
-128.62
-115.24
-97.78
-78.89
-60.87
-45.07
-31.71
-20.13
-9.41
1.23
12.18
23.50
35.03
46.44
57.26
66.89
74.70
80.21
83.29
84.18
83.46
81.87
80.08
78.57
77.54
76.93
76.51
75.87
74.63
72.50
69.40
65.52
61.24
57.00
53.09
49.58
46.34
43.10
39.66
35.91
31.91
27.84
23.90
20.33
17.23
14.53
11.96
9.13
5.72
1.58
-3.12
-7.96
-12.50
-16.54
-20.20
-23.90
-28.10
-33.11
-38.87
-44.99
-50.91
-56.17
-60.57
-64.30
-67.88
-72.02
-77.47
-84.79
-94.06
-104.68
-115.15
-123.32
-126.83
-123.90
-114.05
-98.37
-79.24
-59.53
-41.64
-26.83
-15.14
-5.66
2.77
11.11
19.86
29.06
38.47
47.59
55.87
62.80
67.99
71.31
72.91
73.16
72.57
71.63
70.78
70.32
70.34
70.69
70.97
70.70
69.41
66.92
63.36
59.15
54.83
50.81
47.32
44.33
41.61
38.85
35.77
32.26
28.41
24.52
20.94
17.93
15.43
13.12
10.48
7.04
2.64
-2.53
-8.01
-13.28
-18.00
-22.14
-25.98
-29.95
-34.50
-39.89
-46.07
-52.71
-59.32
-65.44
-70.88
-75.82
-80.79
-86.56
-93.79
-102.78
-113.22
-123.96
-133.12
-138.48
-138.05
-130.84
-117.24
-99.02
-78.81
-59.24
-42.12
-28.09
-16.73
-6.99
2.22
11.65
21.59
31.97
42.42
52.44
61.44
68.88
74.39
77.85
79.42
79.52
78.75
77.74
77.04
76.96
77.49
78.25
78.67
78.13
76.27
73.13
69.10
64.81
60.84
57.48
54.71
52.21
49.55
46.40
42.63
38.41
34.06
29.91
26.19
22.87
19.72
16.37
12.50
7.93
2.71
-2.88
-8.47
-13.74
-18.52
-22.96
-27.40
-32.28
-37.90
-44.30
-51.16
-58.04
-64.48
-70.29
-75.63
-80.97
-86.97
-94.34
-103.62
-114.86
-127.30
-139.31
-148.47
-152.25
-148.85
-137.97
-121.04
-100.77
-80.24
-61.81
-46.56
-34.21
-23.68
-13.76
-3.55
7.33
18.89
30.85
42.82
54.20
64.34
72.58
78.49
82.05
83.73
84.24
84.36
84.62
85.10
85.60
85.70
85.01
83.31
80.59
77.00
72.80
68.31
63.80
59.55
55.73
52.42
49.52
46.84
44.11
41.08
37.58
33.61
29.27
24.73
20.21
15.87
11.81
7.99
4.27
0.42
-3.75
-8.37
-13.40
-18.64
-23.76
-28.44
-32.44
-35.77
-38.71
-41.92
-46.23
-52.45
-60.95
-71.31
-82.09
-91.08
-95.90
-94.80
-87.32
-74.48
-58.44
-41.69
-26.26
-13.23
-2.68
5.97
13.50
20.52
27.34
33.99
40.27
45.87
50.41
53.58
55.24
55.47
54.56
52.94
51.02
49.08
47.22
45.42
43.50
41.26
38.51
35.13
31.15
26.76
22.38
18.47
15.42
13.39
12.17
11.25
9.98
7.78
4.41
-0.02
-5.07
-10.17
-14.89
-19.07
-22.97
-27.04
-31.83
-37.60
-44.33
-51.62
-58.97
-65.91
-72.24
-78.17
-84.24
-91.28
-100.08
-111.09
-124.00
-137.44
-149.10
-156.22
-156.50
-148.94
-134.35
-115.05
-94.10
-74.19
-56.82
-42.15
-29.28
-16.99
-4.26
9.43
24.11
39.51
55.11
70.22
84.00
95.55
104.14
109.52
111.97
112.31
111.56
110.64
110.10
109.98
109.95
109.53
108.29
106.00
102.70
98.61
93.95
88.94
83.74
78.44
73.15
67.96
62.84
57.68
52.21
46.12
39.26
31.70
23.84
16.22
9.31
3.29
-2.11
-7.42
-13.30
-20.20
-28.16
-36.87
-45.73
-54.15
-61.78
-68.57
-74.86
-81.23
-88.54
-97.56
-108.84
-122.26
-136.70
-149.94
-159.17
-161.68
-155.91
-142.15
-122.46
-100.04
-78.06
-58.59
-42.18
-28.06
-14.88
-1.41
12.92
28.04
43.45
58.53
72.67
85.30
95.87
103.88
109.10
111.62
111.95
110.95
109.51
108.38
107.88
107.92
108.11
107.83
106.54
103.88
99.80
94.52
88.49
82.19
75.99
70.13
64.64
59.42
54.29
48.99
43.27
36.94
29.97
22.57
15.15
8.12
1.74
-4.11
-9.89
-16.16
-23.33
-31.42
-40.02
-48.47
-56.20
-62.91
-68.78
-74.39
-80.55
-88.12
-97.77
-109.67
-123.20
-136.74
-147.88
-153.97
-152.99
-144.34
-129.13
-109.83
-89.36
-70.09
-53.21
-38.56
-25.13
-11.79
2.21
17.00
32.15
46.91
60.49
72.19
81.49
88.21
92.47
94.71
95.59
95.72
95.60
95.47
95.36
95.19
94.81
94.00
92.49
89.96
86.20
81.26
75.53
69.57
63.91
58.79
53.99
49.00
43.26
36.53
29.00
21.32
14.17
8.05
2.98
-1.54
-6.26
-11.84
-18.61
-26.36
-34.50
-42.36
-49.44
-55.65
-61.33
-67.06
-73.56
-81.50
-91.23
-102.54
-114.43
-125.03
-132.00
-133.17
-127.35
-114.91
-97.69
-78.38
-59.50
-42.66
-28.19
-15.46
-3.40
8.82
21.54
34.57
47.36
59.23
69.55
77.91
84.19
88.50
91.11
92.34
92.46
91.70
90.32
88.60
86.86
85.25
83.66
81.75
79.07
75.30
70.42
64.80
58.99
53.52
48.64
44.23
39.88
35.14
29.67
23.45
16.78
10.11
3.83
-1.92
-7.35
-12.91
-19.13
-26.30
-34.39
-42.98
-51.49
-59.34
-66.27
-72.32
-77.94
-83.80
-90.65
-99.09
-109.40
-121.17
-133.20
-143.45
-149.54
-149.42
-142.17
-128.45
-110.38
-90.71
-71.88
-55.17
-40.51
-26.94
-13.26
1.27
16.73
32.70
48.51
63.53
77.14
88.76
97.79
103.78
106.63
106.71
104.82
101.99
99.13
96.85
95.32
94.30
93.35
91.93
89.66
86.37
82.14
77.29
72.23
67.34
62.85
58.80
55.07
51.38
47.52
43.31
38.74
33.93
29.15
24.66
20.61
16.97
13.47
9.72
5.34
0.18
-5.64
-11.73
-17.60
-22.86
-27.43
-31.58
-35.79
-40.56
-46.18
-52.55
-59.27
-65.79
-71.65
-76.69
-81.05
-85.18
-89.68
-95.25
-102.51
-111.82
-122.91
-134.68
-145.10
-151.66
-152.13
-145.43
-132.10
-114.24
-94.68
-76.00
-59.66
-45.72
-33.28
-21.11
-8.35
5.23
19.31
33.36
46.80
59.14
69.89
78.58
84.83
88.46
89.73
89.24
87.85
86.37
85.33
84.89
84.87
84.84
84.34
83.02
80.73
77.50
73.55
69.16
64.61
60.10
55.75
51.59
47.57
43.60
39.54
35.31
30.86
26.30
21.80
17.51
13.46
9.52
5.44
0.96
-3.98
-9.24
-14.47
-19.30
-23.55
-27.31
-31.00
-35.17
-40.28
-46.42
-53.26
-60.21
-66.60
-72.11
-76.79
-81.11
-85.76
-91.46
-98.80
-108.07
-119.04
-130.71
-141.20
-148.08
-149.07
-142.92
-129.98
-112.22
-92.51
-73.61
-57.18
-43.56
-31.95
-21.10
-9.96
2.03
14.83
28.06
41.09
53.24
63.80
72.22
78.16
81.61
82.90
82.62
81.49
80.15
79.11
78.56
78.44
78.49
78.34
77.63
76.06
73.46
69.85
65.42
60.56
55.71
51.32
47.55
44.33
41.32
38.09
34.35
30.03
25.26
20.25
15.17
10.11
5.07
0.01
-5.15
-10.49
-16.16
-22.29
-28.93
-35.94
-43.08
-49.95
-56.21
-61.71
-66.58
-71.25
-76.44
-82.92
-91.26
-101.37
-112.31
-122.18
-128.59
-129.35
-123.37
-111.04
-94.24
-75.62
-57.72
-42.14
-29.18
-18.16
-7.91
2.52
13.50
24.73
35.53
45.17
53.13
59.30
63.83
67.05
69.29
70.78
71.67
72.14
72.40
72.63
72.97
73.30
73.34
72.68
70.97
68.12
64.35
60.11
55.89
51.99
48.33
44.53
40.09
34.66
28.21
21.14
14.09
7.60
2.00
-2.86
-7.48
-12.46
-18.35
-25.35
-33.30
-41.68
-49.87
-57.36
-63.99
-70.06
-76.27
-83.53
-92.65
-103.90
-116.69
-129.43
-139.69
-144.87
-142.99
-133.50
-117.54
-97.60
-76.66
-57.14
-40.25
-25.88
-13.08
-0.67
12.16
25.75
39.99
54.53
68.83
82.16
93.64
102.41
107.89
110.04
109.47
107.23
104.47
102.09
100.45
99.40
98.46
97.13
95.04
92.06
88.30
84.05
79.57
75.11
70.77
66.52
62.25
57.86
53.27
48.49
43.55
38.48
33.28
27.87
22.16
16.08
9.61
2.94
-3.63
-9.80
-15.39
-20.52
-25.52
-30.83
-36.71
-43.09
-49.62
-55.89
-61.67
-67.09
-72.64
-78.99
-86.81
-96.46
-107.77
-119.80
-130.80
-138.55
-140.84
-136.32
-125.02
-108.43
-89.04
-69.45
-51.57
-36.12
-22.76
-10.58
1.35
13.52
25.93
38.25
50.01
60.76
70.15
77.87
83.70
87.45
89.13
88.98
87.54
85.49
83.46
81.82
80.59
79.52
78.20
76.29
73.61
70.21
66.31
62.20
58.14
54.25
50.47
46.59
42.38
37.77
32.82
27.87
23.24
19.16
15.56
12.12
8.44
4.22
-0.58
-5.74
-10.95
-15.92
-20.61
-25.13
-29.74
-34.65
-39.87
-45.20
-50.31
-54.92
-58.96
-62.62
-66.35
-70.73
-76.35
-83.61
-92.55
-102.56
-112.28
-119.77
-122.91
-120.16
-111.21
-97.21
-80.38
-63.26
-47.80
-34.81
-24.01
-14.47
-5.25
4.25
14.04
23.81
33.02
41.13
47.75
52.67
55.92
57.75
58.54
58.68
58.47
58.08
57.58
57.01
56.38
55.68
54.78
53.48
51.53
48.75
45.22
41.20
37.12
33.27
29.76
26.39
22.79
18.65
13.87
8.66
3.44
-1.39
-5.68
-9.60
-13.58
-18.03
-23.21
-29.07
-35.33
-41.58
-47.48
-52.80
-57.62
-62.19
-67.09
-73.00
-80.38
-89.13
-98.18
-105.63
-109.26
-107.32
-99.28
-86.10
-69.93
-53.23
-37.94
-24.92
-13.98
-4.27
5.10
14.63
24.40
34.08
43.32
51.77
59.13
65.17
69.63
72.34
73.24
72.57
70.83
68.67
66.66
65.14
64.09
63.25
62.21
60.66
58.46
55.67
52.44
48.93
45.30
41.68
38.11
34.59
31.02
27.28
23.16
18.53
13.37
7.85
2.29
-2.94
-7.60
-11.74
-15.72
-20.14
-25.53
-32.08
-39.51
-47.13
-54.14
-60.01
-64.68
-68.55
-72.31
-76.75
-82.59
-90.29
-99.86
-110.51
-120.65
-127.98
-130.20
-125.84
-114.93
-99.10
-81.04
-63.41
-48.01
-35.35
-24.80
-15.17
-5.40
5.18
16.69
28.87
41.27
53.26
64.11
73.05
79.45
82.95
83.73
82.45
80.13
77.85
76.38
75.95
76.29
76.75
76.65
75.55
73.29
70.04
66.10
61.85
57.55
53.40
49.44
45.61
41.78
37.82
33.67
29.41
25.17
21.11
17.30
13.75
10.32
6.85
3.19
-0.80
-5.11
-9.67
-14.31
-18.91
-23.44
-28.07
-33.02
-38.48
-44.45
-50.67
-56.74
-62.27
-67.10
-71.39
-75.63
-80.53
-86.90
-95.32
-105.82
-117.50
-128.52
-136.38
-138.70
-134.06
-122.60
-106.08
-87.19
-68.59
-52.13
-38.36
-26.81
-16.43
-6.21
4.46
15.80
27.66
39.71
51.42
62.17
71.22
77.95
82.02
83.58
83.21
81.85
80.41
79.55
79.44
79.85
80.24
80.04
78.82
76.45
73.06
69.03
64.79
60.74
57.14
54.00
51.10
48.18
45.02
41.49
37.68
33.73
29.76
25.85
21.96
17.95
13.67
8.99
3.93
-1.34
-6.57
-11.51
-16.07
-20.46
-25.08
-30.34
-36.44
-43.20
-50.09
-56.48
-61.93
-66.39
-70.29
-74.42
-79.71
-86.97
-96.54
-107.96
-119.80
-129.72
-135.13
-133.89
-125.25
-110.19
-91.10
-71.03
-52.52
-36.95
-24.32
-13.71
-3.89
6.07
16.58
27.53
38.53
49.09
58.67
66.75
72.91
76.89
78.76
78.96
78.20
77.27
76.80
77.08
78.01
79.15
79.93
79.80
78.44
75.79
72.04
67.58
62.84
58.24
54.01
50.16
46.50
42.78
38.81
34.57
30.18
25.76
21.41
17.03
12.49
7.66
2.58
-2.65
-7.90
-13.17
-18.65
-24.63
-31.33
-38.77
-46.72
-54.72
-62.33
-69.22
-75.35
-80.98
-86.66
-93.15
-101.23
-111.43
-123.59
-136.62
-148.45
-156.43
-158.11
-152.11
-138.69
-119.76
-98.21
-76.94
-57.92
-41.79
-28.01
-15.41
-2.87
10.32
24.30
38.78
53.22
66.95
79.26
89.46
97.05
101.80
103.90
103.87
102.52
100.72
99.20
98.37
98.25
98.50
98.59
97.95
96.25
93.40
89.62
85.28
80.76
76.26
71.90
67.62
63.36
59.03
54.64
50.24
45.92
41.77
37.77
33.80
29.62
24.95
19.66
13.80
7.67
1.64
-4.01
-9.29
-14.57
-20.42
-27.33
-35.49
-44.60
-53.99
-62.91
-70.79
-77.50
-83.33
-88.99
-95.33
-103.21
-113.25
-125.44
-138.90
-151.64
-160.92
-163.91
-158.73
-145.22
-125.13
-101.54
-77.82
-56.43
-38.46
-23.54
-10.52
1.79
14.18
26.89
39.75
52.46
64.61
75.74
85.30
92.76
97.75
100.26
100.75
99.96
98.77
97.85
97.50
97.62
97.81
97.54
96.31
93.83
90.10
85.38
80.14
74.83
69.77
65.00
60.37
55.65
50.76
45.76
40.90
36.43
32.43
28.77
25.11
21.09
16.43
11.12
5.39
-0.40
-5.94
-11.14
-16.22
-21.55
-27.48
-34.11
-41.29
-48.61
-55.65
-62.15
-68.07
-73.60
-79.11
-85.11
-92.24
-101.06
-111.73
-123.61
-134.96
-143.20
-145.60
-140.24
-126.91
-107.25
-84.26
-61.28
-40.89
-24.25
-11.13
-0.37
9.34
18.97
28.86
38.83
48.44
57.17
64.62
70.55
74.90
77.80
79.50
80.33
80.61
80.59
80.48
80.38
80.35
80.33
80.13
79.42
77.86
75.19
71.37
66.62
61.33
55.99
50.92
46.34
42.18
38.27
34.34
30.13
25.48
20.35
14.89
9.31
3.85
-1.34
-6.28
-11.23
-16.58
-22.69
-29.78
-37.71
-46.10
-54.44
-62.26
-69.41
-76.05
-82.66
-89.86
-98.28
-108.41
-120.37
-133.69
-147.03
-158.26
-164.77
-164.30
-155.75
-139.70
-118.33
-94.77
-71.99
-51.97
-35.29
-21.37
-9.04
2.85
15.05
27.90
41.31
54.97
68.28
80.49
90.73
98.27
102.77
104.38
103.79
101.99
99.96
98.36
97.40
96.87
96.30
95.17
93.19
90.35
86.91
83.20
79.44
75.67
71.70
67.37
62.64
57.65
52.62
47.70
42.83
37.75
32.15
25.87
19.04
11.97
5.11
-1.24
-7.02
-12.45
-17.94
-23.98
-30.88
-38.67
-47.04
-55.39
-63.19
-70.08
-76.15
-81.91
-88.22
-96.01
-105.95
-118.18
-131.95
-145.49
-156.23
-161.43
-158.95
-148.13
-130.12
-107.54
-83.71
-61.48
-42.56
-27.18
-14.55
-3.42
7.36
18.50
30.24
42.46
54.78
66.56
77.06
85.55
91.50
94.78
95.77
95.23
94.07
93.06
92.58
92.59
92.71
92.45
91.36
89.21
85.96
81.77
76.92
71.76
66.59
61.67
57.10
52.87
48.85
44.85
40.68
36.18
31.25
25.86
20.05
13.95
7.78
1.79
-3.84
-9.10
-14.18
-19.41
-25.15
-31.62
-38.70
-46.06
-53.19
-59.70
-65.52
-70.91
-76.55
-83.31
-91.99
-103.00
-116.01
-129.72
-141.89
-149.83
-151.13
-144.49
-130.31
-110.56
-88.19
-66.17
-46.60
-30.36
-17.18
-6.14
3.78
13.40
23.16
33.15
43.19
52.87
61.65
68.96
74.37
77.75
79.30
79.52
79.01
78.39
78.05
78.12
78.41
78.43
77.63
75.56
72.10
67.52
62.36
57.21
52.40
47.93
43.46
38.57
33.01
26.84
20.37
14.03
8.11
2.61
-2.73
-8.36
-14.71
-21.99
-30.10
-38.66
-47.09
-54.89
-61.84
-68.16
-74.45
-81.60
-90.49
-101.60
-114.61
-128.27
-140.36
-148.23
-149.52
-142.99
-129.06
-109.74
-88.01
-66.80
-48.10
-32.60
-19.76
-8.40
2.65
14.25
26.72
39.99
53.62
66.92
78.94
88.71
95.49
99.01
99.66
98.31
96.10
93.95
92.47
91.76
91.55
91.36
90.72
89.21
86.57
82.79
78.06
72.78
67.41
62.26
57.42
52.66
47.56
41.71
34.91
27.34
19.51
12.05
5.38
-0.44
-5.79
-11.36
-17.81
-25.50
-34.28
-43.63
-52.82
-61.31
-68.89
-75.81
-82.66
-90.26
-99.43
-110.72
-123.97
-138.03
-150.72
-159.16
-160.73
-153.93
-139.09
-118.39
-95.09
-72.43
-52.60
-36.28
-22.82
-10.85
0.99
13.62
27.28
41.70
56.24
70.07
82.35
92.35
99.63
104.08
105.96
105.81
104.39
102.43
100.53
99.06
98.06
97.30
96.31
94.61
91.85
87.93
83.03
77.57
72.05
66.85
62.17
57.97
53.98
49.84
45.22
39.88
33.74
26.92
19.67
12.35
5.28
-1.32
-7.41
-13.17
-18.93
-25.10
-31.98
-39.59
-47.65
-55.62
-62.95
-69.25
-74.56
-79.37
-84.61
-91.39
-100.70
-112.88
-127.25
-141.92
-154.03
-160.52
-159.12
-149.15
-131.87
-110.04
-86.98
-65.48
-47.09
-31.93
-19.15
-7.55
3.88
15.71
28.00
40.44
52.50
63.50
72.80
79.91
84.59
86.93
87.35
86.54
85.24
84.18
83.82
84.29
85.27
86.09
85.97
84.24
80.63
75.43
69.35
63.23
57.73
53.04
48.89
44.65
39.70
33.66
26.61
19.08
11.73
5.13
-0.55
-5.64
-10.77
-16.65
-23.69
-31.83
-40.55
-49.13
-56.98
-63.87
-70.11
-76.43
-83.73
-92.81
-104.03
-116.95
-130.16
-141.28
-147.58
-146.78
-137.88
-121.68
-100.61
-77.87
-56.37
-37.88
-22.68
-9.97
1.58
13.11
25.22
37.91
50.75
63.08
74.16
83.33
90.16
94.52
96.58
96.81
95.82
94.23
92.54
91.10
90.04
89.25
88.43
87.14
84.95
81.56
76.95
71.35
65.19
58.96
53.10
47.82
43.11
38.72
34.23
29.19
23.29
16.52
9.18
1.82
-4.96
-10.84
-15.89
-20.63
-25.78
-31.95
-39.36
-47.75
-56.49
-64.83
-72.21
-78.43
-83.76
-88.86
-94.68
-102.23
-112.25
-124.80
-138.91
-152.41
-162.34
-165.75
-160.71
-147.09
-126.73
-102.78
-78.69
-57.02
-38.89
-23.97
-11.06
1.23
13.86
27.19
41.04
54.92
68.22
80.34
90.71
98.78
104.22
106.94
107.30
106.00
104.01
102.22
101.21
101.01
101.19
101.04
99.88
97.31
93.33
88.28
82.62
76.82
71.14
65.65
60.29
54.95
49.56
44.12
38.64
33.09
27.39
21.41
15.07
8.42
1.65
-5.00
-11.40
-17.63
-23.97
-30.77
-38.28
-46.46
-54.98
-63.30
-70.91
-77.52
-83.24
-88.57
-94.34
-101.49
-110.81
-122.53
-136.01
-149.49
-160.38
-165.83
-163.65
-153.09
-135.28
-112.82
-88.99
-66.64
-47.37
-31.36
-17.70
-5.05
7.65
20.96
34.79
48.67
61.86
73.59
83.16
90.14
94.42
96.31
96.41
95.45
94.11
92.88
92.00
91.48
91.18
90.80
89.93
88.19
85.30
81.24
76.20
70.58
64.82
59.24
53.96
48.94
44.00
38.97
33.72
28.23
22.60
16.95
11.47
6.26
1.39
-3.21
-7.71
-12.38
-17.56
-23.52
-30.39
-38.02
-46.02
-53.81
-60.84
-66.81
-71.83
-76.42
-81.43
-87.75
-96.16
-106.86
-119.31
-132.00
-142.56
-148.32
-147.04
-137.72
-121.12
-99.55
-76.21
-54.12
-35.22
-19.99
-7.71
3.00
13.39
24.19
35.44
46.65
57.07
66.04
73.05
77.99
80.99
82.42
82.73
82.38
81.76
81.18
80.86
80.89
81.19
81.46
81.24
80.03
77.48
73.48
68.31
62.48
56.65
51.31
46.62
42.34
37.96
32.88
26.74
19.67
12.12
4.80
-1.77
-7.35
-12.23
-16.95
-22.18
-28.41
-35.76
-44.00
-52.67
-61.23
-69.27
-76.59
-83.38
-90.14
-97.66
-106.85
-118.27
-131.73
-145.88
-158.27
-165.85
-165.99
-157.48
-141.01
-119.06
-94.98
-71.89
-51.72
-34.96
-20.95
-8.49
3.58
15.98
29.02
42.61
56.43
69.86
82.14
92.45
100.13
104.87
106.84
106.67
105.29
103.63
102.34
101.67
101.40
101.02
99.95
97.79
94.39
89.91
84.69
79.10
73.51
68.16
63.15
58.47
53.98
49.49
44.81
39.76
34.22
28.16
21.64
14.83
8.02
1.54
-4.37
-9.69
-14.69
-19.92
-25.97
-33.21
-41.55
-50.48
-59.28
-67.28
-74.20
-80.27
-86.08
-92.48
-100.29
-110.13
-122.11
-135.50
-148.61
-158.90
-163.57
-160.47
-148.92
-130.11
-106.73
-82.10
-59.12
-39.42
-23.22
-9.67
2.48
14.30
26.38
38.81
51.26
63.23
74.09
83.29
90.39
95.21
97.84
98.65
98.22
97.18
96.07
95.21
94.65
94.19
93.49
92.16
89.93
86.67
82.42
77.42
71.92
66.23
60.59
55.17
50.07
45.32
40.86
36.47
31.92
26.97
21.53
15.69
9.71
3.84
-1.77
-7.25
-12.92
-19.18
-26.28
-34.19
-42.56
-50.86
-58.58
-65.35
-71.13
-76.18
-81.05
-86.54
-93.47
-102.50
-113.81
-126.70
-139.41
-149.36
-153.76
-150.58
-139.34
-121.41
-99.53
-76.91
-56.16
-38.63
-24.36
-12.48
-1.85
8.43
18.84
29.44
40.04
50.23
59.47
67.19
72.89
76.37
77.83
77.85
77.23
76.72
76.82
77.57
78.62
79.38
79.19
77.63
74.62
70.40
65.41
60.13
54.84
49.63
44.36
38.86
33.07
27.06
21.02
15.16
9.54
3.99
-1.77
-8.04
-15.02
-22.61
-30.53
-38.38
-45.82
-52.73
-59.34
-66.17
-73.92
-83.28
-94.66
-107.86
-121.82
-134.56
-143.47
-146.05
-140.76
-127.66
-108.58
-86.52
-64.63
-45.16
-28.98
-15.63
-3.97
7.17
18.51
30.28
42.34
54.33
65.79
76.10
84.57
90.60
93.89
94.59
93.28
90.87
88.28
86.24
85.07
84.65
84.45
83.73
81.82
78.36
73.50
67.81
61.99
56.57
51.72
47.14
42.36
37.01
30.94
24.37
17.66
11.12
4.82
-1.43
-8.04
-15.41
-23.72
-32.81
-42.18
-51.20
-59.35
-66.46
-72.87
-79.30
-86.66
-95.75
-106.95
-119.90
-133.35
-145.20
-152.96
-154.38
-148.26
-134.92
-116.22
-94.95
-73.89
-54.96
-38.83
-24.99
-12.34
0.21
13.34
27.18
41.43
55.54
68.82
80.60
90.24
97.30
101.62
103.42
103.24
101.87
100.16
98.80
98.15
98.13
98.29
97.99
96.63
93.82
89.55
84.15
78.12
72.00
66.16
60.77
55.79
51.02
46.15
40.91
35.07
28.60
21.67
14.69
8.13
2.31
-2.74
-7.38
-12.26
-18.02
-25.00
-33.06
-41.68
-50.16
-57.94
-64.89
-71.23
-77.47
-84.22
-92.09
-101.52
-112.56
-124.57
-136.06
-144.77
-148.23
-144.61
-133.55
-116.40
-95.90
-75.09
-56.32
-40.56
-27.37
-15.53
-3.77
8.62
21.59
34.56
46.76
57.56
66.60
73.79
79.15
82.74
84.68
85.19
84.64
83.58
82.59
82.05
82.01
82.11
81.77
80.43
77.79
73.91
69.20
64.15
59.13
54.30
49.53
44.54
39.10
33.17
26.90
20.61
14.58
8.91
3.47
-2.10
-8.18
-14.97
-22.39
-30.11
-37.62
-44.54
-50.66
-56.12
-61.39
-67.16
-74.23
-83.20
-94.01
-105.71
-116.34
-123.39
-124.57
-118.70
-106.20
-89.06
-70.04
-51.78
-35.88
-22.69
-11.52
-1.29
8.95
19.63
30.66
41.53
51.62
60.29
67.12
71.92
74.76
75.98
76.10
75.68
75.20
74.96
75.01
75.14
74.99
74.18
72.39
69.52
65.72
61.30
56.66
52.10
47.77
43.57
39.28
34.59
29.32
23.46
17.23
10.97
4.98
-0.61
-5.93
-11.30
-17.07
-23.46
-30.40
-37.62
-44.75
-51.51
-57.81
-63.86
-70.08
-77.03
-85.28
-95.22
-106.66
-118.64
-129.29
-136.23
-137.28
-131.32
-118.83
-101.78
-82.94
-64.85
-48.99
-35.51
-23.63
-12.25
-0.56
11.71
24.37
37.03
49.22
60.46
70.24
78.05
83.52
86.60
87.60
87.17
86.08
84.94
84.09
83.53
82.99
82.15
80.77
78.72
76.03
72.79
69.09
65.07
60.83
56.47
52.12
47.87
43.74
39.70
35.62
31.37
26.81
21.88
16.60
11.11
5.60
0.25
-4.85
-9.72
-14.56
-19.60
-25.07
-31.05
-37.41
-43.91
-50.20
-56.05
-61.39
-66.38
-71.34
-76.74
-83.12
-90.92
-100.39
-111.23
-122.48
-132.41
-138.90
-140.05
-134.87
-123.68
-108.08
-90.41
-72.91
-57.07
-43.31
-31.17
-19.80
-8.43
3.37
15.60
27.98
40.01
51.13
60.77
68.42
73.79
76.91
78.13
78.10
77.54
77.11
77.15
77.69
78.41
78.83
78.45
77.00
74.41
70.89
66.76
62.34
57.87
53.46
49.21
45.16
41.32
37.69
34.15
30.51
26.56
22.11
17.13
11.73
6.16
0.70
-4.45
-9.24
-13.85
-18.60
-23.88
-29.93
-36.78
-44.12
-51.46
-58.26
-64.18
-69.23
-73.79
-78.49
-84.08
-91.28
-100.51
-111.57
-123.39
-134.07
-141.18
-142.48
-136.76
-124.35
-107.09
-87.70
-68.84
-52.25
-38.43
-26.85
-16.41
-6.09
4.68
15.94
27.22
37.87
47.20
54.74
60.30
64.03
66.24
67.35
67.75
67.82
67.83
67.99
68.35
68.79
68.99
68.59
67.30
65.00
61.84
58.15
54.28
50.51
46.93
43.51
40.12
36.61
32.90
28.94
24.72
20.23
15.50
10.60
5.64
0.78
-3.90
-8.37
-12.77
-17.29
-22.15
-27.54
-33.56
-40.15
-47.16
-54.31
-61.35
-68.08
-74.53
-81.01
-88.14
-96.72
-107.46
-120.51
-135.10
-149.44
-160.95
-166.96
-165.63
-156.57
-141.02
-121.43
-100.61
-80.78
-63.02
-47.28
-32.80
-18.63
-4.03
11.33
27.48
44.17
60.92
76.99
91.41
103.29
111.98
117.36
119.89
120.47
120.08
119.51
119.19
119.15
119.10
118.61
117.26
114.77
111.16
106.68
101.83
97.03
92.51
88.18
83.72
78.76
73.14
66.94
60.51
54.19
48.25
42.64
37.14
31.44
25.30
18.68
11.69
4.60
-2.36
-9.06
-15.56
-22.05
-28.78
-36.03
-43.94
-52.51
-61.54
-70.67
-79.50
-87.74
-95.35
-102.62
-110.23
-119.13
-130.17
-143.75
-159.24
-174.80
-187.57
-194.35
-192.61
-181.49
-162.16
-137.47
-110.99
-85.75
-63.47
-44.36
-27.51
-11.66
4.19
20.53
37.34
54.21
70.58
85.75
99.01
109.71
117.46
122.28
124.56
124.99
124.38
123.44
122.60
122.01
121.49
120.68
119.16
116.60
112.89
108.17
102.74
96.93
90.98
84.99
78.97
72.91
66.79
60.61
54.35
47.93
41.25
34.22
26.86
19.32
11.85
4.69
-2.03
-8.43
-14.87
-21.81
-29.59
-38.30
-47.64
-57.02
-65.82
-73.70
-80.70
-87.31
-94.32
-102.61
-112.93
-125.54
-139.93
-154.64
-167.26
-174.93
-175.09
-166.41
-149.32
-125.97
-99.50
-73.06
-48.88
-27.88
-9.84
6.11
20.87
35.01
48.72
61.79
73.87
84.55
93.48
100.46
105.48
108.70
110.42
111.00
110.89
110.49
110.10
109.86
109.61
108.88
107.04
103.53
98.13
91.08
83.06
74.96
67.52
61.09
55.45
49.94
43.76
36.38
27.76
18.38
9.06
0.54
-6.89
-13.56
-20.21
-27.72
-36.61
-46.85
-57.92
-69.03
-79.53
-89.15
-98.09
-106.99
-116.75
-128.25
-141.95
-157.53
-173.55
-187.50
-196.36
-197.37
-189.03
-171.68
-147.41
-119.42
-90.99
-64.54
-41.19
-20.84
-2.64
14.44
31.26
48.27
65.55
82.72
99.06
113.60
125.35
133.65
138.37
140.00
139.45
137.70
135.55
133.36
131.21
128.96
126.49
123.63
120.22
116.08
111.05
105.07
98.30
91.05
83.64
76.35
69.25
62.26
55.21
47.89
40.18
32.09
23.76
15.43
7.39
-0.25
-7.55
-14.81
-22.42
-30.78
-39.98
-49.83
-59.84
-69.40
-78.05
-85.63
-92.40
-99.06
-106.59
-116.07
-128.24
-143.16
-159.71
-175.60
-187.71
-192.87
-188.89
-175.38
-153.98
-127.87
-100.67
-75.29
-53.17
-34.18
-17.17
-0.73
16.07
33.50
51.19
68.42
84.48
98.68
110.51
119.58
125.71
128.97
129.79
128.87
126.98
124.81
122.75
120.85
118.93
116.66
113.70
109.82
104.89
98.95
92.16
84.84
77.40
70.20
63.51
57.33
51.44
45.41
38.84
31.58
23.72
15.68
7.96
0.98
-5.12
-10.58
-15.87
-21.56
-28.14
-35.83
-44.52
-53.79
-63.00
-71.53
-78.96
-85.34
-91.21
-97.51
-105.34
-115.49
-128.05
-142.05
-155.41
-165.36
-169.13
-164.88
-152.34
-133.04
-109.79
-85.74
-63.43
-44.12
-27.77
-13.56
-0.45
12.33
25.11
37.82
50.14
61.60
71.66
79.82
85.74
89.41
91.09
91.34
90.77
89.98
89.34
89.02
88.93
88.70
87.84
85.82
82.39
77.66
72.11
66.29
60.66
55.31
50.00
44.34
38.05
31.10
23.75
16.40
9.40
2.88
-3.25
-9.36
-15.85
-23.09
-31.18
-39.92
-48.93
-57.74
-66.00
-73.68
-81.06
-88.73
-97.43
-107.80
-119.97
-133.21
-145.76
-155.08
-158.52
-154.28
-142.16
-123.76
-101.90
-79.65
-59.30
-41.74
-26.61
-12.83
0.66
14.49
28.76
43.17
57.26
70.51
82.30
91.99
99.01
103.04
104.24
103.28
101.14
98.86
97.14
96.21
95.84
95.49
94.58
92.74
89.85
86.01
81.45
76.43
71.18
65.83
60.45
55.06
49.64
44.15
38.55
32.76
26.71
20.31
13.60
6.71
-0.07
-6.43
-12.12
-17.13
-21.73
-26.42
-31.74
-38.05
-45.39
-53.41
-61.54
-69.19
-75.98
-81.90
-87.36
-93.13
-100.11
-109.05
-120.07
-132.35
-143.98
-152.37
-154.98
-150.23
-138.17
-120.55
-100.18
-79.96
-61.94
-46.76
-33.87
-22.04
-10.14
2.50
15.93
29.78
43.49
56.48
68.20
78.07
85.60
90.46
92.65
92.60
91.11
89.12
87.39
86.32
85.82
85.49
84.72
83.06
80.29
76.50
72.07
67.45
63.00
58.89
55.03
51.16
47.00
42.37
37.28
31.85
26.23
20.56
14.93
9.40
4.10
-0.91
-5.60
-10.07
-14.57
-19.42
-24.88
-31.04
-37.75
-44.72
-51.50
-57.75
-63.28
-68.25
-73.08
-78.44
-85.07
-93.55
-103.95
-115.57
-126.81
-135.29
-138.61
-135.01
-124.16
-107.42
-87.44
-67.25
-49.22
-34.45
-22.66
-12.70
-3.30
6.38
16.54
26.86
36.79
45.77
53.46
59.66
64.38
67.75
69.97
71.27
71.90
72.11
72.13
72.18
72.35
72.54
72.46
71.63
69.62
66.21
61.61
56.38
51.29
46.98
43.73
41.31
39.07
36.28
32.35
27.15
21.02
14.56
8.41
2.95
-1.85
-6.39
-11.26
-16.96
-23.73
-31.46
-39.73
-47.96
-55.63
-62.46
-68.48
-74.06
-79.89
-86.84
-95.69
-106.73
-119.30
-131.65
-141.20
-145.23
-141.94
-131.13
-114.45
-94.69
-74.88
-57.13
-42.14
-29.29
-17.37
-5.28
7.47
20.70
33.84
46.25
57.45
67.14
75.09
81.13
85.14
87.15
87.49
86.71
85.54
84.61
84.28
84.54
85.04
85.23
84.60
82.85
79.98
76.24
72.04
67.74
63.53
59.36
55.08
50.53
45.68
40.67
35.68
30.88
26.29
21.78
17.14
12.17
6.80
1.09
-4.76
-10.59
-16.36
-22.18
-28.25
-34.74
-41.64
-48.73
-55.65
-62.06
-67.79
-72.91
-77.72
-82.73
-88.58
-95.88
-104.99
-115.72
-126.97
-136.75
-142.60
-142.37
-135.06
-121.32
-103.25
-83.64
-64.98
-48.65
-34.80
-22.63
-11.03
0.81
13.20
25.93
38.56
50.54
61.38
70.65
77.95
83.06
85.93
86.80
86.20
84.83
83.37
82.31
81.82
81.76
81.74
81.30
80.08
77.85
74.63
70.59
66.03
61.31
56.71
52.39
48.36
44.46
40.50
36.33
31.85
27.10
22.18
17.23
12.36
7.64
3.09
-1.33
-5.73
-10.28
-15.22
-20.72
-26.92
-33.72
-40.91
-48.10
-54.91
-61.14
-66.82
-72.27
-77.98
-84.57
-92.57
-102.14
-112.87
-123.57
-132.25
-136.64
-134.86
-126.13
-111.29
-92.55
-72.75
-54.43
-39.00
-26.52
-16.08
-6.46
3.22
13.33
23.73
34.07
43.96
53.04
60.91
67.18
71.52
73.88
74.53
74.09
73.25
72.63
72.48
72.72
72.96
72.69
71.46
69.08
65.63
61.42
56.96
52.68
48.83
45.37
41.95
38.13
33.49
27.87
21.48
14.73
8.16
2.07
-3.52
-8.93
-14.62
-20.96
-28.02
-35.54
-43.05
-50.13
-56.56
-62.46
-68.23
-74.45
-81.77
-90.79
-101.72
-114.10
-126.59
-137.01
-142.86
-142.14
-134.10
-119.65
-101.03
-81.04
-62.08
-45.49
-31.39
-19.08
-7.53
4.08
16.19
28.82
41.65
54.14
65.59
75.32
82.85
88.01
91.05
92.46
92.84
92.73
92.47
92.19
91.91
91.46
90.61
89.03
86.44
82.69
77.86
72.30
66.51
60.99
56.06
51.72
47.72
43.62
39.03
33.73
27.79
21.55
15.47
9.93
5.02
0.57
-3.95
-9.12
-15.44
-23.04
-31.65
-40.67
-49.36
-57.10
-63.68
-69.36
-74.85
-81.13
-89.10
-99.24
-111.19
-123.60
-134.26
-140.62
-140.62
-133.41
-119.75
-101.76
-82.20
-63.48
-47.01
-32.99
-20.74
-9.25
2.31
14.36
26.90
39.64
52.07
63.59
73.56
81.41
86.85
89.94
91.04
90.77
89.78
88.62
87.63
86.92
86.32
85.54
84.12
81.70
78.06
73.28
67.74
61.99
56.55
51.67
47.22
42.76
37.78
31.96
25.40
18.60
12.18
6.57
1.72
-2.84
-7.85
-13.89
-21.10
-29.11
-37.20
-44.62
-50.90
-56.08
-60.65
-65.45
-71.39
-79.18
-88.99
-100.12
-110.98
-119.27
-122.67
-119.53
-109.59
-94.10
-75.46
-56.40
-39.06
-24.56
-12.83
-3.06
5.82
14.64
23.79
33.22
42.51
51.13
58.53
64.34
68.41
70.85
71.98
72.19
71.89
71.37
70.80
70.21
69.49
68.42
66.76
64.31
61.00
56.95
52.39
47.63
42.91
38.30
33.69
28.90
23.76
18.25
12.48
6.56
0.51
-5.78
-12.50
-19.76
-27.46
-35.32
-42.94
-50.04
-56.53
-62.62
-68.75
-75.54
-83.57
-93.18
-104.17
-115.62
-125.80
-132.51
-133.72
-128.26
-116.38
-99.70
-80.72
-61.92
-45.03
-30.61
-18.24
-6.88
4.47
16.43
29.08
42.08
54.82
66.63
76.85
84.92
90.49
93.46
94.11
93.03
91.02
88.86
87.10
85.95
85.26
84.66
83.67
81.90
79.10
75.20
70.39
65.02
59.56
54.41
49.81
45.69
41.70
37.37
32.32
26.43
19.91
13.27
7.06
1.65
-2.98
-7.21
-11.68
-16.94
-23.30
-30.70
-38.74
-46.90
-54.70
-61.89
-68.50
-74.81
-81.34
-88.76
-97.61
-108.02
-119.30
-129.80
-137.17
-139.06
-133.99
-122.03
-104.87
-85.25
-65.94
-48.82
-34.45
-22.25
-11.15
-0.14
11.32
23.28
35.49
47.56
59.06
69.49
78.30
84.99
89.25
91.10
90.87
89.20
86.82
84.37
82.28
80.69
79.49
78.35
76.92
74.89
72.11
68.68
64.75
60.59
56.40
52.32
48.34
44.38
40.28
35.92
31.26
26.32
21.19
15.93
10.56
5.11
-0.35
-5.67
-10.76
-15.62
-20.43
-25.50
-31.06
-37.12
-43.42
-49.53
-55.15
-60.18
-64.85
-69.60
-75.00
-81.56
-89.71
-99.42
-110.07
-120.18
-127.68
-130.33
-126.63
-116.36
-100.83
-82.44
-63.81
-46.92
-32.61
-20.68
-10.33
-0.69
8.78
18.23
27.57
36.55
44.90
52.30
58.37
62.85
65.59
66.76
66.77
66.22
65.67
65.45
65.57
65.74
65.49
64.41
62.25
59.07
55.19
51.05
47.04
43.42
40.13
36.98
33.69
30.06
26.03
21.71
17.27
12.86
8.49
4.00
-0.90
-6.50
-12.92
-20.05
-27.55
-34.97
-41.92
-48.19
-53.88
-59.30
-64.98
-71.49
-79.36
-88.75
-99.25
-109.63
-117.88
-121.77
-119.58
-110.81
-96.59
-79.25
-61.55
-45.58
-32.19
-20.96
-10.77
-0.53
10.26
21.43
32.40
42.60
51.61
59.28
65.49
70.12
73.11
74.48
74.52
73.70
72.60
71.68
71.16
70.97
70.81
70.30
69.09
66.94
63.85
60.05
55.92
51.84
48.10
44.68
41.35
37.64
33.14
27.61
21.18
14.28
7.58
1.64
-3.26
-7.36
-11.25
-15.72
-21.37
-28.30
-36.13
-44.13
-51.60
-58.20
-64.04
-69.70
-75.99
-83.69
-93.33
-104.92
-117.72
-130.19
-140.14
-145.16
-143.47
-134.54
-119.43
-100.51
-80.63
-62.18
-46.40
-33.22
-21.65
-10.49
1.15
13.54
26.47
39.42
51.88
63.34
73.32
81.35
87.00
90.12
90.94
90.15
88.67
87.35
86.72
86.75
86.99
86.81
85.65
83.24
79.70
75.40
70.82
66.40
62.36
58.72
55.28
51.78
47.99
43.86
39.49
35.06
30.66
26.25
21.62
16.54
10.93
4.94
-1.08
-6.80
-12.10
-17.20
-22.54
-28.58
-35.56
-43.31
-51.38
-59.17
-66.25
-72.56
-78.45
-84.58
-91.79
-100.77
-111.76
-124.25
-136.76
-147.04
-152.57
-151.32
-142.60
-127.31
-107.74
-86.78
-66.89
-49.49
-34.74
-21.97
-10.15
1.51
13.42
25.61
37.88
49.88
61.11
71.03
79.09
84.92
88.49
90.09
90.31
89.78
88.99
88.27
87.69
87.19
86.59
85.68
84.21
81.99
78.90
74.99
70.48
65.69
60.94
56.44
52.23
48.19
44.16
40.00
35.64
31.09
26.38
21.49
16.40
11.12
5.66
0.12
-5.46
-11.05
-16.69
-22.48
-28.52
-34.83
-41.35
-47.92
-54.38
-60.58
-66.53
-72.45
-78.87
-86.45
-95.80
-106.91
-118.86
-129.66
-136.70
-137.56
-130.95
-117.33
-98.76
-78.23
-58.54
-41.50
-27.53
-15.96
-5.64
4.46
14.92
25.81
36.82
47.48
57.28
65.77
72.63
77.72
81.09
83.01
83.83
83.95
83.72
83.37
82.98
82.46
81.62
80.20
77.97
74.89
71.08
66.80
62.37
58.07
54.03
50.28
46.76
43.36
39.95
36.33
32.32
27.77
22.64
17.04
11.23
5.52
0.14
-4.93
-9.89
-15.15
-21.08
-27.88
-35.42
-43.34
-51.15
-58.47
-65.17
-71.43
-77.68
-84.51
-92.52
-102.15
-113.50
-125.93
-138.01
-147.56
-152.17
-149.95
-140.29
-124.17
-103.81
-82.05
-61.36
-43.20
-27.87
-14.80
-3.03
8.29
19.71
31.40
43.29
55.12
66.46
76.72
85.26
91.51
95.23
96.63
96.35
95.29
94.24
93.63
93.43
93.22
92.42
90.63
87.69
83.81
79.40
74.90
70.63
66.72
63.04
59.39
55.57
51.56
47.46
43.48
39.72
36.10
32.39
28.23
23.40
17.83
11.70
5.36
-0.80
-6.52
-11.74
-16.71
-21.82
-27.51
-33.95
-40.99
-48.13
-54.76
-60.48
-65.27
-69.55
-74.02
-79.41
-86.28
-94.88
-105.05
-116.07
-126.54
-134.51
-137.86
-134.91
-125.15
-109.54
-90.27
-70.09
-51.36
-35.41
-22.37
-11.52
-1.79
7.72
17.49
27.64
37.94
48.02
57.35
65.37
71.59
75.76
77.97
78.65
78.45
77.99
77.67
77.58
77.54
77.21
76.27
74.58
72.14
69.10
65.68
62.06
58.34
54.54
50.67
46.79
43.00
39.42
36.15
33.11
30.11
26.87
23.14
18.81
13.92
8.68
3.36
-1.82
-6.75
-11.51
-16.28
-21.31
-26.79
-32.71
-38.84
-44.80
-50.20
-54.90
-59.02
-62.99
-67.44
-73.00
-80.09
-88.78
-98.47
-107.88
-115.14
-118.21
-115.49
-106.52
-92.15
-74.42
-55.88
-38.77
-24.37
-12.91
-3.79
3.92
11.01
17.92
24.76
31.41
37.60
43.12
47.74
51.38
54.03
55.81
56.90
57.60
58.16
58.82
59.72
60.87
62.06
62.89
62.83
61.41
58.43
54.07
48.92
43.70
39.00
35.08
31.73
28.48
24.81
20.46
15.50
10.30
5.39
1.16
-2.29
-5.22
-8.18
-11.78
-16.47
-22.34
-29.11
-36.22
-43.11
-49.38
-55.03
-60.34
-65.85
-72.12
-79.65
-88.64
-98.79
-109.10
-117.93
-123.26
-123.31
-117.20
-105.33
-89.39
-71.74
-54.71
-39.77
-27.35
-16.95
-7.62
1.56
11.12
21.23
31.74
42.26
52.31
61.32
68.71
74.05
77.14
78.13
77.47
75.80
73.78
71.92
70.46
69.44
68.66
67.85
66.75
65.16
63.00
60.29
57.15
53.75
50.23
46.70
43.20
39.63
35.79
31.51
26.68
21.42
15.98
10.76
6.04
1.95
-1.71
-5.30
-9.25
-13.91
-19.38
-25.54
-32.03
-38.46
-44.44
-49.79
-54.62
-59.27
-64.34
-70.45
-78.10
-87.37
-97.63
-107.52
-115.06
-118.16
-115.34
-106.26
-91.95
-74.57
-56.66
-40.33
-26.64
-15.58
-6.38
1.95
10.17
18.62
27.28
35.97
44.35
52.05
58.62
63.59
66.65
67.72
67.16
65.59
63.79
62.41
61.76
61.73
61.89
61.64
60.54
58.39
55.35
51.84
48.31
45.08
42.16
39.31
36.16
32.43
28.12
23.48
18.88
14.61
10.68
6.81
2.58
-2.37
-8.11
-14.38
-20.67
-26.48
-31.47
-35.68
-39.44
-43.31
-47.91
-53.77
-61.26
-70.29
-80.16
-89.41
-96.06
-98.18
-94.49
-85.01
-71.05
-54.84
-38.70
-24.32
-12.39
-2.64
5.65
13.25
20.59
27.75
34.60
40.97
46.76
51.97
56.56
60.34
62.99
64.08
63.38
60.95
57.31
53.23
49.48
46.54
44.36
42.54
40.45
37.57
33.69
28.91
23.61
18.26
13.28
8.86
4.88
0.98
-3.40
-8.71
-15.18
-22.64
-30.58
-38.32
-45.25
-51.02
-55.68
-59.59
-63.38
-67.75
-73.37
-80.71
-89.75
-99.81
-109.45
-116.63
-119.30
-116.06
-106.71
-92.43
-75.38
-57.95
-41.97
-28.29
-16.79
-6.80
2.47
11.57
20.76
30.03
39.23
48.04
56.01
62.58
67.26
69.73
70.08
68.78
66.52
64.09
62.07
60.77
60.17
59.96
59.65
58.69
56.66
53.37
48.86
43.46
37.63
31.86
26.51
21.63
17.00
12.18
6.76
0.55
-6.28
-13.25
-19.77
-25.47
-30.34
-34.87
-39.79
-45.96
-53.97
-63.97
-75.44
-87.14
-97.24
-103.64
-104.61
-99.38
-88.42
-73.47
-56.91
-40.99
-27.12
-15.57
-5.67
3.61
13.10
23.13
33.46
43.56
52.84
60.80
67.14
71.66
74.32
75.19
74.56
72.91
70.80
68.78
67.15
65.94
64.93
63.73
62.04
59.70
56.76
53.41
49.76
45.86
41.63
36.91
31.68
26.03
20.18
14.35
8.69
3.14
-2.41
-8.14
-14.12
-20.27
-26.46
-32.55
-38.48
-44.29
-50.17
-56.38
-63.28
-71.19
-80.33
-90.57
-101.11
-110.49
-116.74
-117.98
-113.12
-102.32
-87.05
-69.61
-52.24
-36.52
-22.97
-11.21
-0.47
9.95
20.41
30.87
40.99
50.33
58.43
64.91
69.59
72.48
73.83
74.02
73.52
72.73
71.96
71.34
70.85
70.30
69.44
68.04
65.93
63.18
59.94
56.43
52.88
49.41
46.01
42.63
39.15
35.45
31.56
27.51
23.43
19.40
15.43
11.45
7.37
3.15
-1.17
-5.45
-9.65
-13.86
-18.32
-23.28
-28.87
-34.95
-41.13
-46.91
-51.91
-56.05
-59.57
-62.99
-67.00
-72.33
-79.54
-88.78
-99.55
-110.49
-119.58
-124.58
-123.71
-116.33
-103.25
-86.46
-68.58
-51.90
-37.79
-26.50
-17.36
-9.23
-1.12
7.57
16.93
26.66
36.23
45.01
52.47
58.22
62.12
64.26
64.97
64.71
64.02
63.35
63.08
63.32
63.96
64.69
64.98
64.33
62.35
58.96
54.44
49.36
44.38
40.02
36.43
33.34
30.23
26.56
22.05
16.87
11.54
6.69
2.72
-0.41
-3.17
-6.27
-10.32
-15.53
-21.71
-28.33
-34.79
-40.62
-45.67
-50.10
-54.37
-59.14
-65.07
-72.63
-81.77
-91.67
-100.73
-106.80
-107.88
-102.79
-91.70
-76.14
-58.51
-41.29
-26.24
-14.03
-4.36
3.70
11.08
18.39
25.82
33.20
40.22
46.55
51.92
56.17
59.19
61.01
61.76
61.71
61.19
60.60
60.26
60.28
60.55
60.66
60.10
58.37
55.33
51.18
46.48
41.88
37.82
34.37
31.23
27.86
23.79
18.86
13.26
7.43
1.83
-3.26
-7.91
-12.43
-17.23
-22.61
-28.65
-35.19
-41.96
-48.60
-54.94
-60.91
-66.71
-72.76
-79.67
-88.04
-98.07
-109.22
-119.98
-128.14
-131.37
-128.12
-118.18
-102.90
-84.66
-66.16
-49.40
-35.29
-23.64
-13.55
-3.97
5.83
16.18
27.04
38.11
48.96
59.09
67.95
74.98
79.78
82.24
82.69
81.76
80.29
79.01
78.33
78.27
78.52
78.61
78.12
76.77
74.49
71.39
67.66
63.50
59.10
54.65
50.31
46.23
42.54
39.25
36.23
33.17
29.61
25.14
19.58
13.07
6.11
-0.68
-6.80
-12.07
-16.76
-21.38
-26.52
-32.52
-39.36
-46.68
-53.93
-60.68
-66.70
-72.13
-77.45
-83.28
-90.29
-98.94
-109.30
-120.76
-131.92
-140.75
-145.01
-142.97
-134.05
-119.13
-100.34
-80.29
-61.29
-44.66
-30.54
-18.23
-6.70
4.84
16.78
29.05
41.22
52.79
63.21
72.00
78.79
83.40
85.88
86.66
86.36
85.74
85.44
85.75
86.57
87.48
87.94
87.52
86.03
83.59
80.45
76.93
73.23
69.42
65.46
61.21
56.56
51.48
46.11
40.73
35.67
31.11
26.97
22.98
18.78
14.15
9.13
3.95
-1.14
-6.07
-10.96
-16.13
-21.83
-28.19
-35.07
-42.23
-49.41
-56.43
-63.18
-69.72
-76.26
-83.23
-91.22
-100.77
-111.98
-124.20
-135.81
-144.52
-147.88
-144.15
-132.99
-115.71
-94.84
-73.34
-53.63
-36.89
-23.09
-11.34
-0.54
10.05
20.66
31.11
41.04
50.09
57.97
64.47
69.44
72.82
74.77
75.62
75.84
75.86
76.00
76.37
76.84
77.10
76.80
75.58
73.25
69.89
65.79
61.44
57.24
53.41
49.85
46.23
42.10
37.15
31.38
25.08
18.72
12.74
7.32
2.32
-2.69
-8.22
-14.68
-22.17
-30.43
-38.93
-47.06
-54.34
-60.71
-66.55
-72.71
-80.23
-89.98
-102.11
-115.76
-128.92
-138.87
-142.91
-139.25
-127.66
-109.64
-87.92
-65.56
-45.03
-27.56
-13.14
-0.86
10.42
21.59
33.07
44.82
56.45
67.42
77.12
84.98
90.61
93.89
95.08
94.72
93.55
92.24
91.19
90.51
90.04
89.52
88.69
87.37
85.49
83.01
79.94
76.23
71.89
66.97
61.64
56.16
50.75
45.58
40.58
35.53
30.17
24.32
18.06
11.67
5.56
0.02
-4.93
-9.61
-14.56
-20.28
-27.01
-34.66
-42.82
-50.97
-58.69
-65.79
-72.34
-78.67
-85.26
-92.70
-101.61
-112.34
-124.67
-137.57
-149.03
-156.56
-157.82
-151.53
-137.94
-118.89
-97.15
-75.47
-55.78
-38.80
-24.27
-11.37
0.73
12.61
24.51
36.51
48.48
60.08
70.74
79.75
86.47
90.62
92.41
92.51
91.77
90.96
90.51
90.44
90.54
90.41
89.70
88.16
85.68
82.39
78.58
74.66
71.04
67.98
65.46
63.21
60.82
57.94
54.41
50.30
45.84
41.29
36.71
32.03
27.02
21.58
15.72
9.70
3.88
-1.47
-6.32
-10.95
-15.85
-21.44
-27.90
-35.04
-42.39
-49.40
-55.70
-61.23
-66.30
-71.45
-77.40
-84.84
-94.21
-105.43
-117.63
-129.05
-137.32
-140.05
-135.75
-124.36
-107.43
-87.60
-67.68
-49.76
-34.74
-22.29
-11.45
-1.13
9.41
20.36
31.45
42.18
51.96
60.34
67.02
71.93
75.22
77.18
78.14
78.47
78.45
78.33
78.31
78.48
78.76
78.88
78.38
76.82
73.95
69.85
64.97
59.97
55.47
51.78
48.80
46.07
43.02
39.18
34.35
28.64
22.40
16.03
9.89
4.13
-1.28
-6.57
-12.00
-17.83
-24.12
-30.77
-37.54
-44.14
-50.37
-56.16
-61.59
-66.84
-72.20
-78.06
-84.78
-92.52
-100.88
-108.74
-114.37
-115.86
-111.90
-102.27
-88.16
-71.68
-55.13
-40.23
-27.63
-17.00
-7.44
1.98
11.82
22.23
33.04
43.95
54.59
64.51
73.15
79.94
84.41
86.50
86.55
85.34
83.75
82.47
81.75
81.46
81.12
80.25
78.55
75.93
72.55
68.62
64.37
59.97
55.50
50.99
46.41
41.75
36.99
32.28
27.84
23.92
20.71
18.10
15.75
13.16
9.90
5.83
1.16
-3.65
-8.16
-12.17
-15.79
-19.45
-23.62
-28.60
-34.38
-40.64
-46.93
-52.84
-58.19
-63.04
-67.71
-72.67
-78.46
-85.51
-93.95
-103.35
-112.55
-119.80
-123.12
-121.00
-113.00
-100.03
-84.11
-67.64
-52.56
-39.84
-29.34
-20.21
-11.47
-2.38
7.25
17.27
27.31
36.95
45.74
53.26
59.12
63.03
64.94
65.13
64.17
62.82
61.81
61.56
62.12
63.11
63.88
63.81
62.50
59.95
56.52
52.79
49.27
46.22
43.55
40.94
37.99
34.50
30.53
26.39
22.48
19.10
16.31
13.88
11.45
8.61
5.11
0.92
-3.75
-8.54
-13.06
-17.08
-20.66
-24.10
-27.82
-32.16
-37.23
-42.76
-48.30
-53.39
-57.75
-61.40
-64.72
-68.28
-72.80
-78.82
-86.51
-95.34
-103.98
-110.42
-112.60
-109.10
-99.82
-86.07
-70.17
-54.58
-41.00
-30.02
-21.11
-13.27
-5.53
2.55
10.94
19.29
27.22
34.40
40.69
45.96
50.16
53.23
55.20
56.15
56.31
56.00
55.57
55.32
55.31
55.43
55.35
54.74
53.43
51.51
49.33
47.24
45.42
43.76
41.94
39.64
36.65
33.09
29.25
25.50
22.10
19.13
16.47
13.89
11.08
7.78
3.86
-0.65
-5.52
-10.45
-15.18
-19.64
-24.01
-28.60
-33.70
-39.39
-45.54
-51.81
-57.84
-63.47
-68.80
-74.14
-79.99
-86.79
-94.82
-103.89
-113.26
-121.49
-126.83
-127.61
-122.91
-112.97
-99.22
-83.82
-68.87
-55.78
-44.92
-35.72
-27.14
-18.20
-8.26
2.86
14.95
27.48
39.73
50.87
60.14
67.04
71.51
73.89
74.82
75.00
74.99
75.11
75.43
75.87
76.18
76.10
75.40
73.96
71.79
69.07
66.07
63.09
60.35
57.92
55.75
53.67
51.46
48.95
46.02
42.69
39.05
35.28
31.53
27.92
24.43
21.01
17.49
13.72
9.57
5.00
0.09
-4.97
-9.89
-14.41
-18.47
-22.21
-26.00
-30.36
-35.70
-42.14
-49.45
-57.08
-64.42
-70.97
-76.57
-81.42
-86.13
-91.46
-98.22
-106.88
-117.18
-127.97
-137.20
-142.50
-141.83
-134.38
-120.90
-103.44
-84.71
-67.12
-52.06
-39.78
-29.61
-20.48
-11.37
-1.64
8.99
20.46
32.43
44.33
55.40
64.84
72.00
76.56
78.63
78.80
77.96
77.05
76.76
77.39
78.75
80.29
81.34
81.34
80.10
77.77
74.74
71.47
68.23
65.10
62.03
58.92
55.74
52.52
49.24
45.86
42.34
38.67
34.97
31.40
28.02
24.70
21.10
16.80
11.62
5.70
-0.46
-6.27
-11.31
-15.56
-19.45
-23.62
-28.61
-34.61
-41.39
-48.41
-55.09
-61.01
-66.13
-70.74
-75.37
-80.74
-87.49
-96.04
-106.30
-117.37
-127.61
-134.82
-136.90
-132.59
-121.95
-106.46
-88.47
-70.48
-54.27
-40.61
-29.18
-19.08
-9.29
0.89
11.73
23.00
34.15
44.54
53.56
60.83
66.23
69.89
72.15
73.43
74.14
74.65
75.22
76.00
76.94
77.83
78.30
77.94
76.47
73.82
70.23
66.13
62.03
58.37
55.31
52.67
49.97
46.62
42.16
36.46
29.82
22.85
16.22
10.33
5.23
0.55
-4.31
-9.97
-16.75
-24.63
-33.24
-41.97
-50.31
-57.94
-64.94
-71.76
-79.12
-87.78
-98.31
-110.82
-124.67
-138.30
-149.45
-155.61
-154.82
-146.40
-131.35
-112.03
-91.37
-71.81
-54.66
-39.93
-26.79
-14.22
-1.47
11.73
25.31
39.05
52.65
65.67
77.50
87.41
94.80
99.46
101.67
102.22
102.05
101.91
102.19
102.79
103.29
103.16
101.99
99.68
96.38
92.44
88.26
84.14
80.18
76.33
72.41
68.23
63.67
58.70
53.44
48.11
42.99
38.24
33.87
29.65
25.17
20.06
14.16
7.66
1.01
-5.30
-11.01
-16.22
-21.38
-27.05
-33.65
-41.23
-49.48
-57.85
-65.77
-72.95
-79.44
-85.71
-92.44
-100.40
-110.18
-121.97
-135.27
-148.71
-160.17
-167.10
-167.34
-159.85
-145.22
-125.52
-103.71
-82.53
-63.74
-47.74
-33.85
-20.89
-7.82
5.90
20.31
35.07
49.64
63.35
75.55
85.61
93.11
97.91
100.31
100.91
100.56
100.03
99.88
100.31
101.15
101.94
102.14
101.29
99.14
95.82
91.68
87.30
83.18
79.59
76.44
73.38
69.94
65.74
60.73
55.17
49.54
44.26
39.51
35.16
30.82
26.06
20.62
14.45
7.81
1.05
-5.50
-11.68
-17.52
-23.24
-29.14
-35.46
-42.23
-49.32
-56.41
-63.19
-69.47
-75.29
-80.94
-86.96
-94.10
-103.05
-114.15
-126.90
-139.79
-150.34
-155.77
-153.96
-144.33
-128.16
-108.15
-87.43
-68.41
-52.17
-38.45
-26.22
-14.44
-2.43
9.97
22.60
35.19
47.38
58.73
68.65
76.59
82.18
85.48
86.99
87.46
87.67
88.13
89.00
90.09
91.02
91.35
90.75
89.08
86.44
83.08
79.39
75.65
72.10
68.84
65.84
62.96
60.01
56.72
52.95
48.77
44.65
41.38
39.64
39.57
40.56
41.40
40.93
38.81
35.83
33.62
33.68
36.43
40.74
44.25
44.36
39.19
28.16
11.87
-8.45
-31.35
-55.00
-76.98
-94.15
-103.44
-103.04
-93.65
-78.85
-64.06
-54.48
-53.16
-59.86
-71.62
-84.32
-94.47
-100.30
-101.67
-99.32
-94.12
-86.60
-77.12
-66.17
-54.46
-42.82
-31.81
-21.49
-11.33
-0.57
11.35
24.50
38.39
52.34
65.80
78.68
91.31
104.02
116.69
128.45
137.85
143.41
144.31
140.67
133.44
123.74
112.31
99.28
84.38
67.46
48.91
29.75
11.27
-5.34
-19.38
-30.74
-39.67
-46.60
-51.86
-55.69
-58.34
-60.26
-62.01
-64.21
-67.21
-70.92
-74.83
-78.28
-80.92
-83.04
-85.61
-90.05
-97.64
-109.01
-123.81
-140.76
-157.79
-172.36
-181.90
-184.44
-179.14
-166.66
-149.08
-129.29
-110.12
-93.41
-79.61
-67.93
-56.91
-45.07
-31.36
-15.35
2.76
22.19
41.58
59.24
73.45
83.03
87.65
87.99
85.50
81.85
78.43
75.95
74.42
73.27
71.77
69.44
66.32
63.11
60.84
60.41
62.04
65.08
68.18
69.90
69.30
66.29
61.66
56.65
52.50
49.95
49.05
49.13
48.99
47.23
42.66
34.69
23.48
9.92
-4.71
-18.96
-31.53
-41.36
-47.77
-50.57
-50.19
-47.72
-44.69
-42.63
-42.63
-45.02
-49.37
-54.69
-59.92
-64.34
-67.85
-70.77
-73.52
-76.12
-78.05
-78.26
-75.65
-69.63
-60.49
-49.42
-38.11
-28.09
-20.17
-14.13
-8.88
-3.01
4.44
13.57
23.52
32.87
40.40
45.67
49.28
52.62
57.08
63.36
71.05
78.84
85.07
88.41
88.30
85.06
79.50
72.50
64.63
56.11
47.02
37.69
29.00
22.08
17.85
16.32
16.38
16.14
13.78
8.57
1.20
-6.45
-12.39
-15.48
-16.06
-15.62
-15.96
-18.27
-22.78
-28.91
-35.76
-42.60
-48.98
-54.77
-60.18
-65.73
-72.17
-80.26
-90.30
-101.77
-113.36
-123.33
-130.09
-132.56
-130.25
-123.06
-111.13
-94.94
-75.43
-54.09
-32.65
-12.66
4.94
20.00
32.83
44.04
54.25
64.00
73.62
83.12
92.05
99.66
105.20
108.14
108.31
105.70
100.30
92.20
82.11
71.70
63.59
60.42
63.61
72.35
83.65
93.53
98.69
97.65
91.03
80.79
69.12
57.84
48.18
41.01
36.89
35.84
36.98
38.46
37.94
33.45
24.17
10.77
-4.98
-20.94
-35.44
-47.63
-57.46
-65.42
-72.09
-77.91
-83.02
-87.21
-90.07
-91.17
-90.35
-87.91
-84.63
-81.50
-79.31
-78.23
-77.66
-76.60
-74.12
-69.87
-64.20
-57.96
-51.94
-46.62
-41.98
-37.63
-32.91
-27.08
-19.39
-9.31
3.25
17.65
32.49
46.00
56.73
64.07
68.50
71.24
73.48
75.78
77.79
78.57
77.15
73.14
66.98
59.89
53.46
49.07
47.39
48.12
50.18
52.24
53.28
52.93
51.36
48.89
45.50
40.73
34.09
25.59
16.09
7.13
0.19
-4.10
-6.40
-8.37
-11.78
-17.71
-25.96
-35.06
-43.01
-47.98
-49.08
-46.64
-42.16
-37.61
-34.78
-34.74
-37.77
-43.66
-52.06
-62.55
-74.30
-85.71
-94.48
-98.30
-95.81
-87.44
-75.37
-62.57
-51.50
-42.99
-36.19
-29.26
-20.52
-9.25
4.13
18.46
32.42
44.90
55.15
62.92
68.47
72.57
76.19
80.11
84.40
88.32
90.64
90.30
87.08
81.72
75.49
69.40
63.62
57.44
49.97
40.97
31.36
22.98
17.65
16.13
17.50
19.50
19.68
16.63
10.82
4.36
-0.09
-0.80
2.14
6.80
10.44
10.83
7.22
0.48
-7.60
-15.28
-21.71
-27.08
-32.36
-38.68
-46.97
-57.55
-70.09
-83.54
-96.28
-106.36
-112.13
-112.62
-107.96
-99.20
-87.87
-75.28
-62.25
-49.02
-35.67
-22.41
-9.61
2.40
13.62
24.44
35.34
46.41
57.09
66.20
72.45
74.96
73.74
69.71
64.33
59.10
55.00
52.26
50.41
48.78
46.82
44.43
41.93
39.75
38.22
37.49
37.64
38.96
41.78
46.22
51.68
56.88
60.04
59.64
54.99
46.43
35.13
22.54
10.04
-1.32
-10.81
-18.08
-23.22
-26.85
-29.89
-33.12
-36.86
-40.82
-44.45
-47.27
-49.06
-49.83
-49.62
-48.48
-46.80
-45.53
-46.19
-50.24
-58.25
-69.23
-80.72
-89.59
-93.31
-90.90
-83.23
-72.38
-60.71
-49.92
-40.54
-32.05
-23.41
-13.77
-3.07
7.92
18.01
26.31
32.82
38.33
43.90
50.02
56.09
60.76
62.65
61.28
57.45
52.81
48.96
46.66
45.60
44.82
43.45
41.19
38.36
35.38
32.39
29.08
24.91
19.58
13.36
7.10
1.87
-1.54
-2.96
-2.84
-1.94
-1.00
-0.40
-0.14
0.01
0.29
0.78
1.29
1.47
0.91
-0.73
-3.55
-7.41
-11.94
-16.72
-21.41
-25.94
-30.47
-35.34
-40.90
-47.24
-54.11
-60.87
-66.63
-70.36
-71.18
-68.53
-62.35
-53.26
-42.39
-31.13
-20.63
-11.45
-3.40
4.14
11.78
19.62
27.10
33.30
37.39
39.06
38.63
36.80
34.29
31.57
28.88
26.37
24.27
22.88
22.43
22.91
24.07
25.52
26.98
28.26
29.39
30.40
31.28
31.96
32.30
32.24
31.76
30.85
29.45
27.52
25.00
21.86
18.18
14.13
9.93
5.80
1.87
-1.90
-5.73
-9.97
-14.91
-20.62
-26.90
-33.31
-39.42
-44.94
-49.92
-54.65
-59.56
-65.14
-71.74
-79.57
-88.51
-97.90
-106.56
-112.85
-115.12
-112.40
-104.69
-93.13
-79.59
-65.97
-53.54
-42.75
-33.26
-24.36
-15.39
-5.97
4.00
14.33
24.72
34.69
43.72
51.26
56.96
60.74
62.87
63.81
64.12
64.26
64.50
64.95
65.54
66.12
66.46
66.35
65.59
64.14
62.07
59.56
56.81
53.95
51.02
47.98
44.82
41.55
38.25
35.02
31.87
28.72
25.41
21.75
17.63
13.08
8.29
3.49
-1.08
-5.32
-9.25
-13.07
-17.05
-21.45
-26.41
-31.92
-37.76
-43.64
-49.25
-54.48
-59.40
-64.26
-69.47
-75.45
-82.54
-90.78
-99.75
-108.41
-115.25
-118.59
-117.13
-110.47
-99.36
-85.47
-70.78
-56.97
-44.85
-34.36
-24.82
-15.42
-5.56
4.97
16.00
27.09
37.69
47.21
55.18
61.33
65.65
68.32
69.66
70.10
70.02
69.73
69.41
69.08
68.61
67.79
66.40
64.42
61.95
59.25
56.52
53.85
51.17
48.31
45.12
41.57
37.73
33.78
29.86
26.05
22.36
18.74
15.14
11.53
7.88
4.21
0.49
-3.37
-7.49
-11.99
-16.90
-22.21
-27.73
-33.29
-38.65
-43.60
-48.05
-52.06
-55.95
-60.31
-65.78
-72.91
-81.70
-91.43
-100.64
-107.43
-110.05
-107.46
-99.64
-87.67
-73.25
-58.24
-44.14
-31.71
-21.00
-11.57
-2.76
5.94
14.78
23.68
32.32
40.24
46.95
52.11
55.61
57.61
58.53
58.85
59.02
59.33
59.87
60.57
61.24
61.63
61.43
60.39
58.33
55.30
51.55
47.46
43.37
39.43
35.52
31.41
26.93
22.16
17.40
12.97
9.05
5.52
1.97
-2.09
-7.01
-12.84
-19.34
-26.12
-32.75
-39.04
-44.99
-50.84
-57.02
-63.98
-72.12
-81.58
-92.05
-102.54
-111.52
-117.14
-117.81
-112.81
-102.58
-88.63
-72.98
-57.52
-43.42
-30.98
-19.82
-9.28
1.16
11.83
22.72
33.65
44.28
54.14
62.72
69.56
74.40
77.28
78.53
78.69
78.32
77.87
77.56
77.41
77.25
76.84
75.89
74.24
71.84
68.80
65.37
61.78
58.18
54.62
51.04
47.39
43.64
39.78
35.81
31.71
27.39
22.84
18.06
13.17
8.34
3.70
-0.65
-4.77
-8.89
-13.32
-18.34
-24.03
-30.23
-36.61
-42.74
-48.36
-53.46
-58.29
-63.32
-69.11
-76.19
-84.84
-94.88
-105.44
-114.96
-121.45
-123.12
-118.96
-109.22
-95.33
-79.36
-63.33
-48.62
-35.70
-24.33
-13.87
-3.65
6.80
17.64
28.80
39.95
50.59
60.08
67.87
73.53
76.99
78.47
78.54
77.88
77.14
76.70
76.66
76.81
76.73
76.01
74.39
71.76
68.26
64.15
59.78
55.55
51.70
48.31
45.27
42.36
39.32
36.04
32.60
29.14
25.84
22.71
19.63
16.34
12.62
8.35
3.58
-1.50
-6.65
-11.70
-16.57
-21.32
-26.08
-31.01
-36.19
-41.57
-46.94
-52.05
-56.70
-60.90
-64.87
-69.10
-74.19
-80.68
-88.75
-97.94
-107.08
-114.41
-118.06
-116.64
-109.76
-98.19
-83.63
-68.10
-53.28
-40.08
-28.57
-18.27
-8.55
1.03
10.66
20.21
29.40
37.97
45.65
52.18
57.37
61.08
63.32
64.31
64.45
64.22
64.07
64.25
64.75
65.35
65.74
65.63
64.83
63.28
61.00
58.09
54.70
51.04
47.32
43.79
40.57
37.68
34.98
32.28
29.31
25.87
21.84
17.31
12.55
7.91
3.73
0.11
-3.16
-6.56
-10.67
-15.81
-21.97
-28.77
-35.68
-42.25
-48.29
-53.90
-59.33
-65.01
-71.35
-78.70
-87.12
-96.14
-104.68
-111.15
-113.88
-111.68
-104.34
-92.77
-78.66
-63.93
-50.12
-37.94
-27.37
-17.83
-8.63
0.77
10.58
20.75
30.99
40.96
50.21
58.33
64.94
69.76
72.69
73.93
73.91
73.18
72.31
71.65
71.31
71.16
70.90
70.21
68.89
66.92
64.45
61.76
59.11
56.66
54.36
52.07
49.60
46.79
43.69
40.40
37.07
33.79
30.54
27.19
23.56
19.47
14.85
9.79
4.53
-0.60
-5.32
-9.55
-13.46
-17.40
-21.75
-26.69
-32.23
-38.15
-44.15
-49.99
-55.52
-60.66
-65.44
-70.06
-74.92
-80.59
-87.53
-95.75
-104.45
-112.10
-116.82
-117.06
-112.12
-102.53
-89.71
-75.53
-61.60
-48.88
-37.53
-27.13
-17.10
-6.95
3.40
13.80
23.86
33.20
41.54
48.76
54.83
59.78
63.67
66.57
68.67
70.24
71.63
73.06
74.57
75.95
76.93
77.28
76.95
76.07
74.82
73.32
71.57
69.48
66.97
64.02
60.67
56.98
53.02
48.96
45.05
41.48
38.18
34.73
30.40
24.47
16.64
7.27
-2.72
-12.20
-20.28
-26.66
-31.70
-36.08
-40.52
-45.50
-51.13
-57.28
-63.65
-69.86
-75.53
-80.38
-84.27
-87.32
-89.98
-93.00
-97.17
-102.97
-110.17
-117.67
-123.65
-126.08
-123.49
-115.44
-102.83
-87.53
-71.72
-57.19
-44.89
-34.86
-26.46
-18.85
-11.32
-3.47
4.80
13.40
22.07
30.52
38.37
45.27
50.98
55.44
58.81
61.39
63.49
65.30
66.90
68.22
69.17
69.60
69.49
68.84
67.75
66.36
64.82
63.23
61.56
59.75
57.66
55.14
52.15
48.61
44.41
39.50
33.91
27.82
21.55
15.39
9.44
3.56
-2.54
-9.14
-16.32
-23.86
-31.36
-38.41
-44.76
-50.37
-55.37
-60.04
-64.75
-69.96
-76.20
-83.89
-93.12
-103.42
-113.63
-122.02
-126.75
-126.39
-120.42
-109.47
-95.13
-79.41
-64.08
-50.21
-38.02
-27.10
-16.85
-6.74
3.49
13.86
24.29
34.63
44.57
53.72
61.59
67.77
72.07
74.61
75.84
76.35
76.70
77.24
78.01
78.77
79.13
78.68
77.23
74.79
71.63
68.11
64.62
61.41
58.57
56.00
53.49
50.75
47.57
43.92
39.98
36.00
32.17
28.47
24.64
20.31
15.32
9.81
4.26
-0.84
-5.25
-9.20
-13.22
-17.92
-23.63
-30.21
-37.18
-43.93
-50.04
-55.34
-59.99
-64.34
-68.88
-74.21
-81.00
-89.71
-100.31
-111.91
-122.74
-130.55
-133.26
-129.75
-120.28
-106.40
-90.39
-74.40
-59.87
-47.23
-36.08
-25.65
-15.18
-4.24
7.26
19.07
30.79
41.87
51.73
59.90
66.04
70.12
72.38
73.35
73.65
73.86
74.35
75.22
76.30
77.25
77.67
77.28
75.92
73.63
70.64
67.23
63.69
60.23
56.89
53.58
50.18
46.54
42.61
38.39
33.92
29.28
24.57
19.87
15.34
11.09
7.13
3.27
-0.83
-5.59
-11.29
-17.93
-25.20
-32.57
-39.53
-45.73
-51.18
-56.15
-61.17
-66.86
-73.76
-82.15
-91.76
-101.63
-110.16
-115.45
-115.87
-110.66
-100.21
-85.98
-70.00
-54.24
-40.00
-27.72
-17.08
-7.35
2.23
12.12
22.39
32.72
42.52
51.16
58.21
63.50
67.13
69.43
70.78
71.57
72.07
72.50
72.97
73.50
73.97
74.20
73.92
72.92
71.07
68.36
64.88
60.90
56.73
52.72
49.10
45.86
42.77
39.43
35.46
30.70
25.30
19.63
14.18
9.27
4.98
1.12
-2.70
-6.91
-11.86
-17.66
-24.13
-30.92
-37.58
-43.80
-49.51
-54.92
-60.46
-66.61
-73.87
-82.50
-92.42
-102.97
-112.84
-120.21
-123.28
-120.80
-112.68
-100.01
-84.74
-68.94
-54.09
-40.79
-28.77
-17.39
-6.03
5.63
17.58
29.63
41.47
52.72
62.94
71.67
78.57
83.54
86.78
88.68
89.72
90.25
90.46
90.35
89.90
89.02
87.68
85.78
83.27
80.14
76.53
72.73
69.06
65.79
62.89
60.11
57.05
53.40
49.08
44.30
39.46
34.94
30.97
27.55
24.47
21.44
18.16
14.44
10.18
5.49
0.54
-4.37
-8.99
-13.20
-17.08
-20.92
-25.10
-29.93
-35.47
-41.51
-47.63
-53.37
-58.50
-63.04
-67.39
-72.16
-78.07
-85.68
-95.05
-105.56
-115.81
-123.88
-127.87
-126.55
-119.80
-108.66
-94.93
-80.49
-66.70
-54.12
-42.59
-31.70
-21.03
-10.41
0.13
10.47
20.50
30.07
38.96
46.80
53.23
57.99
61.11
62.85
63.65
63.96
64.04
64.01
63.82
63.39
62.61
61.43
59.82
57.79
55.45
52.98
50.57
48.32
46.17
43.93
41.42
38.52
35.27
31.89
28.61
25.58
22.86
20.34
17.80
15.07
12.01
8.63
5.04
1.42
-2.13
-5.61
-9.19
-13.12
-17.58
-22.60
-27.98
-33.37
-38.41
-42.90
-46.82
-50.41
-54.09
-58.34
-63.63
-70.21
-77.95
-86.15
-93.53
-98.55
-99.81
-96.56
-89.05
-78.41
-66.27
-54.15
-43.06
-33.29
-24.57
-16.39
-8.25
0.12
8.76
17.48
25.99
33.90
40.85
46.54
50.88
53.90
55.83
56.94
57.57
58.02
58.50
59.13
59.86
60.50
60.79
60.48
59.44
57.66
55.26
52.45
49.43
46.38
43.39
40.46
37.57
34.68
31.73
28.76
25.80
22.94
20.16
17.36
14.30
10.71
6.47
1.69
-3.30
-8.10
-12.50
-16.60
-20.79
-25.51
-30.99
-37.10
-43.41
-49.40
-54.74
-59.45
-63.86
-68.45
-73.72
-80.06
-87.70
-96.63
-106.42
-116.07
-124.13
-128.88
-128.97
-123.87
-114.18
-101.36
-87.30
-73.57
-60.99
-49.63
-38.97
-28.38
-17.46
-6.02
5.86
17.98
30.04
41.59
52.08
60.94
67.72
72.27
74.83
75.94
76.29
76.51
76.98
77.78
78.73
79.44
79.59
78.92
77.37
75.05
72.18
68.98
65.64
62.27
58.88
55.39
51.70
47.72
43.44
39.03
34.76
30.88
27.53
24.62
21.82
18.75
15.12
10.89
6.30
1.67
-2.65
-6.53
-10.10
-13.63
-17.47
-21.85
-26.81
-32.23
-37.84
-43.38
-48.59
-53.31
-57.41
-60.96
-64.32
-68.13
-73.24
-80.32
-89.46
-99.77
-109.40
-116.03
-117.66
-113.31
-103.43
-89.63
-74.09
-58.75
-44.81
-32.61
-21.87
-12.09
-2.86
6.07
14.87
23.61
32.36
41.00
49.18
56.34
61.91
65.52
67.19
67.34
66.64
65.74
65.03
64.64
64.40
64.05
63.31
61.98
59.98
57.33
54.13
50.51
46.65
42.72
38.88
35.21
31.77
28.44
25.02
21.34
17.25
12.78
8.14
3.62
-0.54
-4.21
-7.44
-10.51
-13.71
-17.36
-21.69
-26.78
-32.54
-38.70
-44.90
-50.75
-56.03
-60.79
-65.38
-70.42
-76.55
-84.20
-93.23
-102.78
-111.25
-116.71
-117.43
-112.51
-102.24
-88.05
-72.03
-56.18
-41.85
-29.41
-18.50
-8.33
1.79
12.29
23.21
34.34
45.28
55.58
64.78
72.54
78.75
83.51
87.16
90.09
92.63
94.93
96.99
98.65
99.71
99.97
99.26
97.51
94.72
91.01
86.56
81.60
76.31
70.86
65.38
59.90
54.47
49.02
43.52
37.94
32.23
26.37
20.36
14.21
7.99
1.89
-3.88
-9.14
-13.85
-18.13
-22.28
-26.59
-31.24
-36.24
-41.52
-46.89
-52.23
-57.46
-62.63
-67.94
-73.70
-80.36
-88.27
-97.49
-107.49
-117.11
-124.68
-128.52
-127.40
-120.96
-109.83
-95.39
-79.31
-63.03
-47.45
-32.95
-19.48
-6.89
4.98
16.17
26.67
36.32
44.85
51.83
56.82
59.61
60.44
60.04
59.44
59.62
61.10
63.83
67.23
70.53
73.04
74.36
74.35
73.09
70.78
67.70
64.20
60.62
57.26
54.27
51.64
49.18
46.64
43.77
40.49
36.91
33.29
29.92
26.96
24.41
22.03
19.46
16.31
12.22
6.86
-0.03
-8.69
-19.12
-30.98
-43.52
-55.68
-66.35
-74.68
-80.36
-83.70
-85.51
-86.91
-89.06
-92.86
-98.69
-106.18
-114.13
-120.76
-124.11
-122.68
-115.92
-104.39
-89.60
-73.40
-57.45
-42.84
-29.89
-18.39
-7.89
2.03
11.59
20.80
29.49
37.42
44.43
50.40
55.27
59.00
61.57
63.04
63.58
63.54
63.40
63.54
64.13
64.99
65.68
65.68
64.61
62.40
59.24
55.54
51.69
48.03
44.69
41.65
38.73
35.68
32.23
28.22
23.72
18.95
14.25
9.90
5.98
2.34
-1.39
-5.58
-10.45
-16.00
-22.04
-28.25
-34.33
-40.11
-45.54
-50.76
-56.09
-61.96
-68.81
-76.90
-85.96
-95.08
-102.76
-107.29
-107.28
-102.21
-92.64
-80.00
-66.11
-52.47
-39.88
-28.35
-17.42
-6.57
4.45
15.59
26.59
37.20
47.19
56.34
64.32
70.75
75.32
77.94
78.87
78.69
78.05
77.45
77.08
76.80
76.30
75.28
73.59
71.32
68.71
65.96
63.18
60.34
57.27
53.84
49.99
45.74
41.22
36.53
31.72
26.76
21.64
16.38
11.07
5.84
0.84
-3.85
-8.25
-12.49
-16.79
-21.34
-26.31
-31.68
-37.29
-42.87
-48.15
-52.95
-57.30
-61.41
-65.61
-70.41
-76.24
-83.43
-91.92
-101.07
-109.59
-115.80
-117.99
-115.07
-107.00
-94.81
-80.25
-65.19
-50.97
-38.14
-26.57
-15.75
-5.22
5.26
15.66
25.83
35.57
44.67
52.84
59.72
64.93
68.28
69.81
69.91
69.15
68.14
67.36
66.99
66.92
66.81
66.29
65.04
63.03
60.40
57.50
54.64
51.96
49.42
46.82
43.94
40.72
37.24
33.71
30.29
27.01
23.71
20.16
16.16
11.66
6.82
1.90
-2.81
-7.19
-11.30
-15.40
-19.82
-24.81
-30.35
-36.19
-41.94
-47.23
-51.85
-55.82
-59.44
-63.12
-67.38
-72.69
-79.35
-87.31
-95.96
-104.10
-110.05
-112.21
-109.50
-101.88
-90.44
-76.95
-63.31
-50.84
-39.97
-30.33
-21.15
-11.73
-1.82
8.41
18.48
27.90
36.33
43.64
49.90
55.22
59.73
63.43
66.30
68.26
69.34
69.63
69.35
68.68
67.74
66.49
64.83
62.57
59.62
56.06
52.09
48.02
44.17
40.70
37.60
34.62
31.43
27.75
23.54
19.02
14.61
10.70
7.47
4.75
2.06
-1.14
-5.28
-10.47
-16.45
-22.76
-28.89
-34.48
-39.45
-43.99
-48.46
-53.32
-58.93
-65.55
-73.19
-81.50
-89.67
-96.47
-100.40
-100.17
-95.18
-85.76
-73.21
-59.29
-45.64
-33.26
-22.31
-12.35
-2.68
7.23
17.57
28.18
38.64
48.42
56.92
63.65
68.27
70.68
71.10
70.01
68.08
65.99
64.27
63.11
62.46
61.95
61.20
59.84
57.73
54.92
51.63
48.13
44.66
41.36
38.27
35.28
32.23
28.92
25.22
21.16
16.95
12.90
9.29
6.15
3.29
0.45
-2.65
-6.05
-9.65
-13.24
-16.71
-20.08
-23.48
-27.09
-31.02
-35.26
-39.70
-44.22
-48.68
-52.97
-57.10
-61.10
-65.18
-69.66
-74.81
-80.79
-87.34
-93.75
-98.82
-101.23
-99.91
-94.49
-85.45
-74.07
-61.88
-50.23
-39.77
-30.49
-21.87
-13.32
-4.45
4.81
14.27
23.66
32.68
41.03
48.41
54.49
59.10
62.16
63.80
64.34
64.16
63.65
63.15
62.85
62.79
62.82
62.64
61.93
60.44
58.12
55.10
51.62
47.94
44.25
40.61
37.02
33.45
29.89
26.38
22.97
19.71
16.59
13.50
10.31
6.90
3.21
-0.67
-4.56
-8.34
-11.94
-15.47
-19.15
-23.15
-27.51
-32.06
-36.53
-40.68
-44.45
-48.01
-51.74
-56.09
-61.43
-67.93
-75.37
-83.08
-89.93
-94.50
-95.45
-91.95
-83.98
-72.44
-58.86
-44.92
-31.95
-20.63
-10.99
-2.61
5.11
12.61
20.16
27.81
35.46
42.92
49.90
56.05
61.06
64.64
66.74
67.51
67.28
66.48
65.46
64.43
63.39
62.22
60.76
58.90
56.59
53.86
50.82
47.64
44.52
41.64
39.12
36.87
34.65
32.15
29.07
25.27
20.84
15.99
11.02
6.21
1.67
-2.62
-6.84
-11.24
-16.06
-21.43
-27.34
-33.54
-39.68
-45.41
-50.56
-55.14
-59.42
-63.83
-68.87
-74.99
-82.39
-90.88
-99.67
-107.49
-112.71
-113.91
-110.31
-102.12
-90.49
-77.09
-63.55
-50.95
-39.63
-29.34
-19.59
-9.90
-0.03
10.10
20.44
30.84
40.99
50.42
58.51
64.69
68.65
70.50
70.76
70.23
69.63
69.46
69.82
70.51
71.11
71.21
70.50
68.90
66.51
63.56
60.35
57.08
53.86
50.67
47.41
43.99
40.38
36.66
32.88
29.09
25.25
21.29
17.15
12.83
8.40
3.98
-0.32
-4.47
-8.51
-12.56
-16.75
-21.20
-25.95
-31.03
-36.35
-41.78
-47.12
-52.21
-57.01
-61.66
-66.52
-72.13
-79.01
-87.35
-96.74
-106.00
-113.43
-117.26
-116.24
-110.12
-99.76
-86.73
-72.75
-59.15
-46.59
-35.07
-24.25
-13.72
-3.21
7.37
17.94
28.29
38.14
47.10
54.82
60.99
65.48
68.34
69.80
70.21
69.95
69.40
68.80
68.28
67.82
67.32
66.60
65.50
63.89
61.66
58.80
55.39
51.62
47.68
43.78
40.02
36.43
32.98
29.58
26.18
22.67
18.92
14.88
10.58
6.16
1.79
-2.36
-6.31
-10.26
-14.48
-19.20
-24.48
-30.12
-35.80
-41.13
-45.85
-49.88
-53.39
-56.83
-60.81
-66.00
-72.76
-80.88
-89.48
-97.04
-101.85
-102.55
-98.51
-90.11
-78.49
-65.23
-51.76
-39.10
-27.66
-17.33
-7.78
1.40
10.43
19.36
28.05
36.23
43.59
49.88
54.91
58.61
61.06
62.42
62.97
63.02
62.89
62.81
62.90
63.13
63.29
63.08
62.17
60.34
57.52
53.84
49.60
45.22
41.10
37.47
34.38
31.60
28.74
25.41
21.37
16.70
11.72
6.87
2.55
-1.14
-4.41
-7.72
-11.61
-16.49
-22.46
-29.27
-36.43
-43.37
-49.70
-55.35
-60.57
-65.91
-71.98
-79.34
-88.23
-98.38
-108.90
-118.38
-125.05
-127.35
-124.34
-116.10
-103.76
-89.16
-74.21
-60.34
-48.11
-37.30
-27.16
-16.93
-6.10
5.40
17.32
29.18
40.46
50.63
59.28
66.09
70.95
74.00
75.57
76.16
76.26
76.21
76.23
76.31
76.33
76.12
75.47
74.21
72.26
69.66
66.64
63.49
60.52
57.90
55.63
53.58
51.51
49.25
46.70
43.87
40.84
37.65
34.28
30.63
26.54
21.90
16.71
11.13
5.42
-0.15
-5.45
-10.56
-15.72
-21.21
-27.16
-33.50
-39.97
-46.31
-52.32
-57.98
-63.43
-68.95
-74.93
-81.87
-90.18
-99.95
-110.54
-120.50
-127.81
-130.47
-127.24
-118.19
-104.67
-88.81
-72.78
-58.06
-45.20
-33.97
-23.71
-13.71
-3.45
7.33
18.62
30.14
41.40
51.70
60.39
66.95
71.27
73.60
74.50
74.67
74.69
74.94
75.48
76.13
76.57
76.44
75.52
73.78
71.39
68.61
65.68
62.77
59.87
56.91
53.76
50.37
46.76
43.06
39.39
35.81
32.23
28.49
24.36
19.72
14.67
9.48
4.54
0.18
-3.55
-6.86
-10.19
-13.99
-18.50
-23.69
-29.26
-34.85
-40.15
-45.08
-49.77
-54.54
-59.77
-65.93
-73.39
-82.23
-92.07
-101.87
-110.02
-114.68
-114.42
-108.70
-98.21
-84.61
-69.92
-55.81
-43.14
-31.88
-21.48
-11.32
-1.04
9.37
19.66
29.55
38.82
47.23
54.55
60.46
64.76
67.40
68.56
68.64
68.08
67.28
66.48
65.70
64.74
63.26
60.84
57.18
52.31
46.61
40.76
35.51
31.34
28.27
25.91
23.63
20.87
17.33
13.07
8.39
3.62
-0.93
-5.20
-9.30
-13.47
-18.07
-23.28
-29.11
-35.35
-41.57
-47.38
-52.56
-57.18
-61.61
-66.47
-72.43
-79.94
-89.09
-99.26
-109.13
-116.86
-120.60
-119.08
-112.06
-100.44
-85.89
-70.21
-54.77
-40.25
-26.64
-13.60
-0.76
12.10
25.01
37.82
50.22
61.78
71.88
79.93
85.51
88.52
89.24
88.32
86.56
84.71
83.30
82.48
82.13
81.94
81.57
80.77
79.42
77.50
75.06
72.13
68.81
65.17
61.29
57.24
53.05
48.68
44.14
39.46
34.72
29.99
25.32
20.69
16.10
11.54
7.01
2.49
-2.13
-7.06
-12.53
-18.68
-25.46
-32.56
-39.54
-46.01
-51.80
-57.04
-62.09
-67.46
-73.70
-81.26
-90.27
-100.42
-110.74
-119.61
-125.13
-125.64
-120.39
-109.91
-95.81
-80.23
-65.03
-51.25
-38.95
-27.57
-16.41
-5.01
6.77
18.78
30.74
42.28
52.94
62.24
69.73
75.19
78.71
80.67
81.57
81.86
81.87
81.76
81.59
81.32
80.84
79.99
78.58
76.55
73.94
70.99
67.92
64.92
61.99
59.05
55.94
52.55
48.86
44.87
40.64
36.22
31.67
27.06
22.48
18.00
13.60
9.14
4.39
-0.98
-7.24
-14.50
-22.57
-31.08
-39.52
-47.44
-54.61
-61.08
-67.16
-73.36
-80.21
-88.14
-97.29
-107.27
-117.04
-124.98
-129.26
-128.45
-122.06
-110.80
-96.39
-80.95
-66.36
-53.60
-42.78
-33.33
-24.44
-15.48
-6.11
3.62
13.43
22.88
31.48
38.72
44.28
48.07
50.27
51.30
51.68
51.88
52.16
52.58
52.99
53.15
52.80
51.80
50.10
47.76
44.85
41.53
37.88
34.00
30.04
26.14
22.46
19.07
15.94
12.85
9.55
5.74
1.26
-3.88
-9.48
-15.24
-20.81
-26.00
-30.77
-35.28
-39.81
-44.73
-50.43
-57.25
-65.27
-74.05
-82.56
-89.22
-92.35
-90.76
-84.27
-73.75
-60.84
-47.25
-34.26
-22.41
-11.64
-1.56
8.17
17.77
27.34
36.90
46.38
55.53
63.86
70.80
75.77
78.45
78.90
77.53
75.03
72.15
69.53
67.57
66.31
65.51
64.72
63.48
61.45
58.54
54.90
50.87
46.80
42.98
39.51
36.24
32.87
29.06
24.65
19.72
14.58
9.59
4.99
0.69
-3.60
-8.30
-13.68
-19.75
-26.28
-32.88
-39.22
-45.10
-50.54
-55.77
-61.15
-67.18
-74.34
-82.91
-92.72
-102.92
-112.03
-118.26
-120.01
-116.47
-107.90
-95.60
-81.34
-66.86
-53.28
-40.91
-29.50
-18.51
-7.46
3.86
15.44
27.05
38.37
48.98
58.38
66.02
71.53
74.83
76.27
76.46
76.17
75.93
75.99
76.22
76.30
75.86
74.68
72.64
69.79
66.29
62.39
58.40
54.62
51.21
48.06
44.80
40.91
35.98
29.87
22.88
15.56
8.57
2.34
-3.05
-7.89
-12.70
-17.98
-24.00
-30.66
-37.55
-44.14
-49.98
-54.93
-59.24
-63.48
-68.33
-74.34
-81.68
-89.96
-98.22
-105.03
-108.88
-108.64
-103.87
-95.01
-83.30
-70.29
-57.40
-45.48
-34.75
-24.86
-15.26
-5.49
4.61
14.83
24.69
33.65
41.22
47.14
51.39
54.13
55.67
56.34
56.47
56.32
56.07
55.80
55.51
55.13
54.51
53.49
51.89
49.58
46.49
42.69
38.36
33.77
29.18
24.73
20.43
16.13
11.67
6.95
1.95
-3.19
-8.25
-13.03
-17.44
-21.48
-25.37
-29.41
-34.01
-39.56
-46.34
-54.39
-63.44
-72.73
-81.04
-86.97
-89.20
-87.03
-80.63
-71.05
-59.77
-48.25
-37.38
-27.33
-17.73
-8.04
2.12
12.75
23.52
33.95
43.49
51.75
58.46
63.48
66.79
68.52
68.91
68.31
67.10
65.70
64.42
63.41
62.62
61.84
60.76
59.09
56.69
53.62
50.03
46.19
42.30
38.45
34.56
30.48
26.03
21.19
16.12
11.18
6.72
2.93
-0.32
-3.47
-7.04
-11.39
-16.56
-22.27
-28.09
-33.71
-39.03
-44.17
-49.37
-54.83
-60.77
-67.35
-74.71
-82.73
-90.79
-97.73
-102.09
-102.54
-98.51
-90.46
-79.73
-67.97
-56.57
-46.19
-36.74
-27.67
-18.40
-8.55
1.89
12.67
23.44
33.74
43.09
51.08
57.39
61.92
64.80
66.36
67.03
67.23
67.21
67.12
66.96
66.66
66.11
65.15
63.69
61.68
59.15
56.26
53.23
50.30
47.56
45.00
42.41
39.56
36.28
32.60
28.66
24.65
20.67
16.61
12.31
7.65
2.65
-2.48
-7.44
-12.02
-16.19
-20.09
-23.98
-28.05
-32.39
-36.92
-41.53
-46.02
-50.29
-54.31
-58.19
-62.22
-66.81
-72.38
-79.08
-86.60
-94.03
-99.98
-103.01
-102.07
-96.94
-88.27
-77.39
-65.76
-54.53
-44.15
-34.49
-25.07
-15.37
-5.17
5.45
16.12
26.37
35.70
43.69
50.03
54.61
57.45
58.82
59.11
58.77
58.21
57.73
57.42
57.17
56.74
55.81
54.16
51.77
48.83
45.71
42.76
40.23
38.11
36.13
33.91
31.11
27.56
23.31
18.58
13.68
8.95
4.56
0.58
-3.13
-6.89
-11.02
-15.81
-21.29
-27.30
-33.44
-39.28
-44.52
-49.03
-52.98
-56.78
-60.97
-66.17
-72.75
-80.64
-89.14
-96.91
-102.29
-103.82
-100.74
-93.28
-82.52
-70.06
-57.39
-45.47
-34.66
-24.70
-15.11
-5.46
4.42
14.40
24.11
33.10
41.01
47.58
52.72
56.42
58.77
59.92
60.13
59.73
59.06
58.44
58.02
57.86
57.84
57.76
57.38
56.50
55.00
52.91
50.41
47.75
45.19
42.81
40.49
37.90
34.71
30.66
25.77
20.33
14.79
9.56
4.89
0.74
-3.20
-7.36
-12.13
-17.68
-23.91
-30.49
-36.95
-42.95
-48.33
-53.25
-58.11
-63.49
-69.89
-77.64
-86.72
-96.64
-106.39
-114.60
-119.77
-120.66
-116.71
-108.26
-96.52
-83.15
-69.71
-57.19
-45.80
-35.12
-24.50
-13.36
-1.49
10.96
23.59
35.88
47.22
57.09
65.09
70.98
74.84
76.98
77.91
78.17
78.21
78.28
78.38
78.41
78.11
77.27
75.74
73.51
70.70
67.53
64.23
61.00
57.92
54.94
51.90
48.65
45.10
41.26
37.22
33.06
28.74
24.15
19.20
13.90
8.41
3.02
-2.06
-6.77
-11.36
-16.21
-21.64
-27.76
-34.37
-41.05
-47.36
-53.06
-58.21
-63.19
-68.62
-75.15
-83.28
-93.11
-104.17
-115.32
-124.86
-130.94
-132.02
-127.43
-117.58
-103.84
-88.08
-72.05
-56.93
-43.12
-30.44
-18.39
-6.52
5.40
17.36
29.16
40.45
50.81
59.78
67.01
72.25
75.51
77.05
77.30
76.83
76.15
75.65
75.51
75.67
75.89
75.76
74.93
73.11
70.22
66.41
62.01
57.42
53.01
48.99
45.33
41.84
38.26
34.38
30.12
25.52
20.71
15.81
10.95
6.18
1.58
-2.86
-7.26
-11.85
-16.94
-22.72
-29.11
-35.77
-42.22
-48.06
-53.24
-58.08
-63.17
-69.14
-76.44
-85.15
-94.76
-104.24
-112.02
-116.38
-115.89
-109.91
-98.85
-84.11
-67.62
-51.18
-36.00
-22.48
-10.39
0.85
11.70
22.40
32.92
43.02
52.36
60.58
67.39
72.62
76.24
78.42
79.48
79.78
79.64
79.28
78.76
78.07
77.14
75.89
74.27
72.25
69.75
66.70
63.06
58.89
54.35
49.68
45.04
40.54
36.14
31.71
27.18
22.50
17.73
12.98
8.31
3.76
-0.74
-5.28
-10.00
-15.04
-20.51
-26.49
-32.91
-39.62
-46.30
-52.65
-58.45
-63.69
-68.64
-73.81
-79.87
-87.41
-96.65
-107.19
-117.84
-126.82
-132.18
-132.36
-126.75
-115.86
-101.11
-84.41
-67.52
-51.62
-37.21
-24.15
-12.00
-0.22
11.58
23.57
35.61
47.33
58.18
67.58
75.10
80.53
83.92
85.61
86.10
85.91
85.46
85.00
84.54
83.93
82.98
81.47
79.35
76.66
73.56
70.28
67.00
63.80
60.63
57.36
53.83
49.95
45.71
41.24
36.72
32.24
27.82
23.35
18.72
13.93
9.06
4.30
-0.23
-4.51
-8.73
-13.22
-18.25
-23.94
-30.22
-36.81
-43.37
-49.58
-55.33
-60.65
-65.79
-71.13
-77.18
-84.46
-93.15
-102.88
-112.53
-120.27
-124.13
-122.56
-115.14
-102.73
-87.22
-70.83
-55.36
-41.71
-29.89
-19.31
-9.24
0.78
10.90
21.00
30.81
40.00
48.19
55.06
60.37
64.02
66.14
67.02
67.07
66.70
66.22
65.85
65.66
65.58
65.44
64.93
63.73
61.59
58.43
54.46
50.08
45.77
41.91
38.60
35.68
32.71
29.27
25.14
20.40
15.40
10.61
6.35
2.61
-0.93
-4.74
-9.19
-14.44
-20.31
-26.44
-32.43
-38.00
-43.08
-47.77
-52.31
-57.02
-62.31
-68.56
-76.06
-84.74
-93.93
-102.37
-108.32
-110.16
-106.89
-98.60
-86.48
-72.32
-57.91
-44.45
-32.31
-21.19
-10.55
0.02
10.61
21.02
30.93
40.04
48.09
54.90
60.30
64.23
66.73
68.01
68.43
68.40
68.27
68.23
68.31
68.35
68.11
67.35
65.92
63.82
61.21
58.28
55.21
52.12
49.01
45.82
42.50
39.05
35.54
32.03
28.57
25.13
21.66
18.07
14.27
10.23
6.00
1.70
-2.58
-6.79
-11.04
-15.49
-20.34
-25.64
-31.25
-36.83
-42.02
-46.60
-50.60
-54.32
-58.26
-63.00
-69.06
-76.71
-85.85
-95.77
-105.20
-112.48
-115.97
-114.66
-108.43
-98.11
-85.20
-71.34
-57.80
-45.29
-33.96
-23.54
-13.62
-3.84
6.05
16.12
26.20
35.93
44.78
52.23
57.92
61.72
63.84
64.72
64.87
64.75
64.66
64.70
64.83
64.91
64.76
64.16
62.96
61.05
58.45
55.33
51.92
48.50
45.23
42.15
39.15
36.08
32.79
29.23
25.45
21.54
17.61
13.74
10.00
6.40
2.91
-0.57
-4.22
-8.23
-12.76
-17.87
-23.50
-29.43
-35.41
-41.16
-46.44
-51.21
-55.56
-59.83
-64.50
-70.08
-76.85
-84.69
-92.84
-99.95
-104.39
-104.69
-100.10
-90.94
-78.53
-64.78
-51.52
-39.93
-30.27
-22.06
-14.48
-6.85
1.06
9.14
17.03
24.40
30.99
36.69
41.43
45.20
47.99
49.88
51.01
51.64
52.04
52.47
53.04
53.64
53.95
53.59
52.29
50.03
47.06
43.76
40.42
37.15
33.84
30.31
26.48
22.41
18.24
14.11
9.97
5.65
0.94
-4.33
-10.11
-16.21
-22.29
-28.04
-33.23
-37.90
-42.34
-47.04
-52.54
-59.29
-67.44
-76.72
-86.32
-94.99
-101.22
-103.54
-101.06
-93.76
-82.55
-69.03
-54.95
-41.70
-29.96
-19.69
-10.40
-1.50
7.45
16.68
26.16
35.67
44.81
53.05
59.78
64.58
67.31
68.25
67.96
67.13
66.26
65.69
65.48
65.51
65.59
65.41
64.67
63.11
60.60
57.25
53.40
49.47
45.80
42.46
39.23
35.72
31.63
26.88
21.71
16.49
11.58
7.04
2.62
-2.08
-7.43
-13.51
-20.08
-26.64
-32.75
-38.20
-43.10
-47.89
-53.08
-59.25
-66.78
-75.77
-85.86
-96.10
-105.03
-110.90
-112.27
-108.42
-99.74
-87.58
-73.72
-59.84
-46.99
-35.47
-24.96
-14.90
-4.72
5.88
16.93
28.20
39.18
49.30
57.96
64.74
69.45
72.24
73.47
73.69
73.46
73.22
73.23
73.51
73.85
73.91
73.25
71.58
68.75
64.92
60.43
55.78
51.44
47.74
44.67
42.00
39.28
36.05
32.02
27.12
21.62
15.94
10.54
5.73
1.57
-2.19
-5.97
-10.22
-15.24
-20.99
-27.16
-33.28
-38.89
-43.81
-48.17
-52.37
-56.99
-62.58
-69.54
-77.87
-87.06
-95.97
-103.04
-106.63
-105.60
-99.65
-89.55
-76.80
-63.16
-50.07
-38.27
-27.80
-18.25
-9.08
0.09
9.32
18.41
27.02
34.73
41.25
46.43
50.32
53.05
54.86
55.98
56.59
56.90
57.06
57.19
57.32
57.32
57.02
56.25
54.90
52.96
50.48
47.44
43.86
39.73
35.19
30.44
25.78
21.34
17.09
12.82
8.26
3.25
-2.16
-7.80
-13.47
-19.08
-24.65
-30.29
-36.09
-42.11
-48.49
-55.47
-63.39
-72.39
-82.12
-91.51
-98.97
-102.75
-101.67
-95.50
-85.10
-72.09
-58.25
-44.94
-32.82
-21.79
-11.35
-0.99
9.54
20.17
30.50
40.03
48.37
55.24
60.60
64.49
67.01
68.30
68.55
67.99
66.96
65.82
64.86
64.24
63.92
63.71
63.29
62.35
60.67
58.18
54.96
51.21
47.19
43.15
39.25
35.53
31.89
28.13
24.10
19.80
15.42
11.23
7.51
4.38
1.67
-0.92
-3.84
-7.41
-11.75
-16.69
-21.82
-26.70
-30.94
-34.47
-37.47
-40.40
-43.89
-48.57
-54.89
-62.92
-72.12
-81.34
-88.93
-93.21
-92.98
-87.93
-78.82
-67.16
-54.67
-42.70
-31.91
-22.26
-13.28
-4.38
4.86
14.59
24.64
34.61
43.91
51.94
58.12
62.12
63.92
63.79
62.25
59.93
57.41
55.10
53.18
51.61
50.22
48.74
47.01
44.95
42.55
39.90
37.04
33.99
30.76
27.41
24.02
20.69
17.44
14.18
10.73
6.95
2.82
-1.44
-5.51
-9.03
-11.93
-14.38
-16.83
-19.73
-23.32
-27.48
-31.78
-35.70
-38.90
-41.38
-43.49
-45.86
-49.09
-53.71
-59.93
-67.68
-76.38
-85.06
-92.38
-96.86
-97.38
-93.46
-85.47
-74.55
-62.18
-49.76
-38.17
-27.68
-18.04
-8.82
0.34
9.55
18.59
27.10
34.64
40.90
45.79
49.35
51.78
53.26
53.97
54.03
53.60
52.86
51.97
51.03
50.06
48.99
47.73
46.23
44.55
42.81
41.15
39.60
38.09
36.45
34.47
32.02
29.09
25.81
22.40
19.05
15.83
12.64
9.29
5.55
1.29
-3.45
-8.47
-13.48
-18.25
-22.67
-26.87
-31.10
-35.83
-41.54
-48.62
-57.18
-66.77
-76.40
-84.59
-89.79
-90.87
-87.49
-80.25
-70.36
-59.26
-48.08
-37.42
-27.33
-17.60
-7.94
1.81
11.69
21.60
31.35
40.66
49.11
56.23
61.61
65.12
66.94
67.51
67.40
67.08
66.78
66.50
66.12
65.47
64.42
62.91
60.96
58.61
55.95
53.07
50.20
47.60
45.62
44.47
44.01
43.70
42.69
40.18
35.80
29.81
23.03
16.41
10.52
5.34
0.39
-4.95
-11.01
-17.72
-24.79
-31.96
-39.15
-46.47
-53.96
-61.53
-68.89
-75.83
-82.36
-88.84
-95.73
-103.31
-111.21
-118.40
-123.29
-124.38
-120.77
-112.67
-101.26
-88.28
-75.35
-63.45
-52.68
-42.60
-32.54
-22.07
-11.17
-0.13
10.62
20.66
29.68
37.46
43.83
48.69
52.04
54.08
55.15
55.74
56.27
57.00
57.96
58.95
59.67
59.81
59.21
57.81
55.68
52.98
50.01
47.05
44.36
42.03
39.93
37.78
35.23
32.05
28.21
23.82
19.13
14.40
9.88
5.78
2.20
-0.93
-3.90
-7.15
-11.06
-15.82
-21.26
-26.98
-32.50
-37.50
-41.97
-46.20
-50.67
-55.97
-62.55
-70.57
-79.69
-89.03
-97.16
-102.48
-103.60
-99.82
-91.40
-79.48
-65.72
-51.78
-38.82
-27.29
-17.02
-7.52
1.72
10.99
20.25
29.28
37.71
45.25
51.66
56.82
60.67
63.23
64.64
65.12
64.96
64.51
64.03
63.68
63.49
63.29
62.78
61.63
59.56
56.49
52.63
48.38
44.25
40.60
37.51
34.74
31.85
28.42
24.26
19.49
14.44
9.46
4.71
0.11
-4.65
-9.84
-15.61
-21.81
-28.17
-34.34
-40.15
-45.58
-50.86
-56.30
-62.22
-68.98
-76.87
-85.99
-96.11
-106.43
-115.63
-122.07
-124.29
-121.48
-113.84
-102.51
-89.12
-75.26
-61.93
-49.41
-37.40
-25.39
-13.04
-0.30
12.54
25.05
36.79
47.38
56.49
63.91
69.51
73.35
75.76
77.18
78.09
78.83
79.51
80.04
80.22
79.87
78.93
77.41
75.34
72.78
69.77
66.44
62.92
59.32
55.70
52.05
48.32
44.44
40.39
36.17
31.80
27.29
22.67
17.97
13.28
8.70
4.26
-0.10
-4.60
-9.48
-14.96
-21.11
-27.79
-34.71
-41.55
-48.02
-53.94
-59.37
-64.55
-69.90
-76.00
-83.42
-92.46
-102.88
-113.63
-123.04
-129.11
-130.18
-125.47
-115.39
-101.37
-85.41
-69.31
-54.30
-40.74
-28.36
-16.57
-4.81
7.23
19.57
31.97
43.95
54.90
64.19
71.35
76.14
78.74
79.66
79.59
79.22
79.02
79.19
79.63
80.10
80.25
79.76
78.40
76.03
72.72
68.65
64.15
59.58
55.25
51.28
47.58
43.88
39.84
35.20
29.93
24.24
18.57
13.32
8.71
4.61
0.62
-3.83
-9.17
-15.54
-22.72
-30.24
-37.61
-44.49
-50.78
-56.65
-62.48
-68.78
-76.03
-84.59
-94.39
-104.72
-114.16
-120.78
-122.74
-118.88
-109.25
-95.08
-78.37
-61.22
-45.10
-30.66
-17.80
-6.08
4.98
15.64
25.92
35.69
44.75
52.86
59.79
65.34
69.44
72.13
73.57
74.04
73.82
73.26
72.66
72.22
71.97
71.70
71.02
69.48
66.80
63.01
58.50
53.83
49.52
45.79
42.52
39.28
35.54
30.94
25.39
19.13
12.64
6.38
0.63
-4.68
-9.87
-15.38
-21.53
-28.39
-35.73
-43.17
-50.31
-56.93
-63.08
-69.12
-75.63
-83.20
-92.27
-102.86
-114.43
-125.75
-135.03
-140.31
-140.02
-133.50
-121.23
-104.78
-86.24
-67.61
-50.20
-34.45
-20.06
-6.33
7.33
21.22
35.26
49.04
61.99
73.43
82.80
89.71
94.08
96.19
96.65
96.20
95.50
94.97
94.73
94.65
94.41
93.72
92.29
90.01
86.85
82.91
78.40
73.50
68.38
63.14
57.86
52.55
47.26
41.97
36.62
31.13
25.40
19.43
13.31
7.25
1.44
-4.01
-9.16
-14.24
-19.53
-25.32
-31.71
-38.66
-45.91
-53.13
-60.01
-66.32
-72.08
-77.53
-83.18
-89.70
-97.65
-107.16
-117.64
-127.63
-135.07
-137.88
-134.66
-125.25
-110.79
-93.32
-75.04
-57.63
-41.87
-27.77
-14.87
-2.64
9.31
21.16
32.94
44.51
55.51
65.39
73.48
79.22
82.35
83.09
82.00
79.85
77.42
75.26
73.70
72.71
72.01
71.16
69.59
66.91
62.95
57.88
52.13
46.29
40.90
36.19
32.08
28.22
24.13
19.53
14.40
9.04
3.92
-0.61
-4.54
-8.18
-12.05
-16.63
-22.08
-28.16
-34.41
-40.29
-45.50
-50.06
-54.32
-58.90
-64.48
-71.60
-80.38
-90.30
-100.16
-108.22
-112.61
-111.92
-105.63
-94.31
-79.44
-62.97
-46.70
-31.85
-18.82
-7.36
3.18
13.42
23.72
34.03
43.94
52.91
60.46
66.34
70.58
73.42
75.19
76.23
76.85
77.26
77.61
77.86
77.87
77.37
76.11
73.93
70.85
67.07
62.91
58.71
54.72
51.02
47.53
44.02
40.19
35.74
30.52
24.59
18.19
11.68
5.42
-0.43
-5.86
-11.09
-16.47
-22.27
-28.68
-35.59
-42.70
-49.60
-56.01
-61.86
-67.43
-73.32
-80.25
-88.80
-99.04
-110.32
-121.10
-129.37
-133.05
-130.85
-122.60
-109.44
-93.31
-76.34
-60.09
-45.26
-31.78
-19.09
-6.65
5.88
18.59
31.34
43.78
55.42
65.68
73.97
79.89
83.43
84.87
84.86
84.08
83.13
82.38
81.91
81.61
81.19
80.40
78.99
76.85
73.98
70.45
66.42
62.06
57.54
53.05
48.71
44.60
40.68
36.82
32.85
28.58
23.92
18.89
13.64
8.48
3.65
-0.71
-4.74
-8.79
-13.31
-18.63
-24.79
-31.51
-38.33
-44.80
-50.64
-55.86
-60.70
-65.61
-71.15
-77.88
-86.11
-95.68
-105.73
-114.65
-120.48
-121.47
-116.70
-106.43
-92.05
-75.55
-58.95
-43.70
-30.42
-18.99
-8.79
0.87
10.54
20.39
30.26
39.70
48.17
55.19
60.41
63.75
65.34
65.48
64.56
63.04
61.34
59.84
58.79
58.21
57.88
57.37
56.19
53.97
50.66
46.59
42.31
38.37
35.11
32.47
30.12
27.64
24.71
21.24
17.33
13.14
8.81
4.44
0.13
-4.12
-8.37
-12.77
-17.57
-22.99
-29.08
-35.58
-42.05
-48.03
-53.25
-57.80
-62.13
-66.86
-72.51
-79.19
-86.42
-93.11
-97.80
-99.04
-95.94
-88.42
-77.26
-63.86
-49.74
-36.07
-23.48
-12.05
-1.53
8.43
18.09
27.58
36.87
45.82
54.12
61.47
67.57
72.34
75.82
78.20
79.68
80.36
80.25
79.30
77.52
75.07
72.17
69.01
65.70
62.20
58.45
54.40
50.12
45.79
41.57
37.57
33.78
30.07
26.27
22.28
18.08
13.71
9.29
4.91
0.62
-3.54
-7.55
-11.41
-15.19
-18.98
-22.90
-27.03
-31.34
-35.68
-39.83
-43.64
-47.05
-50.21
-53.44
-57.13
-61.73
-67.58
-74.82
-83.15
-91.81
-99.49
-104.70
-106.10
-103.00
-95.59
-84.95
-72.64
-60.27
-48.99
-39.30
-30.99
-23.48
-16.03
-8.10
0.47
9.49
18.55
27.11
34.67
40.87
45.44
48.31
49.62
49.77
49.39
49.17
49.58
50.71
52.18
53.40
53.80
53.07
51.31
48.84
46.07
43.33
40.79
38.46
36.28
34.12
31.87
29.38
26.51
23.10
19.11
14.53
9.54
4.42
-0.49
-4.92
-8.87
-12.62
-16.73
-21.83
-28.27
-35.92
-44.15
-51.97
-58.45
-63.10
-65.94
-67.61
-69.05
-71.20
-74.72
-79.70
-85.67
-91.59
-96.06
-97.69
-95.44
-89.00
-78.87
-66.23
-52.57
-39.18
-26.88
-15.87
-5.94
3.30
12.17
20.72
28.81
36.21
42.68
48.01
52.16
55.14
57.08
58.21
58.81
59.12
59.35
59.54
59.65
59.52
58.99
57.97
56.44
54.40
51.91
49.06
45.91
42.53
39.00
35.36
31.62
27.82
23.97
20.10
16.27
12.52
8.86
5.24
1.50
-2.59
-7.31
-12.78
-18.93
-25.41
-31.77
-37.60
-42.76
-47.48
-52.27
-57.76
-64.45
-72.55
-81.74
-91.17
-99.50
-105.20
-106.93
-104.02
-96.71
-86.11
-73.80
-61.30
-49.58
-38.91
-29.01
-19.34
-9.40
1.12
12.24
23.75
35.19
45.98
55.46
63.12
68.68
72.23
74.11
74.83
74.86
74.57
74.13
73.58
72.86
71.86
70.47
68.61
66.23
63.37
60.15
56.74
53.39
50.30
47.60
45.25
43.08
40.74
37.84
34.11
29.47
24.06
18.27
12.53
7.23
2.58
-1.52
-5.38
-9.44
-14.05
-19.36
-25.19
-31.17
-36.92
-42.25
-47.29
-52.47
-58.39
-65.60
-74.41
-84.71
-95.84
-106.56
-115.20
-120.07
-119.95
-114.54
-104.66
-91.90
-78.12
-64.79
-52.64
-41.59
-31.13
-20.69
-9.91
1.25
12.51
23.48
33.67
42.65
50.08
55.77
59.75
62.24
63.61
64.26
64.59
64.92
65.43
66.13
66.86
67.33
67.18
66.15
64.15
61.33
58.05
54.66
51.47
48.59
45.90
43.19
40.23
36.88
33.16
29.22
25.32
21.67
18.38
15.43
12.62
9.70
6.41
2.59
-1.68
-6.15
-10.45
-14.27
-17.44
-20.09
-22.61
-25.58
-29.66
-35.36
-42.91
-51.97
-61.59
-70.22
-76.20
-78.15
-75.63
-69.26
-60.56
-51.42
-43.41
-37.29
-32.97
-29.67
-26.45
-22.55
-17.66
-11.88
-5.59
0.77
6.83
12.34
17.16
21.18
24.35
26.64
28.19
29.30
30.33
31.63
33.30
35.18
36.82
37.69
37.33
35.50
32.27
27.97
23.07
18.04
13.23
8.79
4.62
0.48
-3.93
-8.81
-14.19
-19.90
-25.70
-31.33
-36.64
-41.62
-46.40
-51.27
-56.62
-62.90
-70.39
-78.95
-87.83
-95.61
-100.49
-100.85
-95.80
-85.55
-71.32
-54.91
-38.01
-21.77
-6.61
7.61
21.21
34.43
47.31
59.68
71.28
81.79
90.87
98.16
103.42
106.55
107.75
107.42
106.08
104.22
102.13
99.90
97.44
94.62
91.26
87.30
82.70
77.51
71.80
65.70
59.35
52.92
46.55
40.28
34.09
27.91
21.69
15.42
9.18
3.04
-2.98
-9.03
-15.32
-22.01
-29.19
-36.73
-44.37
-51.84
-58.96
-65.74
-72.44
-79.49
-87.41
-96.54
-106.85
-117.70
-127.81
-135.52
-139.26
-138.08
-131.98
-121.93
-109.47
-96.17
-83.11
-70.71
-58.80
-46.91
-34.61
-21.72
-8.37
5.08
18.13
30.27
41.06
50.20
57.51
62.97
66.72
69.02
70.18
70.62
70.69
70.71
70.88
71.20
71.51
71.58
71.13
70.06
68.35
66.11
63.55
60.86
58.18
55.56
52.95
50.17
47.06
43.47
39.44
35.14
30.85
26.79
22.93
18.97
14.45
8.92
2.22
-5.42
-13.48
-21.31
-28.45
-34.79
-40.61
-46.42
-52.84
-60.40
-69.40
-79.76
-90.94
-101.84
-110.91
-116.47
-117.21
-112.63
-103.32
-90.73
-76.77
-63.09
-50.62
-39.49
-29.23
-19.20
-8.98
1.48
11.94
21.93
31.04
38.95
45.45
50.48
54.08
56.40
57.74
58.48
58.98
59.52
60.12
60.63
60.72
60.07
58.48
55.97
52.80
49.33
45.90
42.68
39.64
36.57
33.15
29.20
24.69
19.83
14.94
10.32
6.12
2.29
-1.45
-5.45
-9.99
-15.22
-21.02
-27.12
-33.17
-38.89
-44.27
-49.55
-55.20
-61.78
-69.67
-78.84
-88.61
-97.77
-104.71
-107.94
-106.49
-100.30
-90.23
-77.73
-64.39
-51.37
-39.24
-27.89
-16.92
-5.90
5.33
16.63
27.64
37.90
46.96
54.53
60.51
65.00
68.20
70.37
71.71
72.38
72.50
72.20
71.63
70.95
70.18
69.21
67.87
65.97
63.45
60.41
57.07
53.70
50.45
47.31
44.15
40.76
36.90
32.45
27.43
22.00
16.46
11.13
6.26
1.89
-2.17
-6.21
-10.56
-15.41
-20.75
-26.43
-32.19
-37.81
-43.23
-48.46
-53.73
-59.34
-65.69
-73.13
-81.82
-91.52
-101.39
-110.05
-115.81
-117.22
-113.54
-105.10
-93.12
-79.33
-65.36
-52.21
-40.14
-28.87
-17.87
-6.75
4.63
16.16
27.59
38.62
48.88
57.99
65.58
71.41
75.44
77.88
79.10
79.52
79.48
79.16
78.59
77.70
76.40
74.60
72.25
69.38
66.03
62.29
58.31
54.24
50.21
46.36
42.78
39.44
36.18
32.79
29.00
24.66
19.80
14.66
9.57
4.79
0.39
-3.81
-8.18
-12.99
-18.33
-24.03
-29.75
-35.15
-40.09
-44.64
-49.10
-53.83
-59.16
-65.41
-72.76
-81.18
-90.26
-99.05
-106.10
-109.83
-109.01
-103.29
-93.33
-80.63
-66.96
-53.76
-41.73
-30.80
-20.47
-10.17
0.37
11.03
21.42
31.07
39.56
46.64
52.26
56.48
59.45
61.36
62.43
62.92
63.06
63.06
63.05
63.02
62.84
62.27
61.09
59.14
56.43
53.17
49.67
46.26
43.12
40.19
37.24
33.96
30.16
25.86
21.28
16.71
12.34
8.19
4.11
-0.18
-4.85
-10.01
-15.56
-21.37
-27.24
-33.01
-38.53
-43.72
-48.62
-53.43
-58.62
-64.73
-72.18
-80.89
-90.08
-98.27
-103.70
-104.89
-101.21
-93.08
-81.85
-69.22
-56.65
-44.92
-34.09
-23.74
-13.38
-2.74
8.12
18.86
29.12
38.53
46.85
53.89
59.49
63.50
65.88
66.75
66.44
65.46
64.31
63.39
62.85
62.62
62.43
61.94
60.88
59.11
56.68
53.79
50.72
47.70
44.86
42.16
39.42
36.45
33.09
29.32
25.21
20.93
16.69
12.63
8.84
5.23
1.64
-2.22
-6.62
-11.70
-17.41
-23.53
-29.71
-35.62
-41.09
-46.12
-50.92
-55.81
-61.21
-67.54
-75.06
-83.64
-92.64
-100.82
-106.61
-108.52
-105.72
-98.33
-87.41
-74.54
-61.32
-48.86
-37.62
-27.47
-18.02
-8.81
0.45
9.92
19.50
28.91
37.71
45.41
51.61
56.13
59.04
60.64
61.28
61.39
61.30
61.25
61.35
61.59
61.76
61.57
60.72
59.01
56.42
53.11
49.41
45.65
42.10
38.90
36.01
33.25
30.30
26.90
22.90
18.34
13.43
8.53
3.97
-0.09
-3.68
-7.09
-10.68
-14.81
-19.60
-24.91
-30.39
-35.67
-40.46
-44.71
-48.63
-52.58
-57.03
-62.44
-69.09
-76.85
-85.05
-92.39
-97.26
-98.21
-94.51
-86.41
-75.11
-62.22
-49.28
-37.26
-26.45
-16.68
-7.61
1.03
9.32
17.24
24.65
31.42
37.38
42.39
46.32
49.16
51.00
52.05
52.59
52.90
53.23
53.70
54.33
54.94
55.27
55.04
53.99
52.08
49.40
46.22
42.81
39.41
36.18
33.06
29.89
26.48
22.65
18.38
13.84
9.28
4.95
0.92
-2.99
-7.09
-11.71
-17.01
-22.90
-29.11
-35.29
-41.20
-46.68
-51.76
-56.60
-61.51
-66.92
-73.29
-80.83
-89.31
-97.80
-104.83
-108.75
-108.26
-102.96
-93.46
-81.21
-67.87
-54.85
-42.89
-32.06
-21.94
-12.02
-1.90
8.56
19.29
30.05
40.43
49.93
58.00
64.20
68.31
70.44
71.02
70.62
69.82
69.03
68.47
68.15
67.93
67.58
66.85
65.55
63.56
60.93
57.84
54.53
51.24
48.10
45.16
42.34
39.44
36.28
32.63
28.37
23.53
18.27
12.87
7.60
2.62
-2.08
-6.64
-11.29
-16.22
-21.54
-27.20
-33.06
-38.82
-44.23
-49.07
-53.33
-57.29
-61.43
-66.36
-72.54
-80.10
-88.57
-96.86
-103.48
-106.89
-105.99
-100.45
-90.82
-78.33
-64.48
-50.59
-37.54
-25.67
-14.92
-4.96
4.55
13.92
23.28
32.52
41.29
49.06
55.40
60.14
63.39
65.50
66.87
67.76
68.22
68.25
67.88
67.26
66.59
65.94
65.19
64.00
62.02
59.07
55.29
51.07
46.90
43.15
39.91
36.99
34.05
30.70
26.74
22.21
17.35
12.49
7.91
3.73
-0.21
-4.22
-8.66
-13.74
-19.44
-25.48
-31.44
-36.90
-41.61
-45.59
-49.12
-52.69
-56.94
-62.40
-69.33
-77.50
-86.03
-93.58
-98.59
-99.79
-96.55
-89.10
-78.41
-65.86
-52.79
-40.20
-28.57
-17.95
-8.08
1.33
10.52
19.54
28.19
36.13
42.95
48.28
51.98
54.17
55.20
55.54
55.63
55.75
56.04
56.48
56.98
57.40
57.65
57.53
56.92
55.67
53.74
51.19
48.21
45.04
41.91
38.93
36.08
33.22
30.18
26.82
23.09
19.06
14.89
10.73
6.70
2.79
-1.09
-5.12
-9.49
-14.30
-19.53
-25.07
-30.75
-36.39
-41.86
-47.09
-52.12
-57.11
-62.40
-68.41
-75.54
-83.88
-93.04
-101.96
-109.13
-112.92
-112.22
-106.71
-97.09
-84.71
-71.17
-57.77
-45.23
-33.72
-22.98
-12.62
-2.35
7.96
18.30
28.50
38.29
47.28
55.05
61.27
65.76
68.57
69.95
70.31
70.05
69.54
68.98
68.44
67.90
67.19
66.13
64.63
62.62
60.20
57.53
54.78
52.09
49.50
46.94
44.34
41.61
38.69
35.50
31.99
28.09
23.80
19.20
14.45
9.73
5.20
0.87
-3.36
-7.73
-12.42
-17.56
-23.09
-28.84
-34.55
-39.99
-45.08
-49.85
-54.56
-59.61
-65.48
-72.52
-80.79
-89.79
-98.40
-105.08
-108.24
-106.77
-100.47
-90.15
-77.38
-63.89
-51.07
-39.61
-29.49
-20.25
-11.36
-2.44
6.63
15.73
24.60
32.94
40.40
46.64
51.42
54.59
56.26
56.73
56.49
56.07
55.87
56.03
56.41
56.62
56.24
54.94
52.68
49.65
46.24
42.80
39.60
36.68
33.94
31.16
28.09
24.53
20.43
15.90
11.20
6.60
2.31
-1.66
-5.51
-9.50
-13.88
-18.75
-24.01
-29.44
-34.83
-39.98
-44.92
-49.83
-55.10
-61.22
-68.47
-76.68
-85.03
-92.10
-96.23
-96.09
-91.14
-81.91
-69.78
-56.49
-43.53
-31.78
-21.41
-12.11
-3.41
5.04
13.38
21.51
29.22
36.20
42.17
46.90
50.29
52.42
53.58
54.15
54.59
55.23
56.26
57.67
59.23
60.59
61.28
60.92
59.28
56.48
52.87
48.99
45.29
41.95
38.82
35.50
31.66
27.10
21.97
16.62
11.47
6.75
2.45
-1.68
-6.03
-10.88
-16.40
-22.49
-28.92
-35.39
-41.61
-47.49
-53.07
-58.62
-64.58
-71.43
-79.54
-88.87
-98.75
-107.81
-114.27
-116.47
-113.46
-105.40
-93.54
-79.73
-65.74
-52.67
-40.82
-29.79
-19.00
-8.01
3.35
14.90
26.43
37.61
48.09
57.47
65.32
71.33
75.40
77.69
78.63
78.68
78.23
77.58
76.82
75.99
75.04
73.92
72.51
70.71
68.43
65.68
62.51
59.10
55.60
52.11
48.60
44.93
40.89
36.34
31.28
25.83
20.26
14.84
9.76
5.06
0.62
-3.78
-8.41
-13.45
-18.93
-24.74
-30.58
-36.12
-41.14
-45.67
-50.01
-54.67
-60.27
-67.28
-75.87
-85.68
-95.71
-104.43
-110.09
-111.22
-107.14
-98.21
-85.73
-71.51
-57.23
-44.04
-32.30
-21.81
-12.13
-2.81
6.41
15.62
24.72
33.47
41.50
48.35
53.66
57.28
59.38
60.36
60.70
60.78
60.80
60.80
60.71
60.45
59.88
58.88
57.28
54.98
51.99
48.45
44.58
40.59
36.62
32.70
28.79
24.88
20.93
16.92
12.73
8.25
3.39
-1.81
-7.23
-12.69
-18.03
-23.18
-28.15
-33.04
-37.96
-43.09
-48.67
-55.06
-62.54
-71.15
-80.39
-89.17
-95.89
-98.93
-97.20
-90.56
-79.90
-66.82
-53.08
-39.99
-28.19
-17.59
-7.71
1.96
11.73
21.61
31.38
40.64
49.01
56.15
61.81
65.93
68.56
69.89
70.20
69.86
69.24
68.68
68.34
68.17
67.90
67.08
65.43
62.78
59.31
55.38
51.41
47.70
44.41
41.50
38.79
36.05
32.99
29.41
25.17
20.35
15.21
10.13
5.45
1.24
-2.63
-6.51
-10.79
-15.69
-21.18
-27.03
-32.89
-38.49
-43.68
-48.52
-53.31
-58.55
-64.78
-72.39
-81.36
-91.06
-100.18
-107.04
-110.01
-108.10
-101.30
-90.58
-77.54
-63.88
-50.81
-38.88
-28.00
-17.80
-7.91
1.85
11.44
20.75
29.62
37.88
45.30
51.57
56.44
59.78
61.76
62.76
63.29
63.72
64.27
64.88
65.36
65.46
65.01
63.88
62.04
59.50
56.39
52.88
49.21
45.60
42.19
38.98
35.89
32.80
29.61
26.27
22.75
19.05
15.19
11.24
7.30
3.47
-0.23
-3.93
-7.87
-12.31
-17.38
-22.99
-28.79
-34.36
-39.36
-43.73
-47.72
-51.81
-56.57
-62.49
-69.79
-78.28
-87.25
-95.46
-101.45
-103.83
-101.77
-95.31
-85.34
-73.30
-60.73
-48.79
-38.00
-28.31
-19.33
-10.63
-2.00
6.55
14.79
22.43
29.20
34.93
39.58
43.21
45.95
47.95
49.38
50.41
51.21
51.90
52.48
52.87
52.84
52.18
50.74
48.57
45.93
43.15
40.49
37.97
35.38
32.36
28.65
24.22
19.29
14.22
9.32
4.74
0.38
-4.00
-8.63
-13.63
-18.94
-24.37
-29.72
-34.86
-39.79
-44.70
-49.94
-55.93
-63.04
-71.41
-80.74
-90.14
-98.23
-103.40
-104.33
-100.42
-92.08
-80.55
-67.52
-54.50
-42.39
-31.38
-21.14
-11.14
-0.98
9.49
20.11
30.53
40.25
48.76
55.63
60.55
63.56
64.90
65.06
64.55
63.84
63.24
62.91
62.89
63.14
63.52
63.80
63.66
62.74
60.84
57.89
54.09
49.73
45.16
40.67
36.37
32.32
28.43
24.62
20.74
16.64
12.18
7.30
2.05
-3.44
-9.02
-14.63
-20.36
-26.36
-32.72
-39.33
-45.76
-51.41
-55.70
-58.30
-59.34
-59.37
-59.30
-60.17
-62.96
-68.27
-76.09
-85.56
-95.12
-102.75
-106.62
-105.63
-99.81
-90.20
-78.41
-66.05
-54.17
-43.15
-32.79
-22.68
-12.42
-1.89
8.88
19.59
29.88
39.31
47.46
54.05
59.00
62.46
64.81
66.54
68.12
69.88
71.99
74.37
76.78
78.82
80.05
80.12
78.85
76.38
73.07
69.42
65.86
62.66
59.84
57.20
54.45
51.26
47.49
43.19
38.65
34.25
30.35
27.08
24.30
21.65
18.74
15.26
11.12
6.35
1.01
-4.82
-11.12
-17.83
-24.83
-32.01
-39.42
-47.40
-56.40
-66.74
-78.15
-89.69
-99.75
-106.56
-108.75
-105.78
-98.11
-86.96
-73.96
-60.58
-47.83
-36.13
-25.38
-15.26
-5.43
4.25
13.64
22.43
30.27
36.90
42.29
46.55
49.89
52.47
54.39
55.65
56.31
56.47
56.28
55.87
55.30
54.54
53.47
51.92
49.83
47.16
43.96
40.25
36.01
31.23
25.95
20.33
14.59
9.00
3.65
-1.55
-6.85
-12.59
-19.03
-26.29
-34.29
-42.80
-51.43
-59.82
-67.70
-75.06
-82.24
-89.80
-98.40
-108.28
-118.98
-129.16
-136.88
-140.19
-137.77
-129.44
-116.20
-99.83
-82.30
-65.17
-49.23
-34.54
-20.73
-7.33
5.91
19.00
31.68
43.59
54.35
63.65
71.27
77.09
81.12
83.51
84.58
84.75
84.49
84.21
84.14
84.26
84.39
84.23
83.47
81.92
79.53
76.39
72.71
68.73
64.70
60.75
56.89
52.98
48.72
43.86
38.23
31.97
25.43
19.13
13.46
8.53
4.12
-0.23
-5.04
-10.59
-16.94
-23.87
-31.06
-38.21
-45.13
-51.73
-58.05
-64.28
-70.81
-78.17
-86.90
-97.16
-108.48
-119.55
-128.48
-133.25
-132.42
-125.58
-113.52
-97.91
-80.75
-63.71
-47.74
-33.04
-19.28
-5.96
7.29
20.60
33.82
46.62
58.54
69.08
77.77
84.37
88.81
91.34
92.32
92.23
91.50
90.47
89.40
88.41
87.51
86.57
85.33
83.45
80.68
76.92
72.38
67.45
62.69
58.55
55.34
53.05
51.38
49.79
47.65
44.49
40.05
34.45
28.05
21.25
14.37
7.46
0.38
-7.05
-14.89
-22.96
-30.89
-38.28
-44.84
-50.59
-55.83
-61.10
-67.05
-74.26
-83.01
-93.05
-103.46
-112.70
-118.98
-120.75
-117.20
-108.61
-96.11
-81.43
-66.19
-51.57
-38.12
-25.86
-14.56
-3.98
6.05
15.61
24.70
33.19
40.86
47.43
52.63
56.37
58.80
60.26
61.20
61.95
62.67
63.30
63.66
63.54
62.86
61.64
59.96
57.92
55.48
52.53
48.86
44.30
38.93
33.00
26.94
21.12
15.63
10.27
4.68
-1.44
-8.15
-15.20
-22.23
-29.02
-35.63
-42.28
-49.24
-56.62
-64.41
-72.54
-81.07
-90.10
-99.63
-109.12
-117.44
-123.05
-124.44
-120.74
-112.11
-99.65
-85.03
-69.86
-55.25
-41.57
-28.66
-16.14
-3.66
8.82
21.14
33.03
44.18
54.28
63.05
70.21
75.56
79.07
80.99
81.82
82.11
82.33
82.65
82.98
83.05
82.61
81.46
79.55
76.91
73.62
69.86
65.87
61.89
58.09
54.42
50.66
46.47
41.62
36.08
30.08
23.91
17.84
11.97
6.17
0.22
-6.16
-13.14
-20.69
-28.58
-36.38
-43.64
-50.03
-55.57
-60.61
-65.82
-71.93
-79.52
-88.75
-99.14
-109.55
-118.27
-123.43
-123.53
-117.97
-107.27
-92.94
-77.03
-61.37
-47.11
-34.52
-23.28
-12.80
-2.64
7.26
16.67
25.21
32.51
38.34
42.61
45.34
46.62
46.58
45.44
43.63
41.67
40.15
39.52
39.91
41.08
42.44
43.35
43.28
42.05
39.86
37.11
34.27
31.67
29.47
27.69
26.25
25.03
23.90
22.71
21.33
19.68
17.76
15.65
13.49
11.43
9.54
7.73
5.77
3.37
0.34
-3.32
-7.41
-11.55
-15.46
-19.01
-22.31
-25.61
-29.16
-33.18
-37.81
-43.06
-48.72
-54.23
-58.60
-60.63
-59.42
-54.75
-47.33
-38.53
-29.85
-22.21
-15.74
-9.87
-3.78
3.10
10.86
19.16
27.42
35.14
41.95
47.60
51.98
55.01
56.72
57.24
56.87
56.02
55.08
54.27
53.60
52.84
51.67
49.86
47.43
44.59
41.62
38.71
35.80
32.61
28.79
24.11
18.54
12.32
5.81
-0.62
-6.65
-12.08
-16.87
-21.08
-24.91
-28.64
-32.54
-36.85
-41.67
-46.89
-52.25
-57.44
-62.23
-66.66
-71.12
-76.21
-82.57
-90.38
-99.09
-107.36
-113.37
-115.41
-112.52
-104.84
-93.50
-80.22
-66.61
-53.81
-42.22
-31.72
-21.88
-12.26
-2.57
7.22
16.99
26.45
35.19
42.77
48.82
53.12
55.67
56.69
56.66
56.15
55.75
55.88
56.68
57.92
59.19
59.97
59.88
58.73
56.65
53.90
50.83
47.73
44.76
41.89
38.98
35.83
32.22
28.02
23.23
18.00
12.61
7.35
2.48
-1.98
-6.27
-10.80
-16.00
-22.05
-28.82
-35.86
-42.66
-48.84
-54.37
-59.54
-64.86
-70.86
-77.93
-86.19
-95.32
-104.47
-112.33
-117.31
-118.01
-113.68
-104.52
-91.68
-76.77
-61.35
-46.48
-32.55
-19.45
-6.85
5.52
17.84
30.11
42.27
54.14
65.39
75.54
84.06
90.53
94.82
97.16
98.10
98.29
98.26
98.29
98.32
98.07
97.12
95.07
91.72
87.10
81.43
75.11
68.56
62.15
56.10
50.51
45.29
40.32
35.41
30.43
25.26
19.85
14.27
8.63
3.17
-1.94
-6.58
-10.85
-15.01
-19.41
-24.33
-29.82
-35.71
-41.62
-47.16
-52.18
-56.83
-61.57
-67.02
-73.71
-81.84
-91.04
-100.28
-108.08
-112.80
-113.16
-108.70
-99.92
-88.12
-74.92
-61.71
-49.32
-37.88
-27.13
-16.68
-6.31
3.95
13.87
23.14
31.45
38.57
44.35
48.82
52.08
54.33
55.85
56.89
57.73
58.55
59.44
60.35
61.05
61.14
60.28
58.27
55.22
51.52
47.73
44.29
41.37
38.79
36.13
32.96
29.04
24.39
19.28
14.06
9.05
4.39
0.01
-4.31
-8.85
-13.87
-19.52
-25.78
-32.44
-39.19
-45.68
-51.72
-57.34
-62.89
-68.96
-76.14
-84.67
-94.25
-103.80
-111.71
-116.18
-115.81
-110.09
-99.60
-85.73
-70.27
-54.79
-40.25
-26.97
-14.76
-3.24
7.94
18.93
29.75
40.23
50.13
59.13
66.83
72.87
76.98
79.11
79.49
78.56
76.92
75.07
73.37
71.88
70.45
68.79
66.61
63.74
60.14
55.90
51.17
46.11
40.86
35.54
30.24
25.06
20.10
15.36
10.82
6.38
1.92
-2.57
-7.00
-11.15
-14.79
-17.77
-20.16
-22.29
-24.62
-27.61
-31.50
-36.26
-41.54
-46.89
-51.84
-56.20
-60.04
-63.76
-67.92
-73.18
-79.96
-88.28
-97.51
-106.43
-113.35
-116.61
-115.07
-108.48
-97.57
-83.78
-68.72
-53.67
-39.32
-25.70
-12.47
0.78
14.28
28.01
41.68
54.90
67.27
78.45
88.22
96.39
102.80
107.32
109.86
110.43
109.25
106.73
103.39
99.68
95.90
92.05
87.95
83.36
78.16
72.47
66.54
60.71
55.20
50.08
45.23
40.42
35.41
30.05
24.33
18.37
12.48
7.01
2.31
-1.45
-4.39
-6.89
-9.48
-12.62
-16.52
-21.12
-26.14
-31.23
-36.22
-41.13
-46.26
-52.08
-59.15
-67.95
-78.79
-91.55
-105.62
-119.73
-132.17
-141.12
-145.18
-143.77
-137.32
-127.08
-114.69
-101.61
-88.79
-76.50
-64.51
-52.43
-39.92
-26.95
-13.71
-0.58
12.03
23.79
34.47
43.99
52.32
59.46
65.46
70.39
74.36
77.54
80.11
82.16
83.70
84.63
84.78
84.04
82.46
80.21
77.55
74.70
71.78
68.66
65.06
60.68
55.38
49.32
42.93
36.67
30.84
25.36
19.84
13.82
6.99
-0.56
-8.44
-16.12
-23.22
-29.61
-35.52
-41.30
-47.38
-54.18
-62.10
-71.40
-81.97
-93.12
-103.44
-111.05
-114.13
-111.57
-103.48
-91.13
-76.48
-61.43
-47.19
-34.04
-21.63
-9.39
3.10
15.87
28.63
40.96
52.37
62.48
70.95
77.58
82.28
85.19
86.56
86.82
86.39
85.70
85.04
84.56
84.21
83.78
82.94
81.37
78.90
75.53
71.41
66.79
61.91
56.96
52.03
47.11
42.13
36.98
31.59
25.95
20.17
14.49
9.12
4.18
-0.40
-4.88
-9.63
-14.96
-21.00
-27.63
-34.49
-41.19
-47.42
-53.11
-58.42
-63.67
-69.29
-75.71
-83.23
-91.85
-101.06
-109.72
-116.18
-118.68
-115.97
-107.75
-94.93
-79.28
-62.78
-47.00
-32.62
-19.56
-7.31
4.66
16.58
28.35
39.66
50.15
59.44
67.30
73.58
78.23
81.31
83.01
83.52
83.13
82.08
80.57
78.76
76.63
74.07
70.85
66.80
61.90
56.33
50.52
44.94
40.00
35.86
32.39
29.19
25.80
21.82
17.09
11.76
6.19
0.82
-4.09
-8.52
-12.70
-17.03
-21.83
-27.26
-33.22
-39.39
-45.38
-50.90
-55.83
-60.39
-65.02
-70.35
-76.95
-85.01
-94.18
-103.40
-111.08
-115.48
-115.23
-109.81
-99.71
-86.31
-71.38
-56.54
-42.86
-30.73
-19.97
-10.20
-1.06
7.65
15.92
23.60
30.52
36.54
41.53
45.48
48.39
50.36
51.53
52.11
52.35
52.49
52.71
53.10
53.59
53.96
53.91
53.13
51.38
48.63
44.97
40.69
36.14
31.61
27.29
23.21
19.38
15.71
12.11
8.48
4.66
0.43
-4.40
-9.93
-16.12
-22.74
-29.45
-35.95
-42.03
-47.75
-53.40
-59.46
-66.49
-74.79
-84.24
-94.07
-102.89
-109.02
-111.04
-108.22
-100.85
-90.04
-77.34
-64.16
-51.41
-39.40
-28.05
-17.17
-6.63
3.60
13.48
23.01
32.22
41.02
49.17
56.27
61.92
65.90
68.27
69.35
69.60
69.42
69.07
68.61
68.01
67.16
65.96
64.34
62.25
59.64
56.51
52.90
48.94
44.87
40.93
37.29
33.96
30.73
27.31
23.40
18.93
14.10
9.29
4.87
0.97
-2.59
-6.24
-10.40
-15.27
-20.72
-26.36
-31.80
-36.81
-41.47
-46.06
-50.98
-56.66
-63.48
-71.71
-81.31
-91.72
-101.72
-109.62
-113.71
-112.82
-106.87
-96.87
-84.53
-71.58
-59.21
-47.90
-37.49
-27.59
-17.92
-8.36
0.95
9.76
17.77
24.65
30.14
34.12
36.69
38.13
38.87
39.36
39.92
40.79
42.01
43.56
45.23
46.74
47.74
47.86
46.91
44.88
42.04
38.82
35.66
32.91
30.66
28.82
27.20
25.60
24.00
22.46
21.11
20.05
19.36
19.02
18.90
18.74
18.18
16.79
14.26
10.56
5.92
0.87
-4.04
-8.44
-12.29
-15.83
-19.53
-23.89
-29.30
-35.92
-43.50
-51.34
-58.27
-62.88
-63.92
-60.72
-53.40
-42.91
-30.66
-18.11
-6.34
4.15
13.36
21.55
28.95
35.58
41.24
45.63
48.58
50.14
50.57
50.21
49.38
48.26
46.94
45.42
43.77
42.09
40.55
39.22
38.06
36.87
35.39
33.44
30.95
28.12
25.21
22.47
19.95
17.49
14.83
11.74
8.19
4.34
0.51
-3.07
-6.34
-9.46
-12.72
-16.29
-20.17
-24.10
-27.82
-31.13
-34.06
-36.83
-39.77
-43.24
-47.56
-53.08
-60.00
-68.22
-77.13
-85.56
-91.95
-94.81
-93.20
-87.10
-77.42
-65.67
-53.41
-41.78
-31.30
-21.94
-13.32
-5.01
3.23
11.45
19.50
27.13
34.03
39.94
44.59
47.87
49.79
50.58
50.62
50.32
50.04
49.97
50.13
50.43
50.72
50.84
50.57
49.71
48.06
45.59
42.40
38.82
35.24
32.02
29.34
27.18
25.27
23.30
20.97
18.17
14.95
11.52
8.17
5.08
2.29
-0.37
-3.19
-6.43
-10.23
-14.53
-19.07
-23.55
-27.72
-31.49
-34.95
-38.38
-42.15
-46.71
-52.41
-59.47
-67.64
-76.18
-83.81
-89.02
-90.55
-87.81
-81.11
-71.54
-60.64
-49.78
-39.82
-30.98
-22.95
-15.27
-7.51
0.42
8.41
16.10
23.13
29.14
33.94
37.45
39.72
40.92
41.22
40.84
40.03
39.04
38.17
37.58
37.34
37.29
37.15
36.56
35.32
33.38
30.95
28.35
25.91
23.88
22.35
21.26
20.44
19.71
18.85
17.76
16.42
14.99
13.66
12.54
11.61
10.68
9.50
7.84
5.63
2.90
-0.17
-3.41
-6.62
-9.63
-12.36
-14.88
-17.45
-20.54
-24.72
-30.38
-37.56
-45.67
-53.64
-60.06
-63.71
-63.93
-60.81
-55.20
-48.25
-41.07
-34.30
-28.06
-22.07
-15.96
-9.47
-2.58
4.54
11.65
18.42
24.51
29.61
33.44
35.95
37.27
37.75
37.81
37.85
38.11
38.67
39.51
40.48
41.35
41.86
41.70
40.69
38.80
36.25
33.44
30.73
28.37
26.36
24.52
22.56
20.26
17.54
14.48
11.22
7.93
4.68
1.41
-2.04
-5.89
-10.31
-15.31
-20.76
-26.41
-32.03
-37.50
-42.92
-48.56
-54.85
-62.17
-70.72
-80.37
-90.44
-99.82
-107.08
-110.88
-110.38
-105.51
-97.03
-86.25
-74.56
-63.03
-52.22
-42.14
-32.52
-23.00
-13.38
-3.57
6.31
16.06
25.33
33.69
40.74
46.19
49.99
52.35
53.67
54.38
54.78
55.01
55.00
54.62
53.76
52.37
50.47
48.08
45.26
42.07
38.65
35.17
31.87
28.89
26.31
24.07
22.02
20.00
17.82
15.42
12.75
9.83
6.76
3.69
0.80
-1.82
-4.17
-6.41
-8.86
-11.82
-15.48
-19.77
-24.43
-29.07
-33.39
-37.25
-40.82
-44.40
-48.42
-53.31
-59.36
-66.65
-74.81
-82.98
-89.83
-93.85
-93.78
-89.10
-80.16
-68.13
-54.53
-40.77
-27.77
-15.88
-5.01
5.12
14.81
24.31
33.72
43.05
52.12
60.57
67.96
73.89
78.15
80.85
82.33
83.06
83.46
83.76
84.02
84.22
84.26
84.04
83.46
82.42
80.83
78.66
75.98
72.92
69.70
66.52
63.53
60.73
58.02
55.16
51.84
47.78
42.85
37.13
30.86
24.43
18.10
11.94
5.81
-0.55
-7.34
-14.52
-21.85
-28.98
-35.57
-41.48
-46.77
-51.70
-56.70
-62.19
-68.61
-76.24
-85.02
-94.39
-103.22
-109.99
-113.23
-111.94
-106.02
-96.28
-84.16
-71.27
-58.80
-47.33
-36.80
-26.86
-17.13
-7.48
1.98
10.95
19.09
26.16
31.97
36.46
39.62
41.61
42.68
43.22
43.61
44.17
45.03
46.10
47.13
47.79
47.82
47.05
45.47
43.26
40.66
37.91
35.18
32.53
29.89
27.14
24.07
20.52
16.44
11.93
7.33
3.06
-0.50
-3.30
-5.64
-8.15
-11.50
-16.10
-21.92
-28.55
-35.43
-42.09
-48.33
-54.25
-60.12
-66.25
-72.93
-80.19
-87.77
-94.95
-100.62
-103.46
-102.31
-96.63
-86.69
-73.57
-58.80
-43.90
-29.98
-17.58
-6.70
2.97
11.88
20.40
28.75
36.99
44.93
52.24
58.48
63.24
66.28
67.55
67.22
65.63
63.16
60.27
57.37
54.84
52.94
51.68
50.89
50.22
49.27
47.81
45.87
43.69
41.63
39.98
38.83
38.07
37.48
36.85
36.00
34.84
33.31
31.42
29.23
26.83
24.33
21.77
19.08
16.09
12.58
8.41
3.65
-1.43
-6.42
-11.07
-15.38
-19.69
-24.59
-30.79
-38.79
-48.77
-60.40
-72.81
-84.69
-94.47
-100.70
-102.39
-99.31
-92.08
-81.94
-70.35
-58.58
-47.42
-37.09
-27.42
-18.09
-8.78
0.70
10.36
20.00
29.24
37.58
44.54
49.80
53.32
55.35
56.34
56.75
57.00
57.35
57.93
58.72
59.51
59.91
59.51
57.96
55.21
51.50
47.35
43.26
39.56
36.27
33.17
29.95
26.38
22.40
18.14
13.79
9.57
5.60
1.92
-1.56
-5.04
-8.76
-12.99
-17.79
-23.11
-28.68
-34.19
-39.33
-43.96
-48.15
-52.17
-56.48
-61.60
-67.93
-75.51
-83.78
-91.55
-97.27
-99.45
-97.26
-90.81
-81.11
-69.63
-57.79
-46.55
-36.22
-26.69
-17.65
-8.87
-0.26
8.08
15.98
23.24
29.68
35.21
39.82
43.56
46.47
48.62
50.09
51.00
51.53
51.87
52.14
52.36
52.41
52.09
51.23
49.75
47.73
45.36
42.90
40.56
38.44
36.49
34.50
32.19
29.31
25.80
21.77
17.53
13.40
9.63
6.20
2.92
-0.60
-4.71
-9.57
-15.14
-21.12
-27.16
-33.00
-38.58
-44.06
-49.78
-56.13
-63.47
-72.04
-81.73
-91.98
-101.70
-109.36
-113.42
-112.79
-107.27
-97.60
-85.22
-71.75
-58.52
-46.25
-35.06
-24.74
-14.91
-5.27
4.34
13.98
23.56
32.82
41.46
49.12
55.59
60.79
64.86
68.03
70.58
72.73
74.65
76.36
77.78
78.74
78.99
78.30
76.53
73.70
69.99
65.74
61.32
57.04
53.10
49.57
46.38
43.41
40.59
37.87
35.25
32.70
30.12
27.30
23.99
20.09
15.71
11.22
7.05
3.54
0.70
-1.73
-4.22
-7.21
-10.90
-15.19
-19.73
-24.11
-28.03
-31.44
-34.53
-37.69
-41.40
-46.15
-52.24
-59.66
-67.93
-76.04
-82.60
-86.19
-85.80
-81.21
-73.13
-62.89
-52.06
-41.87
-32.92
-25.17
-18.12
-11.21
-4.06
3.38
10.89
18.07
24.54
29.98
34.25
37.31
39.25
40.23
40.46
40.22
39.77
39.27
38.75
38.12
37.15
35.70
33.73
31.35
28.76
26.13
23.62
21.30
19.20
17.23
15.28
13.16
10.74
8.00
5.00
1.92
-1.07
-3.89
-6.61
-9.34
-12.20
-15.31
-18.77
-22.67
-27.05
-31.86
-36.84
-41.65
-45.88
-49.37
-52.18
-54.72
-57.55
-61.17
-65.83
-71.40
-77.26
-82.39
-85.61
-85.84
-82.43
-75.40
-65.48
-53.87
-41.83
-30.34
-19.89
-10.45
-1.73
6.65
14.92
23.10
31.09
38.71
45.79
52.18
57.74
62.35
65.88
68.16
69.15
68.84
67.44
65.34
62.99
60.80
58.98
57.45
55.86
53.81
51.02
47.53
43.61
39.71
36.14
32.96
29.94
26.74
23.10
18.98
14.61
10.36
6.47
3.07
0.00
-3.03
-6.36
-10.20
-14.60
-19.42
-24.42
-29.38
-34.14
-38.72
-43.35
-48.35
-54.13
-61.05
-69.25
-78.54
-88.20
-97.04
-103.59
-106.47
-104.87
-98.85
-89.37
-77.87
-65.85
-54.34
-43.71
-33.81
-24.27
-14.72
-4.97
4.98
14.94
24.67
33.78
41.91
48.75
54.15
58.19
61.12
63.29
64.97
66.35
67.49
68.35
68.85
68.88
68.40
67.46
66.22
64.92
63.74
62.73
61.76
60.64
59.19
57.37
55.25
52.94
50.43
47.65
44.47
40.87
36.94
32.94
29.15
25.75
22.72
19.83
16.63
12.61
7.36
0.78
-7.01
-15.54
-24.34
-33.04
-41.55
-49.98
-58.65
-67.88
-77.93
-88.84
-100.30
-111.49
-121.15
-127.73
-129.92
-127.11
-119.67
-108.88
-96.47
-83.95
-72.19
-61.33
-51.02
-40.83
-30.51
-20.13
-9.89
-0.08
9.10
17.52
25.00
31.40
36.54
40.30
42.75
44.08
44.66
44.87
45.03
45.39
45.98
46.65
47.09
46.96
46.03
44.35
42.20
40.06
38.40
37.48
37.29
37.58
37.97
38.12
37.78
36.81
35.10
32.61
29.29
25.17
20.33
14.88
8.95
2.63
-3.95
-10.55
-16.80
-22.24
-26.50
-29.56
-31.80
-34.06
-37.35
-42.49
-49.73
-58.51
-67.51
-74.96
-79.18
-79.10
-74.59
-66.41
-55.94
-44.66
-33.71
-23.64
-14.54
-6.16
1.78
9.44
16.82
23.78
30.08
35.46
39.77
42.98
45.26
46.92
48.30
49.62
50.98
52.33
53.66
54.99
56.31
57.53
58.38
58.51
57.59
55.52
52.44
48.66
44.46
40.04
35.47
30.72
25.74
20.50
14.98
9.18
3.14
-3.04
-9.17
-15.04
-20.52
-25.57
-30.30
-34.91
-39.63
-44.76
-50.65
-57.64
-65.87
-75.06
-84.31
-92.19
-97.04
-97.49
-93.01
-84.12
-72.23
-59.14
-46.38
-34.81
-24.52
-15.14
-6.17
2.75
11.68
20.53
29.09
37.18
44.55
50.95
56.12
59.90
62.30
63.55
64.02
64.10
64.06
64.07
64.12
64.10
63.86
63.26
62.20
60.71
58.86
56.79
54.57
52.20
49.52
46.37
42.59
38.15
33.18
27.92
22.64
17.52
12.59
7.76
2.81
-2.47
-8.28
-14.70
-21.69
-29.07
-36.52
-43.67
-50.16
-55.74
-60.35
-64.15
-67.59
-71.36
-76.26
-82.96
-91.66
-101.80
-112.02
-120.41
-125.09
-124.85
-119.58
-110.21
-98.30
-85.43
-72.68
-60.54
-48.96
-37.71
-26.54
-15.29
-3.87
7.75
19.47
31.03
42.01
51.88
60.21
66.77
71.59
74.90
77.03
78.33
79.12
79.69
80.21
80.77
81.25
81.39
80.83
79.34
76.85
73.53
69.66
65.53
61.29
56.98
52.53
47.91
43.21
38.55
34.10
29.92
25.98
22.14
18.24
14.14
9.85
5.45
1.14
-2.96
-6.78
-10.48
-14.30
-18.49
-23.21
-28.42
-33.97
-39.60
-45.11
-50.38
-55.41
-60.34
-65.48
-71.21
-77.85
-85.35
-93.05
-99.70
-103.77
-103.96
-99.72
-91.49
-80.49
-68.23
-55.96
-44.36
-33.48
-23.06
-12.79
-2.53
7.65
17.51
26.80
35.24
42.58
48.61
53.27
56.64
58.99
60.67
62.02
63.23
64.32
65.20
65.78
66.01
65.93
65.56
64.82
63.58
61.66
59.02
55.79
52.24
48.65
45.11
41.50
37.54
32.97
27.70
21.89
15.85
9.89
4.21
-1.25
-6.68
-12.37
-18.51
-25.17
-32.25
-39.53
-46.76
-53.74
-60.37
-66.66
-72.76
-78.93
-85.55
-92.98
-101.41
-110.70
-120.18
-128.65
-134.55
-136.49
-133.59
-125.87
-114.25
-100.24
-85.39
-70.89
-57.34
-44.76
-32.86
-21.23
-9.54
2.46
14.85
27.53
40.16
52.16
62.79
71.42
77.73
81.85
84.35
85.95
87.33
88.85
90.55
92.25
93.65
94.45
94.44
93.52
91.72
89.24
86.38
83.43
80.59
77.86
75.13
72.25
69.13
65.75
62.20
58.48
54.50
50.10
45.10
39.47
33.35
26.96
20.52
14.20
8.00
1.81
-4.50
-11.10
-18.16
-25.78
-33.95
-42.50
-51.11
-59.40
-67.15
-74.44
-81.78
-89.97
-99.84
-111.80
-125.51
-139.73
-152.45
-161.43
-164.81
-161.72
-152.49
-138.54
-121.83
-104.27
-87.24
-71.37
-56.67
-42.80
-29.39
-16.18
-3.11
9.71
22.02
33.45
43.54
51.83
58.02
62.05
64.26
65.23
65.66
66.15
66.98
68.09
69.19
69.86
69.80
68.90
67.29
65.17
62.73
60.12
57.46
54.87
52.51
50.52
48.93
47.60
46.25
44.54
42.19
39.06
35.23
30.85
26.18
21.48
16.97
12.70
8.60
4.34
-0.51
-6.30
-13.16
-20.82
-28.70
-36.17
-42.75
-48.38
-53.38
-58.41
-64.25
-71.59
-80.83
-91.83
-103.70
-114.85
-123.16
-126.56
-123.67
-114.29
-99.47
-81.16
-61.54
-42.40
-24.75
-8.86
5.48
18.61
30.77
42.02
52.25
61.26
68.83
74.82
79.21
82.15
83.97
85.02
85.62
85.95
86.08
86.05
85.91
85.67
85.31
84.66
83.36
81.14
77.85
73.63
68.89
64.05
59.42
55.06
50.78
46.35
41.56
36.37
30.85
25.14
19.38
13.67
8.07
2.55
-3.01
-8.80
-15.08
-22.05
-29.70
-37.79
-45.92
-53.65
-60.74
-67.21
-73.48
-80.17
-88.08
-97.74
-109.25
-121.93
-134.29
-144.21
-149.49
-148.50
-140.73
-126.98
-109.04
-89.11
-69.11
-50.16
-32.59
-16.18
-0.47
14.89
30.05
44.94
59.33
72.82
84.86
94.87
102.38
107.20
109.52
109.90
109.08
107.76
106.43
105.27
104.22
103.09
101.59
99.49
96.60
92.83
88.23
82.99
77.41
71.76
66.23
60.82
55.40
49.81
43.97
37.93
31.83
25.81
19.94
14.13
8.27
2.32
-3.66
-9.54
-15.24
-20.86
-26.65
-32.92
-39.85
-47.40
-55.23
-62.93
-70.08
-76.49
-82.26
-87.78
-93.64
-100.51
-108.98
-119.22
-130.73
-142.24
-151.80
-157.27
-156.94
-150.06
-137.12
-119.66
-99.72
-79.26
-59.63
-41.47
-24.80
-9.31
5.40
19.63
33.54
47.10
60.06
71.95
82.26
90.49
96.39
99.98
101.58
101.69
100.85
99.52
98.03
96.52
94.95
93.15
90.90
88.04
84.48
80.27
75.54
70.48
65.28
60.11
55.09
50.27
45.62
41.00
36.25
31.13
25.51
19.36
12.77
5.96
-0.81
-7.20
-12.92
-17.83
-21.92
-25.41
-28.66
-32.06
-35.86
-40.13
-44.70
-49.29
-53.68
-57.80
-61.87
-66.33
-71.75
-78.69
-87.39
-97.49
-107.83
-116.61
-121.78
-121.75
-115.95
-105.04
-90.58
-74.47
-58.20
-42.59
-27.74
-13.39
0.79
14.92
28.89
42.46
55.24
66.84
76.90
85.19
91.66
96.47
99.81
101.90
102.88
102.88
102.08
100.74
99.08
97.16
94.83
91.71
87.44
81.84
75.08
67.58
59.89
52.46
45.48
38.87
32.44
25.95
19.29
12.52
5.80
-0.65
-6.68
-12.24
-17.41
-22.39
-27.44
-32.80
-38.57
-44.65
-50.71
-56.39
-61.49
-66.06
-70.50
-75.40
-81.36
-88.77
-97.62
-107.38
-116.97
-124.89
-129.50
-129.49
-124.32
-114.47
-101.30
-86.60
-71.93
-58.25
-45.73
-33.99
-22.53
-10.99
0.69
12.27
23.35
33.47
42.15
49.00
53.81
56.57
57.56
57.24
56.16
54.81
53.58
52.69
52.27
52.29
52.63
53.07
53.34
53.18
52.47
51.23
49.63
47.93
46.34
44.98
43.76
42.55
41.17
39.51
37.56
35.41
33.17
30.91
28.65
26.34
23.94
21.36
18.54
15.39
11.86
7.89
3.45
-1.48
-6.89
-12.78
-19.10
-25.78
-32.82
-40.28
-48.39
-57.42
-67.51
-78.40
-89.29
-98.83
-105.51
-108.03
-105.87
-99.39
-89.71
-78.27
-66.43
-55.09
-44.58
-34.84
-25.59
-16.50
-7.38
1.82
10.96
19.74
27.75
34.59
39.95
43.77
46.18
47.50
48.12
48.38
48.53
48.71
48.97
49.27
49.54
49.67
49.50
48.88
47.70
45.91
43.55
40.72
37.64
34.50
31.48
28.66
25.96
23.19
20.13
16.64
12.75
8.68
4.72
1.10
-2.17
-5.32
-8.73
-12.74
-17.45
-22.72
-28.22
-33.58
-38.58
-43.19
-47.53
-51.83
-56.37
-61.44
-67.32
-74.15
-81.70
-89.23
-95.50
-99.09
-98.86
-94.41
-86.28
-75.75
-64.31
-53.23
-43.14
-34.11
-25.77
-17.67
-9.48
-1.13
7.24
15.37
22.92
29.60
35.20
39.59
42.78
44.93
46.29
47.17
47.91
48.79
49.91
51.18
52.29
52.82
52.43
50.98
48.56
45.51
42.22
39.04
36.18
33.61
31.11
28.35
25.03
20.98
16.26
11.17
6.08
1.31
-2.98
-6.88
-10.65
-14.53
-18.65
-22.94
-27.20
-31.27
-35.11
-38.87
-42.83
-47.35
-52.73
-59.18
-66.69
-74.88
-82.93
-89.63
-93.64
-93.92
-90.18
-82.96
-73.47
-63.11
-52.93
-43.42
-34.49
-25.79
-17.02
-8.08
0.91
9.79
18.42
26.65
34.31
41.11
46.75
51.02
53.90
55.56
56.33
56.55
56.50
56.33
56.10
55.84
55.49
54.98
54.22
53.05
51.39
49.23
46.67
43.91
41.13
38.46
35.92
33.40
30.79
27.98
25.00
21.94
18.95
16.07
13.26
10.34
7.11
3.41
-0.77
-5.28
-9.94
-14.57
-19.08
-23.46
-27.84
-32.37
-37.27
-42.82
-49.37
-57.12
-66.05
-75.62
-84.78
-92.12
-96.24
-96.20
-91.91
-84.13
-74.23
-63.67
-53.53
-44.24
-35.65
-27.31
-18.75
-9.76
-0.41
9.01
18.12
26.50
33.76
39.58
43.81
46.45
47.78
48.22
48.29
48.41
48.82
49.54
50.31
50.78
50.56
49.45
47.46
44.82
41.92
39.12
36.64
34.47
32.43
30.22
27.62
24.48
20.87
17.02
13.23
9.69
6.43
3.23
-0.19
-4.06
-8.38
-12.94
-17.48
-21.82
-25.97
-30.17
-34.69
-39.78
-45.60
-52.24
-59.62
-67.40
-74.84
-80.82
-84.05
-83.56
-79.09
-71.20
-61.11
-50.20
-39.54
-29.65
-20.52
-11.95
-3.68
4.33
12.05
19.33
26.04
32.04
37.19
41.40
44.67
47.14
48.98
50.42
51.64
52.70
53.62
54.34
54.84
55.02
54.78
54.03
52.73
50.93
48.81
46.62
44.55
42.67
40.82
38.75
36.14
32.87
28.98
24.73
20.42
16.19
11.98
7.51
2.47
-3.32
-9.72
-16.44
-23.04
-29.23
-34.92
-40.26
-45.57
-51.21
-57.56
-64.81
-72.95
-81.50
