1624439079.00
64.000000
-0.00
-0.00
-0.00
-0.00
-0.00
-0.00
-0.00
-0.00
-0.00
-0.00
0.00
0.01
0.01
-0.00
-0.03
-0.05
-0.05
0.00
0.13
0.36
0.66
1.01
1.37
1.72
2.06
2.40
2.79
3.24
3.80
4.42
5.06
5.66
6.20
6.68
7.15
7.68
8.31
9.14
10.09
11.04
11.88
12.56
13.14
13.76
14.65
15.96
17.91
20.32
22.90
25.38
27.58
29.57
31.68
34.32
37.81
42.54
48.15
54.10
59.83
64.97
69.58
74.14
79.34
85.71
93.76
103.00
112.62
121.73
129.77
136.75
143.30
150.75
157.77
166.64
177.95
191.79
206.97
220.57
228.25
225.36
208.53
176.87
132.76
80.05
23.07
-34.94
-92.44
-149.16
-205.23
-260.37
-313.74
-363.87
-409.83
-450.91
-486.50
-515.74
-537.23
-549.22
-549.96
-538.37
-514.21
-478.67
-433.88
-382.45
-327.02
-269.84
-212.63
-156.66
-102.95
-52.37
-5.90
35.58
71.43
101.35
125.50
144.38
158.69
169.15
176.37
180.75
182.57
182.07
179.51
175.23
169.65
163.18
156.15
148.81
141.30
133.69
126.02
118.33
110.69
103.16
95.80
88.68
81.83
75.25
68.95
62.95
57.25
51.86
46.78
42.03
37.59
33.45
29.61
26.07
22.81
19.83
17.11
14.67
12.48
10.54
8.83
7.35
6.07
4.97
4.05
3.27
2.62
2.09
1.65
1.30
1.01
0.79
0.61
0.47
0.37
0.29
0.23
0.19
0.17
0.16
0.16
0.17
0.19
0.22
0.25
0.28
0.33
0.37
0.41
0.45
0.50
0.54
0.58
0.63
0.69
0.74
0.80
0.87
0.94
1.02
1.12
1.22
1.34
1.48
1.63
1.79
1.98
2.19
2.42
2.67
2.95
3.25
3.59
3.95
4.35
4.78
5.25
5.75
6.28
6.86
7.47
8.13
8.84
9.60
10.41
11.25
12.11
12.99
13.89
14.83
15.83
16.91
18.08
19.31
20.56
21.71
22.68
23.33
23.54
23.22
22.28
20.66
18.32
15.24
11.44
7.02
2.19
-2.80
-7.63
-11.98
-15.61
-18.37
-20.25
-21.35
-21.83
-21.85
-21.51
-20.85
-19.88
-18.66
-17.35
-16.18
-15.44
-15.33
-15.88
-16.94
-18.17
-19.18
-19.71
-19.74
-19.50
-19.36
-19.65
-20.54
-21.86
-23.24
-24.27
-24.65
-24.36
-23.67
-22.92
-22.55
-23.09
-25.05
-28.69
-33.68
-38.80
-42.10
-41.39
-35.32
-24.12
-9.98
3.86
14.23
19.22
18.74
14.21
7.69
0.96
-5.00
-10.28
-15.36
-20.82
-27.04
-34.18
-42.30
-51.43
-61.71
-72.03
-82.01
-91.54
-100.92
-110.91
-122.56
-136.74
-153.45
-171.07
-186.25
-194.63
-191.92
-175.46
-145.38
-104.75
-58.71
-12.90
28.11
61.81
87.63
106.60
120.29
130.14
137.02
141.28
143.07
142.61
140.27
136.58
132.22
127.96
124.50
122.42
121.96
122.94
124.78
126.61
127.55
127.00
124.73
120.86
115.65
109.37
102.18
94.25
85.82
77.21
68.84
61.03
53.92
47.34
40.76
33.51
25.00
15.05
4.02
-7.15
-17.38
-25.78
-32.16
-37.20
-42.27
-49.12
-59.44
-74.29
-93.63
-115.89
-138.00
-155.79
-165.02
-162.63
-147.68
-121.72
-88.31
-51.91
-16.74
14.17
39.31
58.49
72.34
81.89
88.23
92.36
95.12
97.16
98.92
100.56
101.92
102.55
101.89
99.54
95.50
90.23
84.49
78.99
74.08
69.51
64.58
58.35
50.04
39.30
26.42
12.24
-2.11
-15.57
-27.52
-37.99
-47.53
-56.98
-66.94
-77.44
-87.99
-97.71
-105.78
-111.81
-116.06
-119.35
-122.92
-128.13
-136.02
-146.96
-160.16
-173.52
-183.86
-187.58
-181.73
-164.93
-137.94
-103.47
-65.44
-27.89
5.92
34.01
55.71
71.28
81.43
86.99
88.87
87.98
85.30
81.80
78.27
75.17
72.59
70.36
68.23
66.04
63.78
61.55
59.40
57.29
54.98
52.13
48.45
43.77
38.18
31.96
25.47
18.96
12.30
5.05
-3.35
-13.21
-24.31
-35.84
-46.72
-56.07
-63.57
-69.70
-75.56
-82.61
-92.21
-105.12
-120.93
-137.75
-152.23
-160.36
-158.61
-145.26
-121.07
-89.08
-53.64
-18.96
11.82
37.12
56.64
70.83
80.34
85.89
88.20
88.06
86.33
83.82
81.11
78.51
76.00
73.33
70.33
67.02
63.77
61.14
59.68
59.50
60.21
60.86
60.29
57.57
52.26
44.59
35.41
25.87
16.96
9.27
2.66
-3.55
-10.29
-18.30
-27.74
-38.17
-48.75
-58.65
-67.38
-75.02
-82.22
-90.03
-99.66
-112.00
-127.15
-143.84
-159.42
-170.14
-172.24
-163.12
-142.32
-111.79
-75.36
-37.52
-2.26
27.83
51.76
69.79
82.82
91.91
97.83
101.13
102.30
101.95
100.86
99.89
99.61
100.10
100.96
101.47
101.10
99.75
97.79
95.87
94.48
93.69
92.97
91.52
88.47
83.30
76.03
67.20
57.67
48.28
39.53
31.33
23.10
14.05
3.61
-8.18
-20.61
-32.65
-43.31
-52.14
-59.39
-65.86
-72.70
-81.07
-91.94
-105.87
-122.63
-140.80
-157.63
-169.32
-171.92
-162.66
-141.03
-109.13
-71.14
-32.00
4.02
34.26
57.87
75.36
87.82
96.33
101.69
104.50
105.31
104.77
103.56
102.32
101.41
100.90
100.58
100.10
99.21
97.83
96.15
94.46
92.95
91.60
90.03
87.65
83.86
78.26
70.79
61.77
51.81
41.57
31.67
22.47
14.03
6.13
-1.66
-9.85
-18.81
-28.57
-38.80
-48.88
-58.15
-66.17
-72.92
-78.86
-84.84
-91.98
-101.45
-114.10
-130.02
-148.04
-165.49
-178.47
-182.83
-175.44
-155.41
-124.55
-86.84
-47.23
-10.10
21.70
47.15
66.56
80.84
90.92
97.43
100.88
101.85
101.07
99.36
97.43
95.64
94.04
92.44
90.70
88.83
87.06
85.60
84.55
83.68
82.53
80.59
77.45
73.00
67.36
60.81
53.63
46.04
38.21
30.31
22.48
14.85
7.39
-0.02
-7.70
-15.98
-25.14
-35.18
-45.81
-56.44
-66.41
-75.23
-82.82
-89.64
-96.55
-104.72
-115.28
-128.88
-145.21
-162.62
-178.06
-187.65
-187.69
-175.92
-152.41
-119.71
-82.04
-43.98
-9.26
20.00
43.16
60.60
72.98
80.94
85.00
85.80
84.20
81.31
78.20
75.69
74.09
73.22
72.61
71.80
70.65
69.43
68.72
68.93
70.06
71.49
72.08
70.70
66.61
59.83
51.11
41.62
32.45
24.27
17.08
10.33
3.25
-4.77
-13.95
-23.99
-34.21
-43.89
-52.53
-60.05
-66.84
-73.66
-81.53
-91.45
-104.12
-119.54
-136.53
-152.61
-164.24
-167.73
-160.39
-141.62
-113.18
-78.71
-42.59
-8.63
20.75
44.68
63.38
77.52
87.68
94.27
97.59
98.08
96.40
93.43
90.04
86.85
84.16
81.94
79.95
78.00
76.09
74.40
73.17
72.46
71.99
71.13
69.01
64.86
58.32
49.59
39.45
28.97
19.16
10.59
3.21
-3.63
-10.87
-19.31
-29.26
-40.43
-52.05
-63.12
-72.85
-80.89
-87.47
-93.39
-99.87
-108.20
-119.41
-133.73
-150.07
-165.85
-177.33
-180.54
-172.55
-152.64
-122.63
-86.46
-48.83
-13.80
16.18
40.46
59.65
74.74
86.49
95.21
101.00
104.04
104.85
104.13
102.60
100.75
98.80
96.77
94.68
92.62
90.79
89.40
88.50
87.90
87.18
85.80
83.28
79.31
73.88
67.16
59.49
51.21
42.67
34.16
25.95
18.15
10.67
3.19
-4.75
-13.56
-23.33
-33.74
-44.17
-53.92
-62.49
-69.80
-76.22
-82.43
-89.38
-98.03
-109.21
-123.20
-139.21
-155.10
-167.45
-172.41
-166.77
-149.32
-121.35
-86.37
-49.06
-13.80
16.42
40.38
58.30
71.15
79.90
85.27
87.71
87.65
85.75
82.85
79.87
77.48
75.97
75.15
74.65
74.12
73.45
72.80
72.38
72.28
72.27
71.82
70.29
67.15
62.20
55.62
47.95
39.86
32.01
24.77
18.17
11.95
5.66
-1.14
-8.73
-17.12
-26.11
-35.31
-44.30
-52.66
-60.19
-66.97
-73.45
-80.39
-88.74
-99.37
-112.62
-127.83
-143.20
-155.74
-162.05
-159.17
-145.63
-122.10
-91.20
-56.82
-22.93
7.35
32.30
51.44
65.13
74.10
79.13
80.97
80.38
78.18
75.15
71.98
69.18
66.99
65.42
64.33
63.51
62.80
62.20
61.83
61.86
62.32
62.91
62.95
61.56
57.90
51.64
43.05
33.05
22.87
13.59
5.71
-0.92
-7.01
-13.42
-20.80
-29.30
-38.58
-47.98
-56.85
-64.80
-71.80
-78.23
-84.80
-92.40
-101.91
-113.96
-128.43
-144.13
-158.64
-168.57
-170.50
-162.06
-142.79
-114.46
-80.57
-45.28
-12.29
15.90
38.25
54.75
66.04
72.92
76.20
76.64
75.03
72.24
69.08
66.25
64.15
62.85
62.16
61.82
61.68
61.84
62.51
63.73
65.13
65.87
64.93
61.54
55.65
47.92
39.45
31.28
23.88
17.00
9.92
1.85
-7.58
-18.13
-29.07
-39.48
-48.64
-56.36
-63.01
-69.45
-76.84
-86.32
-98.63
-113.60
-129.79
-144.39
-153.76
-154.32
-143.82
-122.17
-91.62
-56.12
-20.11
12.65
39.88
60.84
75.90
85.96
91.92
94.56
94.54
92.53
89.33
85.79
82.61
80.21
78.53
77.20
75.78
74.06
72.21
70.70
69.96
69.99
70.24
69.69
67.28
62.30
54.74
45.27
35.00
25.07
16.26
8.74
2.07
-4.60
-12.18
-21.20
-31.66
-42.92
-54.05
-64.18
-72.80
-80.07
-86.75
-94.01
-103.17
-115.24
-130.38
-147.39
-163.56
-175.00
-177.78
-169.14
-148.63
-118.33
-82.20
-44.79
-9.96
19.91
43.91
62.19
75.34
84.03
88.91
90.71
90.24
88.42
86.06
83.80
82.01
80.77
79.93
79.26
78.51
77.61
76.62
75.69
74.93
74.31
73.55
72.23
69.81
65.81
59.96
52.28
43.21
33.53
24.09
15.61
8.31
1.92
-4.33
-11.25
-19.34
-28.60
-38.48
-48.17
-56.96
-64.56
-71.16
-77.39
-84.16
-92.47
-103.20
-116.79
-132.85
-149.75
-164.51
-173.25
-172.29
-159.35
-134.61
-100.83
-62.57
-24.78
8.66
35.62
55.83
70.15
79.89
86.15
89.70
91.08
90.72
89.08
86.66
83.92
81.19
78.72
76.65
75.06
74.01
73.53
73.55
73.90
74.20
73.94
72.57
69.69
65.16
59.19
52.15
44.48
36.52
28.46
20.42
12.50
4.76
-2.82
-10.48
-18.50
-27.14
-36.38
-45.86
-55.02
-63.37
-70.71
-77.25
-83.62
-90.65
-99.25
-110.21
-123.93
-139.93
-156.46
-170.52
-178.34
-176.56
-163.41
-139.45
-107.53
-71.82
-36.54
-4.86
21.55
42.35
57.94
68.96
76.00
79.61
80.47
79.46
77.58
75.70
74.36
73.66
73.34
72.98
72.39
71.64
71.13
71.24
72.10
73.38
74.30
73.84
71.12
65.77
58.07
48.92
39.51
30.84
23.30
16.54
9.65
1.66
-7.95
-18.95
-30.48
-41.43
-50.95
-58.82
-65.44
-71.74
-78.84
-87.88
-99.71
-114.46
-131.14
-147.34
-159.54
-163.91
-157.61
-139.82
-112.12
-78.08
-42.11
-8.14
21.21
44.84
62.86
75.98
84.94
90.41
92.90
92.99
91.37
88.90
86.35
84.34
83.08
82.42
81.97
81.35
80.40
79.29
78.33
77.76
77.47
76.98
75.51
72.30
66.91
59.42
50.49
41.07
32.14
24.29
17.54
11.32
4.76
-2.99
-12.35
-23.09
-34.46
-45.47
-55.32
-63.69
-70.92
-77.81
-85.50
-95.09
-107.32
-122.17
-138.52
-154.00
-165.30
-168.87
-162.06
-144.03
-116.19
-81.92
-45.50
-10.96
18.96
43.11
61.63
75.33
85.09
91.53
95.07
96.16
95.41
93.63
91.63
89.92
88.68
87.72
86.74
85.55
84.20
82.95
82.05
81.62
81.44
81.03
79.70
76.73
71.64
64.34
55.16
44.86
34.37
24.53
15.84
8.20
1.07
-6.31
-14.60
-23.99
-34.11
-44.23
-53.58
-61.70
-68.75
-75.40
-82.72
-91.84
-103.60
-118.28
-135.22
-152.70
-167.83
-177.10
-177.18
-165.98
-143.54
-112.13
-75.72
-38.82
-5.28
22.57
43.97
59.40
69.86
76.40
79.86
80.92
80.24
78.52
76.43
74.50
72.93
71.66
70.40
68.99
67.49
66.21
65.54
65.67
66.29
66.65
65.72
62.68
57.17
49.58
40.78
31.82
23.46
15.90
8.75
1.28
-7.12
-16.57
-26.63
-36.46
-45.19
-52.37
-58.18
-63.40
-69.15
-76.54
-86.38
-98.79
-112.98
-127.00
-137.95
-142.59
-138.19
-123.58
-99.63
-69.11
-35.83
-3.57
24.87
48.03
65.53
77.68
84.98
88.03
87.51
84.30
79.47
74.15
69.32
65.64
63.34
62.25
61.97
62.11
62.45
62.91
63.46
63.90
63.65
61.95
58.14
52.03
44.04
35.08
26.13
17.73
9.81
1.83
-6.88
-16.65
-27.28
-38.12
-48.35
-57.34
-64.98
-71.73
-78.51
-86.50
-96.78
-110.01
-125.88
-142.82
-157.91
-167.44
-167.80
-156.84
-134.65
-103.80
-68.47
-33.24
-1.70
24.23
44.28
59.16
69.86
77.20
81.71
83.94
84.50
84.12
83.42
82.77
82.15
81.33
80.07
78.31
76.32
74.54
73.44
73.15
73.44
73.59
72.70
69.96
64.98
57.93
49.49
40.59
32.02
24.15
16.86
9.60
1.71
-7.22
-17.11
-27.38
-37.18
-45.75
-52.79
-58.65
-64.28
-70.96
-79.93
-91.88
-106.55
-122.42
-136.78
-146.22
-147.50
-138.67
-119.72
-92.82
-61.58
-30.05
-1.51
22.15
40.52
54.17
64.04
70.96
75.43
77.81
78.42
77.75
76.34
74.72
73.16
71.69
70.14
68.29
66.14
63.99
62.29
61.42
61.40
61.76
61.63
60.08
56.44
50.65
43.26
35.22
27.53
20.87
15.29
10.28
5.01
-1.25
-8.75
-17.13
-25.58
-33.23
-39.57
-44.68
-49.22
-54.17
-60.52
-68.92
-79.56
-91.92
-104.61
-115.44
-121.72
-120.93
-111.66
-94.16
-70.53
-44.04
-18.11
4.72
23.26
37.60
48.47
56.61
62.47
66.18
67.80
67.57
65.98
63.65
61.18
59.00
57.24
55.84
54.62
53.44
52.33
51.41
50.77
50.27
49.42
47.48
43.81
38.21
31.09
23.30
15.84
9.33
3.83
-1.16
-6.32
-12.17
-18.81
-25.89
-32.84
-39.10
-44.39
-48.79
-52.70
-56.86
-62.13
-69.40
-79.19
-91.28
-104.42
-116.24
-123.74
-124.16
-115.94
-99.31
-76.37
-50.32
-24.54
-1.54
17.35
31.99
42.87
50.65
55.88
58.90
60.09
59.89
58.85
57.50
56.21
55.10
54.10
53.09
52.01
50.97
50.17
49.77
49.77
49.92
49.84
49.06
47.17
43.94
39.34
33.52
26.88
20.00
13.47
7.74
2.82
-1.76
-6.80
-13.04
-20.76
-29.56
-38.51
-46.53
-52.94
-57.77
-61.78
-66.13
-72.01
-80.23
-90.99
-103.69
-116.89
-128.34
-135.41
-135.64
-127.52
-111.08
-88.03
-61.27
-34.10
-9.34
11.29
27.29
39.06
47.48
53.44
57.65
60.55
62.42
63.46
63.83
63.68
63.10
62.16
60.86
59.27
57.51
55.84
54.54
53.84
53.72
53.87
53.76
52.77
50.42
46.47
40.99
34.33
27.04
19.69
12.80
6.64
1.21
-3.81
-8.89
-14.53
-21.02
-28.30
-36.03
-43.71
-50.88
-57.33
-63.18
-68.87
-75.06
-82.51
-91.87
-103.55
-117.27
-131.85
-145.07
-153.95
-155.49
-147.63
-130.07
-104.55
-74.37
-43.42
-15.04
8.79
27.57
41.85
52.60
60.70
66.74
71.08
74.06
76.08
77.66
79.28
81.33
83.94
87.10
90.67
94.55
98.66
103.00
107.59
112.40
117.29
122.09
126.63
130.83
134.72
138.40
142.01
145.69
149.59
153.98
159.26
165.98
174.70
185.71
198.83
213.17
227.13
238.67
245.77
247.09
242.43
232.78
219.90
205.56
190.83
175.64
159.05
139.93
117.76
93.00
67.13
41.86
18.44
-3.03
-23.80
-46.26
-73.30
-107.20
-148.35
-194.25
-239.21
-275.21
-293.94
-289.51
-260.88
-212.92
-155.43
-100.51
-59.02
-37.62
-37.62
-55.68
-85.93
-122.47
-161.00
-199.37
-237.07
-274.31
-311.12
-346.76
-379.33
-405.88
-422.53
-425.43
-411.95
-381.97
-338.48
-287.26
-235.42
-189.59
-154.31
-131.39
-120.21
-118.61
-123.87
-133.44
-145.35
-158.31
-171.55
-184.51
-196.17
-204.82
-207.93
-202.69
-186.81
-159.43
-121.70
-76.66
-28.69
17.55
58.13
90.51
113.86
128.92
137.48
141.72
143.61
144.47
144.90
144.92
144.27
142.73
140.20
136.79
132.74
128.44
124.29
120.63
117.58
114.97
112.32
108.99
104.26
97.72
89.24
79.04
67.66
55.67
43.59
31.62
19.67
7.45
-5.39
-19.02
-33.23
-47.44
-60.94
-73.07
-83.73
-93.57
-104.04
-117.00
-134.00
-155.37
-179.43
-202.45
-219.35
-225.07
-216.20
-192.06
-155.02
-109.71
-61.64
-15.76
24.54
57.74
83.76
103.33
117.36
126.67
131.98
134.12
134.11
133.06
131.92
131.16
130.68
130.09
128.98
127.33
125.52
124.04
123.15
122.54
121.39
118.64
113.52
105.86
96.19
85.51
74.85
64.79
55.21
45.41
34.48
21.84
7.58
-7.47
-22.08
-35.11
-46.02
-55.12
-63.48
-72.68
-84.30
-99.33
-117.62
-137.37
-155.12
-166.35
-166.77
-153.76
-127.39
-90.63
-48.42
-6.15
31.86
63.22
87.45
105.25
117.71
125.65
129.56
129.85
127.16
122.56
117.38
112.88
109.80
108.23
107.68
107.40
106.81
105.72
104.30
102.75
101.06
98.89
95.65
90.73
83.74
74.63
63.66
51.33
38.30
25.23
12.67
0.96
-9.86
-19.97
-29.73
-39.59
-50.12
-61.88
-75.38
-90.60
-106.54
-120.92
-130.48
-131.91
-123.01
-103.67
-76.03
-43.89
-11.31
18.39
43.40
63.21
78.14
88.67
95.14
97.80
97.02
93.52
88.32
82.59
77.38
73.41
70.95
69.80
69.51
69.46
69.11
68.14
66.45
64.12
61.26
57.76
53.33
47.46
39.74
30.06
18.80
6.77
-5.00
-15.66
-24.78
-32.49
-39.40
-46.43
-54.61
-64.85
-77.67
-92.76
-108.72
-122.97
-132.20
-133.33
-124.52
-105.89
-79.64
-49.36
-18.96
8.41
30.92
48.20
60.89
70.06
76.67
81.31
84.19
85.31
84.72
82.70
79.76
76.55
73.56
71.00
68.80
66.68
64.38
61.81
58.92
55.75
52.23
48.19
43.44
37.84
31.34
24.05
16.07
7.50
-1.54
-10.84
-20.10
-28.88
-36.86
-43.91
-50.27
-56.59
-63.82
-72.93
-84.51
-98.25
-112.53
-124.55
-130.87
-128.55
-116.20
-94.71
-67.00
-37.08
-8.79
15.25
33.95
47.45
56.58
62.32
65.58
67.16
67.78
67.98
68.01
67.79
67.04
65.53
63.22
60.38
57.47
54.96
53.16
52.03
51.23
50.18
48.31
45.21
40.86
35.58
29.82
23.96
18.10
12.04
5.43
-2.02
-10.34
-19.28
-28.39
-37.19
-45.30
-52.56
-59.12
-65.45
-72.37
-80.85
-91.62
-104.58
-118.35
-130.24
-136.87
-135.22
-123.81
-103.33
-76.55
-47.35
-19.50
4.39
23.30
37.53
48.09
55.95
61.72
65.57
67.51
67.63
66.23
63.86
61.10
58.45
56.14
54.22
52.60
51.21
49.99
48.99
48.13
47.28
46.13
44.31
41.49
37.43
32.06
25.47
17.93
9.79
1.43
-6.78
-14.60
-21.92
-28.76
-35.27
-41.69
-48.35
-55.69
-64.15
-73.88
-84.49
-94.70
-102.40
-105.09
-100.68
-88.29
-68.74
-44.38
-18.36
6.27
27.45
44.21
56.56
64.94
69.83
71.58
70.52
67.17
62.29
56.85
51.81
47.91
45.52
44.56
44.62
45.09
45.34
44.92
43.63
41.51
38.66
35.14
30.92
25.83
19.75
12.71
4.94
-3.25
-11.48
-19.51
-27.23
-34.67
-41.93
-49.14
-56.50
-64.31
-73.07
-83.25
-94.97
-107.52
-119.11
-127.03
-128.40
-121.21
-105.12
-81.79
-54.36
-26.40
-0.93
20.36
37.02
49.47
58.43
64.52
68.18
69.74
69.58
68.15
65.96
63.48
61.10
59.05
57.44
56.24
55.34
54.59
53.81
52.76
51.19
48.80
45.34
40.73
35.09
28.73
21.99
15.06
7.90
0.23
-8.24
-17.64
-27.66
-37.71
-47.06
-55.22
-62.13
-68.24
-74.46
-81.81
-91.07
-102.37
-114.73
-126.04
-133.38
-133.79
-125.31
-107.77
-83.00
-54.34
-25.55
0.22
21.19
36.96
48.10
55.59
60.38
63.17
64.48
64.72
64.22
63.26
62.00
60.47
58.61
56.37
53.78
51.04
48.47
46.37
44.87
43.75
42.53
40.59
37.47
33.07
27.64
21.64
15.46
9.20
2.68
-4.44
-12.39
-21.11
-30.17
-38.97
-46.92
-53.69
-59.37
-64.44
-69.73
-76.30
-85.08
-96.46
-109.75
-123.00
-133.13
-136.82
-131.60
-116.82
-93.96
-66.21
-37.38
-10.76
11.59
28.99
41.77
50.71
56.65
60.25
62.05
62.52
62.06
61.01
59.59
57.86
55.77
53.39
50.90
48.69
47.15
46.50
46.53
46.61
45.94
43.79
39.86
34.30
27.60
20.37
13.10
6.01
-0.86
-7.68
-14.58
-21.65
-28.79
-35.80
-42.43
-48.56
-54.33
-60.17
-66.74
-74.77
-84.84
-96.98
-110.37
-123.19
-132.72
-135.97
-130.66
-116.10
-93.59
-66.11
-37.33
-10.52
12.26
30.30
43.83
53.31
59.08
61.25
60.02
55.95
50.14
43.96
38.75
35.45
34.37
35.19
37.13
39.24
40.68
40.95
39.97
37.97
35.35
32.40
29.18
25.49
20.96
15.24
8.16
-0.10
-9.07
-18.13
-26.68
-34.45
-41.51
-48.34
-55.67
-64.28
-74.68
-86.84
-99.89
-112.07
-120.89
-123.67
-118.35
-104.22
-82.30
-55.13
-26.12
1.51
25.40
44.42
58.46
67.93
73.38
75.24
73.94
70.03
64.35
58.02
52.19
47.75
45.05
43.83
43.37
42.88
41.92
40.49
38.92
37.48
36.03
33.88
30.15
24.06
15.44
4.82
-6.77
-18.20
-28.65
-37.86
-46.16
-54.35
-63.47
-74.51
-88.05
-103.91
-120.81
-136.36
-147.45
-150.97
-144.75
-128.36
-103.32
-72.84
-40.89
-11.06
14.23
34.14
49.07
60.11
68.31
74.35
78.48
80.80
81.48
80.94
79.79
78.57
77.62
76.90
76.15
74.99
73.20
70.83
68.16
65.61
63.36
61.16
58.26
53.65
46.45
36.39
23.99
10.38
-3.10
-15.43
-26.25
-35.88
-45.06
-54.73
-65.75
-78.83
-94.23
-111.41
-128.72
-143.24
-151.40
-149.94
-137.09
-113.44
-81.79
-46.42
-11.71
18.98
43.96
63.10
77.28
87.68
95.24
100.49
103.58
104.64
103.90
101.82
98.98
95.95
93.06
90.41
87.91
85.47
83.07
80.75
78.48
76.12
73.36
69.89
65.42
59.82
52.98
44.83
35.34
24.60
12.94
0.90
-10.88
-21.82
-31.66
-40.49
-48.80
-57.39
-67.22
-79.24
-93.95
-110.92
-128.32
-142.99
-151.07
-149.13
-135.50
-111.01
-78.84
-43.52
-9.41
20.42
44.71
63.69
78.24
89.26
97.28
102.56
105.39
106.20
105.55
103.99
101.84
99.24
96.24
93.05
89.99
87.52
85.90
85.04
84.41
83.12
80.30
75.41
68.54
60.33
51.70
43.46
35.96
28.93
21.74
13.68
4.31
-6.35
-17.86
-29.52
-40.64
-50.73
-59.72
-68.04
-76.68
-86.90
-99.69
-115.15
-131.80
-146.61
-155.58
-155.03
-142.89
-119.62
-88.09
-52.69
-17.97
12.58
37.12
55.36
68.05
76.29
81.18
83.64
84.47
84.37
83.87
83.23
82.42
81.20
79.31
76.68
73.57
70.45
67.87
66.19
65.34
64.86
63.97
61.87
57.94
52.04
44.48
35.91
27.08
18.45
10.08
1.60
-7.44
-17.35
-27.91
-38.49
-48.31
-56.85
-64.12
-70.78
-77.93
-86.80
-98.24
-112.31
-127.90
-142.69
-153.47
-156.93
-150.58
-133.73
-107.75
-75.78
-41.89
-9.86
17.58
39.10
54.59
64.67
70.25
72.20
71.29
68.23
63.73
58.54
53.45
49.12
46.00
44.25
43.73
44.07
44.88
45.74
46.32
46.24
45.10
42.48
38.13
32.09
24.72
16.67
8.51
0.60
-7.11
-14.88
-23.04
-31.67
-40.56
-49.29
-57.54
-65.27
-72.89
-81.17
-91.05
-103.29
-117.99
-134.18
-149.60
-161.00
-164.78
-158.17
-140.24
-112.35
-77.92
-41.34
-6.79
22.84
46.22
63.34
74.88
81.72
84.65
84.47
82.06
78.38
74.32
70.51
67.18
64.24
61.56
59.11
57.10
55.81
55.41
55.67
55.98
55.44
53.19
48.72
42.11
33.97
25.21
16.61
8.50
0.60
-7.82
-17.55
-28.99
-41.89
-55.36
-68.20
-79.39
-88.48
-95.86
-102.76
-110.94
-122.04
-136.80
-154.26
-171.51
-184.13
-187.40
-177.97
-155.12
-121.14
-80.52
-38.39
1.12
35.75
65.08
89.76
110.68
128.40
143.34
155.95
167.13
178.22
190.94
207.19
228.99
258.29
296.41
343.15
396.03
450.14
499.00
536.38
558.19
563.58
554.76
535.71
510.37
481.55
450.69
418.41
385.31
352.24
320.12
289.35
259.62
230.02
199.66
168.29
136.56
105.69
77.08
51.54
29.10
9.02
-9.78
-28.21
-46.64
-64.80
-82.03
-97.62
-111.18
-122.82
-133.04
-142.47
-151.60
-160.62
-169.40
-177.68
-185.18
-191.92
-198.19
-204.58
-211.77
-220.28
-230.11
-240.58
-250.38
-258.02
-262.28
-262.72
-259.80
-254.65
-248.62
-242.82
-237.95
-234.23
-231.66
-230.23
-229.96
-230.81
-232.51
-234.47
-235.84
-235.75
-233.67
-229.67
-224.51
-219.43
-215.61
-213.83
-214.12
-215.95
-218.55
-221.35
-224.08
-226.81
-229.77
-233.41
-238.49
-246.08
-257.06
-271.24
-286.45
-298.45
-301.79
-291.52
-264.81
-221.76
-165.07
-99.17
-29.24
39.35
101.26
151.69
187.07
206.13
210.38
203.73
191.16
177.22
164.90
155.45
148.89
144.73
142.50
141.83
142.38
143.76
145.52
147.26
148.57
148.87
147.56
143.92
137.40
127.76
115.25
100.60
84.78
68.64
52.67
36.96
21.40
6.14
-8.04
-19.80
-27.68
-30.78
-29.21
-24.20
-17.72
-11.88
-8.52
-8.78
-12.92
-20.03
-27.72
-32.41
-30.04
-17.51
5.93
37.95
73.62
106.79
131.94
145.53
146.54
136.05
116.41
90.35
60.58
29.68
-0.03
-26.50
-48.25
-64.63
-76.01
-83.46
-88.40
-92.05
-94.89
-96.66
-96.65
-94.23
-89.41
-83.05
-76.57
-71.44
-68.56
-68.01
-69.14
-71.05
-73.01
-74.73
-76.29
-77.86
-79.53
-81.32
-83.33
-85.96
-89.91
-95.82
-103.84
-113.36
-123.04
-131.36
-137.14
-140.00
-140.48
-139.88
-139.88
-142.07
-147.57
-156.56
-168.08
-179.90
-188.68
-190.60
-182.47
-162.90
-133.01
-96.54
-58.69
-24.57
2.25
20.52
31.04
35.59
35.89
33.05
27.67
20.42
12.48
5.47
0.93
-0.20
1.99
6.68
12.81
19.72
27.65
37.54
50.54
67.26
87.21
108.75
129.60
147.58
161.18
169.76
173.08
170.89
162.74
148.39
128.26
103.79
77.14
50.35
24.72
0.50
-22.79
-45.90
-69.40
-93.72
-118.95
-144.96
-171.14
-196.37
-219.48
-239.96
-258.33
-275.80
-293.01
-308.89
-320.26
-322.90
-313.51
-291.61
-259.92
-223.27
-186.40
-152.04
-120.37
-89.68
-57.87
-23.62
13.09
51.18
88.79
123.56
152.93
174.44
186.50
189.16
184.51
176.37
169.03
165.75
167.61
173.43
180.56
186.35
189.18
188.91
186.48
183.05
179.24
174.89
169.31
161.72
151.79
139.66
125.87
111.04
95.64
79.93
63.94
47.55
30.61
13.13
-4.76
-22.76
-40.45
-57.47
-73.62
-88.96
-103.88
-119.00
-135.15
-153.31
-174.27
-198.25
-224.30
-249.87
-271.08
-283.60
-283.99
-271.00
-246.05
-212.57
-174.60
-135.24
-95.75
-55.70
-14.16
28.89
71.75
111.15
143.31
165.41
176.60
178.14
172.90
164.36
155.70
149.30
146.40
147.19
151.01
156.57
162.38
167.18
170.10
170.76
169.02
164.70
157.51
147.32
134.47
119.92
105.04
91.04
78.44
66.87
55.23
42.32
27.45
10.73
-6.98
-24.41
-40.53
-54.92
-67.94
-80.54
-93.85
-108.81
-126.11
-146.07
-168.55
-192.65
-216.23
-235.99
-247.99
-248.87
-237.08
-213.52
-181.15
-143.78
-104.60
-65.18
-25.50
15.10
56.69
97.87
135.80
167.12
189.25
201.39
204.74
201.94
195.94
189.10
182.71
177.40
173.69
172.28
173.91
178.65
185.45
192.18
196.35
196.09
190.85
181.35
169.13
155.73
142.12
128.66
115.27
101.74
87.94
73.77
59.19
44.14
28.61
12.67
-3.44
-19.52
-35.42
-51.01
-66.23
-81.07
-95.64
-110.42
-126.33
-144.59
-165.89
-189.65
-213.24
-232.24
-241.62
-237.41
-218.11
-185.05
-141.67
-92.16
-40.42
10.39
57.59
98.75
131.76
155.42
169.86
176.60
177.85
175.73
171.66
166.38
160.42
154.47
149.42
146.00
144.44
144.31
144.85
145.32
145.28
144.60
143.24
140.99
137.46
132.18
124.80
115.31
104.02
91.53
78.52
65.60
53.05
40.78
28.36
15.22
0.98
-14.24
-29.86
-44.96
-58.69
-70.68
-81.21
-91.17
-101.93
-115.02
-131.69
-152.41
-176.19
-200.22
-219.98
-230.20
-226.35
-206.18
-170.74
-124.17
-72.49
-21.84
23.07
59.71
87.63
107.69
121.16
129.12
132.40
131.70
127.98
122.49
116.64
111.55
107.83
105.39
103.77
102.47
101.33
100.53
100.47
101.31
102.76
103.98
103.76
100.99
95.04
86.04
74.85
62.79
51.15
40.73
31.47
22.67
13.22
2.16
-10.82
-25.29
-40.24
-54.48
-67.13
-77.92
-87.29
-96.29
-106.33
-118.85
-134.87
-154.40
-175.92
-196.17
-210.59
-214.39
-204.11
-178.90
-141.13
-95.74
-48.71
-5.41
30.75
58.57
78.53
91.78
99.42
102.24
100.94
96.40
89.86
82.67
76.09
70.89
67.41
65.58
65.18
65.86
67.22
68.76
69.96
70.28
69.33
66.86
62.79
57.12
49.91
41.17
30.94
19.23
6.19
-7.82
-22.13
-35.95
-48.62
-59.84
-69.94
-79.80
-90.70
-103.84
-119.94
-138.70
-158.46
-176.20
-187.89
-189.58
-178.59
-154.58
-119.91
-79.04
-37.18
1.17
33.21
58.04
76.01
87.92
94.50
96.25
93.70
87.73
79.73
71.28
63.84
58.31
54.86
53.02
52.04
51.27
50.44
49.67
49.18
48.97
48.55
46.88
42.81
35.50
24.79
11.44
-3.23
-17.74
-30.96
-42.36
-52.12
-61.03
-70.20
-80.94
-94.37
-111.11
-130.71
-151.31
-169.63
-181.56
-183.13
-171.79
-147.33
-112.04
-70.18
-26.82
13.48
47.46
73.56
91.62
102.37
106.87
106.34
102.03
95.30
87.59
80.22
74.08
69.53
66.30
63.81
61.51
59.15
56.88
55.04
53.82
52.96
51.64
48.70
43.09
34.30
22.64
9.12
-4.82
-17.96
-29.59
-39.80
-49.35
-59.43
-71.29
-85.87
-103.33
-122.64
-141.39
-156.00
-162.57
-157.97
-141.02
-113.01
-77.42
-38.92
-1.97
30.26
56.28
76.01
90.05
99.13
103.69
104.15
101.15
95.81
89.61
84.02
80.01
77.72
76.53
75.50
73.87
71.44
68.65
66.12
64.21
62.67
60.50
56.43
49.40
39.08
26.06
11.67
-2.53
-15.31
-26.15
-35.44
-44.21
-53.83
-65.53
-80.04
-97.24
-115.81
-133.26
-146.18
-151.04
-145.24
-128.07
-101.15
-68.03
-33.16
-0.58
27.05
48.81
65.09
77.00
85.62
91.72
95.74
97.96
98.73
98.45
97.61
96.55
95.40
94.04
92.25
89.92
87.24
84.70
82.82
81.85
81.43
80.61
78.19
73.22
65.46
55.54
44.71
34.32
25.27
17.66
10.87
3.88
-4.25
-13.89
-24.77
-36.04
-46.70
-56.00
-63.81
-70.68
-77.69
-86.18
-97.31
-111.60
-128.43
-145.81
-160.47
-168.53
-166.63
-153.23
-129.22
-97.83
-63.66
-31.16
-3.42
18.38
34.77
47.19
57.10
65.44
72.52
78.32
82.72
85.75
87.58
88.42
88.41
87.58
85.93
83.58
80.81
78.03
75.68
73.94
72.75
71.72
70.33
68.13
64.85
60.44
55.07
48.93
42.26
35.27
28.16
21.09
14.22
7.64
1.37
-4.71
-10.83
-17.30
-24.37
-32.10
-40.27
-48.47
-56.26
-63.41
-70.06
-76.78
-84.36
-93.64
-105.11
-118.58
-132.89
-145.81
-154.32
-155.41
-147.04
-129.02
-103.33
-73.56
-43.84
-17.52
3.60
19.45
31.05
39.80
46.85
52.86
58.03
62.44
66.03
68.79
70.68
71.67
71.73
70.94
69.45
67.59
65.76
64.40
63.87
64.29
65.43
66.71
67.40
66.81
64.61
60.90
56.20
51.23
46.61
42.68
39.31
36.11
32.57
28.42
23.71
18.80
14.18
10.24
7.03
4.31
1.63
-1.42
-5.08
-9.37
-14.10
-19.04
-23.92
-28.58
-33.02
-37.39
-42.03
-47.31
-53.42
-60.29
-67.54
-74.63
-81.18
-87.10
-92.72
-98.69
-105.74
-114.51
-125.34
-138.04
-151.68
-164.36
-173.40
-175.79
-169.22
-152.85
-127.97
-97.72
-66.18
-37.15
-13.12
5.09
18.08
27.11
33.56
38.45
42.47
46.05
49.50
52.93
56.25
59.16
61.27
62.34
62.45
62.01
61.60
61.67
62.37
63.46
64.42
64.68
63.90
62.02
59.22
55.85
52.18
48.35
44.40
40.27
35.96
31.52
27.05
22.65
18.33
14.00
9.48
4.62
-0.63
-6.15
-11.67
-16.91
-21.68
-26.03
-30.28
-34.88
-40.27
-46.76
-54.39
-62.94
-71.94
-80.83
-89.17
-96.73
-103.68
-110.61
-118.46
-128.20
-140.48
-155.02
-170.30
-183.59
-191.42
-190.65
-179.50
-158.31
-129.48
-96.80
-64.24
-34.92
-10.48
8.83
23.70
35.13
44.01
50.99
56.44
60.61
63.72
65.97
67.54
68.62
69.35
69.87
70.33
70.91
71.84
73.33
75.44
77.98
80.46
82.21
82.52
80.98
77.50
72.47
66.49
60.26
54.39
49.18
44.63
40.39
35.99
30.96
25.07
18.38
11.28
4.29
-2.17
-7.89
-12.97
-17.79
-22.90
-28.86
-36.10
-44.69
-54.30
-64.25
-73.73
-82.14
-89.40
-96.08
-103.21
-112.12
-123.82
-138.61
-155.63
-172.68
-186.46
-193.18
-189.72
-174.60
-148.62
-114.73
-77.16
-40.19
-7.13
20.23
41.41
56.82
67.23
73.52
76.58
77.38
76.93
76.16
75.74
76.06
77.14
78.81
80.82
82.95
85.11
87.25
89.38
91.35
92.88
93.57
93.08
91.20
87.96
83.55
78.13
71.80
64.51
56.28
47.22
37.67
28.17
19.24
11.25
4.23
-2.19
-8.63
-15.73
-23.89
-33.13
-43.04
-52.99
-62.39
-70.97
-78.88
-86.76
-95.57
-106.40
-120.01
-136.30
-153.84
-169.74
-180.07
-180.97
-169.97
-146.91
-114.16
-75.86
-36.68
-0.55
30.06
54.20
71.99
84.11
91.42
94.77
95.06
93.23
90.28
87.16
84.64
83.16
82.71
82.95
83.35
83.50
83.34
83.15
83.29
83.90
84.57
84.47
82.56
78.13
71.08
62.03
52.06
42.24
33.25
25.05
17.06
8.41
-1.62
-13.19
-25.85
-38.64
-50.57
-60.93
-69.65
-77.25
-84.78
-93.52
-104.71
-119.10
-136.45
-155.05
-171.69
-182.20
-182.57
-170.36
-145.64
-111.17
-71.55
-31.77
4.17
33.99
57.14
74.23
86.27
94.24
98.90
100.91
100.96
99.68
97.68
95.44
93.29
91.47
90.15
89.45
89.39
89.88
90.71
91.58
92.21
92.25
91.34
89.06
85.07
79.13
71.29
61.83
51.30
40.39
29.73
19.81
10.81
2.57
-5.41
-13.79
-23.12
-33.62
-45.03
-56.69
-67.80
-77.82
-86.65
-94.81
-103.30
-113.37
-126.23
-142.55
-161.99
-182.70
-201.29
-213.36
-214.62
-202.27
-176.02
-138.31
-93.72
-47.58
-4.67
31.80
60.40
81.28
95.56
104.85
110.81
114.90
118.22
121.41
124.58
127.52
129.82
131.19
131.51
131.01
130.13
129.38
129.12
129.42
129.93
130.00
128.81
125.69
120.35
112.99
104.25
94.90
85.55
76.38
67.16
57.47
47.02
35.90
24.62
13.87
4.19
-4.34
-12.20
-20.25
-29.36
-40.09
-52.44
-65.78
-79.16
-91.59
-102.48
-111.89
-120.64
-130.15
-142.03
-157.49
-176.44
-197.08
-215.75
-227.60
-227.90
-213.62
-184.53
-143.54
-95.90
-47.61
-3.81
32.32
59.82
79.41
92.63
101.16
106.43
109.51
111.30
112.51
113.65
114.93
116.19
117.05
117.04
115.88
113.70
111.02
108.66
107.32
107.28
108.09
108.70
107.85
104.60
98.71
90.74
81.72
72.64
64.03
55.74
47.22
37.91
27.61
16.68
5.87
-4.01
-12.44
-19.49
-25.86
-32.61
-40.78
-50.84
-62.54
-74.93
-86.81
-97.26
-106.04
-113.78
-121.75
-131.54
-144.60
-161.55
-181.65
-202.34
-219.45
-227.99
-223.60
-204.14
-170.54
-126.76
-78.57
-31.76
9.25
42.20
66.79
83.98
95.28
102.20
106.05
107.92
108.66
108.86
108.81
108.53
107.78
106.27
103.90
100.95
98.05
96.01
95.49
96.63
98.86
101.00
101.68
99.79
94.86
87.22
77.80
67.78
58.16
49.52
41.86
34.77
27.67
20.12
12.02
3.65
-4.59
-12.39
-19.78
-27.16
-35.13
-44.20
-54.56
-65.93
-77.68
-89.00
-99.27
-108.28
-116.48
-124.93
-135.07
-148.28
-165.21
-185.16
-205.67
-222.68
-231.44
-227.76
-209.47
-177.28
-134.72
-87.15
-40.16
1.78
36.17
62.39
81.11
93.55
101.04
104.77
105.86
105.30
103.89
102.14
100.27
98.37
96.52
94.97
94.06
94.10
95.19
97.09
99.25
100.90
101.19
99.45
95.39
89.21
81.54
73.17
64.75
56.56
48.46
40.09
31.21
21.90
12.54
3.63
-4.52
-12.01
-19.36
-27.20
-36.07
-46.08
-56.85
-67.67
-77.81
-86.83
-94.87
-102.62
-111.25
-122.10
-136.22
-153.87
-173.91
-193.54
-208.55
-214.24
-206.87
-185.01
-150.25
-106.88
-60.51
-16.47
21.54
51.87
74.55
90.42
100.44
105.35
105.83
102.75
97.31
90.91
84.93
80.37
77.69
76.83
77.28
78.48
79.93
81.40
82.89
84.37
85.55
85.72
83.95
79.43
71.88
61.82
50.39
38.97
28.62
19.70
11.81
3.99
-4.80
-15.22
-27.33
-40.46
-53.54
-65.47
-75.56
-83.80
-90.90
-98.10
-106.84
-118.38
-133.40
-151.50
-170.92
-188.37
-199.61
-200.39
-187.89
-161.75
-124.48
-80.71
-35.90
5.22
39.57
65.94
84.54
96.29
102.34
103.80
101.86
97.74
92.70
87.87
83.94
81.21
79.50
78.43
77.72
77.30
77.30
77.93
79.09
80.29
80.64
79.11
74.92
67.91
58.55
47.87
36.97
26.61
16.96
7.56
-2.37
-13.46
-25.80
-38.76
-51.20
-62.03
-70.68
-77.51
-83.78
-91.24
-101.64
-115.98
-133.96
-153.59
-171.29
-182.59
-183.22
-170.54
-144.46
-107.73
-65.11
-22.01
16.91
48.78
72.68
89.13
99.37
104.73
106.40
105.40
102.69
99.17
95.70
92.87
91.00
90.00
89.55
89.25
88.88
88.48
88.30
88.52
88.95
88.89
87.28
83.17
76.15
66.60
55.57
44.39
34.13
25.16
17.13
9.13
0.11
-10.62
-23.10
-36.62
-49.95
-61.85
-71.61
-79.44
-86.49
-94.56
-105.43
-120.25
-138.87
-159.45
-178.45
-191.32
-193.61
-182.45
-157.61
-121.85
-80.13
-38.09
-0.45
30.06
52.84
68.90
79.88
87.40
92.62
96.33
99.03
101.06
102.62
103.75
104.38
104.34
103.42
101.52
98.75
95.50
92.36
89.97
88.65
88.25
88.08
87.10
84.32
79.10
71.34
61.50
50.41
39.05
28.25
18.58
10.15
2.63
-4.65
-12.47
-21.41
-31.63
-42.85
-54.42
-65.56
-75.67
-84.58
-92.65
-100.78
-110.28
-122.41
-137.80
-155.78
-173.96
-188.51
-195.02
-189.86
-171.59
-141.55
-103.56
-62.80
-24.24
8.64
34.37
53.26
66.65
76.05
82.67
87.22
90.26
92.23
93.65
94.97
96.36
97.63
98.30
97.87
96.17
93.42
90.28
87.53
85.69
84.76
84.19
82.97
80.06
74.74
66.95
57.30
46.86
36.72
27.54
19.35
11.56
3.31
-6.08
-16.78
-28.34
-39.93
-50.60
-59.73
-67.23
-73.63
-79.96
-87.50
-97.47
-110.60
-126.67
-144.19
-160.31
-171.28
-173.39
-164.18
-143.40
-113.31
-78.04
-42.40
-10.34
15.87
35.85
50.58
61.50
69.80
76.17
80.88
84.09
86.02
86.97
87.26
87.11
86.65
85.94
85.07
84.15
83.36
82.90
82.82
83.02
83.04
82.23
79.86
75.44
68.90
60.66
51.52
42.31
33.72
26.06
19.28
13.06
6.87
0.10
-7.82
-17.18
-27.87
-39.30
-50.55
-60.72
-69.26
-76.21
-82.24
-88.49
-96.29
-106.81
-120.57
-137.01
-154.11
-168.50
-176.13
-173.47
-158.74
-132.72
-98.60
-61.05
-24.89
6.24
30.56
48.11
60.15
68.38
74.30
78.81
82.26
84.68
86.02
86.42
86.06
85.28
84.29
83.30
82.46
81.92
81.81
82.15
82.71
83.06
82.65
80.98
77.74
72.90
66.64
59.32
51.39
43.28
35.36
27.87
20.92
14.48
8.39
2.44
-3.75
-10.61
-18.44
-27.36
-37.13
-47.17
-56.72
-65.16
-72.34
-78.62
-84.90
-92.31
-101.98
-114.53
-129.63
-145.65
-159.63
-167.81
-166.69
-154.21
-130.63
-98.63
-62.54
-27.01
4.23
29.19
47.52
59.98
67.74
71.79
72.89
71.66
68.86
65.36
62.16
60.06
59.40
60.05
61.44
62.88
63.83
64.19
64.16
64.17
64.42
64.78
64.65
63.23
59.78
54.01
46.20
37.18
28.02
19.65
12.53
6.47
0.77
-5.46
-12.87
-21.60
-31.19
-40.76
-49.44
-56.66
-62.47
-67.53
-72.94
-79.96
-89.62
-102.32
-117.47
-133.27
-146.89
-154.94
-154.34
-143.29
-121.94
-92.46
-58.54
-24.34
6.56
31.86
50.72
63.47
71.05
74.51
74.80
72.72
69.14
65.05
61.48
59.30
58.87
59.96
61.81
63.52
64.41
64.34
63.64
62.85
62.26
61.68
60.39
57.51
52.40
45.00
35.90
26.16
16.86
8.69
1.67
-4.74
-11.40
-19.04
-27.95
-37.85
-48.05
-57.69
-66.15
-73.25
-79.37
-85.38
-92.39
-101.46
-113.27
-127.61
-143.13
-157.23
-166.50
-167.52
-157.98
-137.50
-107.97
-73.03
-37.09
-4.06
23.51
44.71
59.94
70.31
77.02
81.00
82.93
83.32
82.65
81.48
80.31
79.50
79.21
79.33
79.65
79.96
80.13
80.11
79.88
79.32
78.21
76.22
73.09
68.65
62.92
56.06
48.36
40.15
31.74
23.46
15.54
8.14
1.18
-5.58
-12.55
-20.16
-28.66
-38.01
-47.88
-57.77
-67.19
-75.89
-83.93
-91.72
-99.98
-109.62
-121.52
-136.11
-152.77
-169.49
-182.86
-188.83
-183.96
-166.74
-138.26
-102.09
-63.13
-26.16
5.42
30.15
48.30
61.16
70.23
76.79
81.64
85.28
87.99
89.97
91.37
92.25
92.61
92.42
91.73
90.68
89.55
88.65
88.19
88.15
88.23
87.89
86.57
83.77
79.28
73.16
65.73
57.41
48.67
39.86
31.28
23.12
15.42
8.13
0.98
-6.38
-14.40
-23.31
-33.12
-43.45
-53.70
-63.31
-71.91
-79.62
-86.96
-94.82
-104.27
-116.23
-131.01
-147.91
-164.83
-178.37
-184.62
-180.24
-163.70
-135.96
-100.31
-61.39
-23.84
8.85
34.98
54.44
68.17
77.49
83.57
87.33
89.44
90.46
90.88
91.15
91.52
91.99
92.30
92.12
91.25
89.88
88.53
87.83
88.11
89.16
90.19
90.09
87.97
83.50
77.08
69.61
62.09
55.17
48.94
42.95
36.53
29.15
20.78
11.88
3.23
-4.44
-10.86
-16.30
-21.57
-27.60
-35.02
-43.93
-53.85
-63.96
-73.48
-81.98
-89.56
-96.80
-104.68
-114.41
-127.04
-142.95
-161.28
-179.51
-193.62
-199.10
-192.38
-172.26
-140.53
-101.46
-60.46
-22.32
9.88
35.09
53.74
66.86
75.45
80.29
82.05
81.55
79.77
77.65
75.99
75.17
75.21
75.82
76.67
77.46
78.10
78.69
79.34
80.10
80.72
80.70
79.38
76.14
70.69
63.18
54.25
44.82
35.83
27.82
20.84
14.36
7.54
-0.41
-9.88
-20.63
-31.88
-42.54
-51.73
-59.08
-64.97
-70.44
-76.87
-85.65
-97.74
-113.18
-130.76
-147.91
-161.02
-166.25
-160.68
-143.34
-115.59
-80.90
-43.71
-8.27
22.42
46.84
64.82
76.86
83.73
86.24
85.23
81.74
76.98
72.24
68.62
66.83
66.95
68.56
70.86
73.05
74.57
75.28
75.39
75.18
74.74
73.82
71.84
68.20
62.50
54.76
45.49
35.55
25.84
17.04
9.37
2.57
-4.03
-11.18
-19.45
-28.97
-39.42
-50.17
-60.49
-69.84
-78.05
-85.35
-92.49
-100.56
-110.81
-124.14
-140.55
-158.49
-174.80
-185.28
-185.83
-173.92
-149.53
-115.30
-75.69
-35.68
0.66
30.83
54.06
70.77
81.99
88.87
92.44
93.66
93.39
92.43
91.45
90.85
90.78
91.08
91.44
91.52
91.10
90.22
89.09
88.00
87.10
86.26
85.04
82.80
78.92
73.04
65.24
55.96
45.94
35.97
26.72
18.51
11.28
4.64
-2.02
-9.30
-17.57
-26.82
-36.68
-46.54
-55.82
-64.25
-71.99
-79.59
-87.97
-98.11
-110.79
-126.14
-143.18
-159.57
-171.78
-175.95
-169.05
-150.10
-120.71
-84.66
-46.77
-11.44
18.46
41.85
59.19
71.64
80.48
86.68
90.90
93.55
94.99
95.53
95.47
95.10
94.59
94.08
93.62
93.26
93.02
92.94
92.95
92.89
92.45
91.28
89.08
85.66
81.03
75.29
68.58
61.08
52.96
44.48
36.00
27.87
20.40
13.65
7.45
1.39
-5.00
-12.12
-20.07
-28.67
-37.51
-46.09
-54.06
-61.42
-68.56
-76.24
-85.45
-96.98
-111.04
-126.74
-141.84
-153.01
-156.60
-149.83
-131.88
-104.37
-70.98
-36.33
-4.58
21.63
41.49
55.65
65.43
72.15
76.70
79.56
81.02
81.41
81.15
80.75
80.59
80.77
81.12
81.28
80.98
80.17
79.04
77.88
76.86
75.90
74.66
72.76
69.90
66.03
61.25
55.72
49.61
43.04
36.19
29.30
22.60
16.21
10.04
3.77
-2.95
-10.37
-18.40
-26.72
-34.84
-42.34
-49.04
-55.04
-60.70
-66.60
-73.52
-82.28
-93.37
-106.60
-120.56
-132.68
-139.70
-138.68
-128.04
-108.28
-81.86
-52.42
-23.76
1.28
21.16
35.68
45.52
51.69
55.13
56.59
56.56
55.48
53.89
52.32
51.35
51.29
52.10
53.42
54.72
55.58
55.88
55.77
55.52
55.29
54.97
54.17
52.40
49.26
44.59
38.58
31.70
24.60
17.91
12.06
7.09
2.66
-1.88
-7.17
-13.60
-21.11
-29.17
-37.00
-43.95
-49.70
-54.43
-58.72
-63.42
-69.37
-77.24
-87.30
-99.15
-111.51
-122.21
-128.54
-127.93
-118.86
-101.47
-77.65
-50.58
-23.75
-0.02
18.95
32.76
41.88
47.14
49.36
49.20
47.20
43.97
40.23
36.79
34.25
32.93
32.71
33.17
33.85
34.45
34.95
35.47
36.07
36.58
36.50
35.20
32.16
27.19
20.61
13.12
5.61
-1.18
-6.91
-11.76
-16.38
-21.60
-28.04
-35.82
-44.49
-53.21
-61.12
-67.72
-73.13
-78.12
-83.79
-91.28
-101.31
-113.75
-127.37
-139.90
-148.41
-150.08
-143.02
-126.97
-103.50
-75.59
-46.79
-20.29
1.84
18.77
30.73
38.47
42.84
44.52
44.10
42.20
39.63
37.28
35.92
35.90
37.03
38.73
40.35
41.52
42.36
43.31
44.73
46.55
48.09
48.29
46.22
41.54
34.71
26.79
18.93
11.82
5.44
-0.84
-7.89
-16.25
-25.98
-36.53
-47.07
-56.79
-65.21
-72.34
-78.67
-85.13
-92.92
-103.19
-116.61
-132.86
-150.21
-165.58
-175.15
-175.44
-164.55
-142.83
-112.87
-78.62
-44.24
-13.00
13.28
34.15
50.07
61.91
70.60
76.91
81.47
84.78
87.15
88.85
90.08
91.05
91.97
92.93
93.92
94.77
95.31
95.43
95.14
94.52
93.50
91.80
88.93
84.32
77.62
68.94
58.90
48.50
38.81
30.50
23.56
17.29
10.48
2.04
-8.59
-21.10
-34.49
-47.44
-58.87
-68.41
-76.43
-83.96
-92.31
-102.82
-116.43
-133.34
-152.47
-171.30
-185.97
-192.16
-186.43
-167.46
-136.72
-98.10
-56.79
-17.61
16.12
43.08
63.67
79.21
91.08
100.30
107.35
112.43
115.71
117.51
118.32
118.66
118.87
119.02
119.01
118.64
117.83
116.72
115.55
114.46
113.38
111.95
109.68
106.10
100.97
94.28
86.26
77.26
67.68
57.89
48.24
38.96
30.13
21.58
12.90
3.56
-6.82
-18.32
-30.55
-42.80
-54.32
-64.62
-73.71
-82.18
-91.02
-101.43
-114.52
-130.76
-149.55
-168.77
-184.82
-193.32
-190.41
-174.18
-145.52
-108.10
-67.16
-27.87
6.04
32.94
53.11
67.83
78.66
86.86
93.30
98.50
102.72
106.07
108.52
109.99
110.43
109.92
108.69
107.15
105.74
104.86
104.68
105.07
105.55
105.41
103.96
100.69
95.39
88.23
79.56
69.85
59.58
49.28
39.39
30.32
22.17
14.74
7.51
-0.17
-8.87
-18.83
-29.86
-41.38
-52.67
-63.09
-72.39
-80.80
-89.06
-98.30
-109.71
-124.13
-141.44
-160.13
-177.19
-188.60
-190.40
-179.98
-157.12
-124.18
-85.47
-45.90
-9.63
20.74
44.37
61.69
73.78
81.88
87.09
90.29
92.15
93.13
93.51
93.42
92.93
92.13
91.15
90.17
89.36
88.83
88.59
88.54
88.43
87.93
86.61
84.14
80.31
75.11
68.76
61.60
53.95
46.06
38.03
29.91
21.79
13.82
6.20
-0.95
-7.76
-14.60
-22.00
-30.39
-39.89
-50.18
-60.61
-70.47
-79.31
-87.24
-94.91
-103.43
-113.97
-127.29
-143.17
-160.05
-175.03
-184.38
-184.48
-173.04
-149.90
-117.30
-79.30
-40.62
-5.37
23.86
46.17
62.05
72.59
78.96
82.05
82.56
81.19
78.74
76.07
73.95
72.84
72.81
73.61
74.83
76.10
77.20
78.05
78.59
78.73
78.23
76.76
73.99
69.68
63.80
56.57
48.41
39.85
31.39
23.40
16.01
9.07
2.22
-5.04
-13.14
-22.27
-32.25
-42.59
-52.67
-61.93
-70.18
-77.64
-84.91
-92.89
-102.57
-114.78
-129.87
-147.18
-164.80
-179.51
-187.44
-185.09
-170.60
-144.48
-109.66
-70.62
-32.09
2.23
30.32
51.77
67.25
77.74
84.09
86.89
86.76
84.51
81.21
78.01
75.78
74.91
75.18
76.03
76.87
77.38
77.58
77.77
78.16
78.77
79.19
78.71
76.55
72.12
65.23
56.30
46.16
35.79
26.03
17.24
9.27
1.51
-6.77
-16.18
-26.90
-38.64
-50.72
-62.26
-72.53
-81.24
-88.65
-95.65
-103.51
-113.62
-126.97
-143.66
-162.45
-180.54
-193.96
-198.46
-190.82
-169.99
-137.66
-97.81
-55.62
-15.97
17.78
44.15
63.37
76.63
85.36
90.75
93.62
94.59
94.20
93.04
91.72
90.67
90.06
89.77
89.48
88.92
88.05
87.11
86.43
86.23
86.34
86.18
84.86
81.58
75.79
67.48
57.14
45.68
34.18
23.56
14.34
6.42
-0.93
-8.76
-18.02
-29.16
-41.87
-55.19
-67.90
-79.05
-88.32
-96.15
-103.62
-112.08
-122.87
-136.93
-154.38
-174.10
-193.43
-208.43
-214.63
-208.38
-188.15
-155.22
-113.48
-68.31
-24.95
12.74
42.94
65.64
81.96
93.32
101.02
106.01
109.07
110.91
112.14
113.22
114.28
115.15
115.47
114.99
113.79
112.34
111.28
111.04
111.54
112.13
111.77
109.49
104.81
97.91
89.55
80.68
71.98
63.63
55.32
46.52
36.90
26.54
16.03
6.04
-2.98
-11.17
-19.20
-28.05
-38.41
-50.37
-63.33
-76.25
-88.11
-98.39
-107.34
-115.90
-125.52
-137.74
-153.65
-173.26
-194.96
-215.32
-229.53
-232.63
-221.04
-193.99
-153.97
-106.05
-56.42
-10.54
28.03
58.00
79.84
94.92
104.86
111.08
114.82
117.14
118.89
120.60
122.40
124.06
125.19
125.40
124.58
122.99
121.14
119.63
118.92
119.10
119.76
120.03
118.89
115.47
109.42
101.09
91.43
81.67
72.79
65.20
58.56
52.04
44.66
35.78
25.36
13.99
2.60
-7.95
-17.22
-25.45
-33.38
-41.99
-51.97
-63.43
-75.83
-88.21
-99.68
-109.83
-118.91
-127.82
-137.85
-150.40
-166.49
-186.22
-208.17
-229.09
-244.23
-248.42
-237.79
-211.20
-170.95
-122.13
-71.04
-23.36
17.20
49.22
73.07
89.97
101.34
108.38
112.17
113.78
114.29
114.64
115.40
116.61
117.90
118.66
118.41
117.09
115.12
113.23
112.12
112.06
112.70
113.17
112.33
109.23
103.50
95.44
85.94
76.21
67.30
59.74
53.41
47.61
41.40
34.07
25.48
16.08
6.77
-1.56
-8.44
-14.09
-19.41
-25.55
-33.49
-43.56
-55.34
-67.81
-79.82
-90.58
-99.93
-108.43
-117.20
-127.56
-140.72
-157.24
-176.48
-196.19
-212.51
-220.70
-216.54
-197.77
-165.18
-122.48
-75.24
-29.21
11.26
43.89
68.35
85.48
96.52
102.61
104.74
103.95
101.35
98.09
95.14
93.12
92.13
91.96
92.24
92.73
93.37
94.25
95.45
96.82
97.94
98.19
96.97
93.90
88.87
82.02
73.59
63.86
53.10
41.69
30.17
19.13
9.03
-0.09
-8.58
-17.14
-26.36
-36.50
-47.31
-58.16
-68.42
-77.68
-86.03
-93.99
-102.41
-112.28
-124.51
-139.67
-157.47
-176.41
-193.54
-204.84
-206.30
-195.07
-170.68
-135.32
-93.25
-49.61
-8.96
25.63
52.87
72.84
86.35
94.34
97.72
97.39
94.36
89.82
84.92
80.60
77.35
75.20
73.91
73.19
72.93
73.18
74.09
75.61
77.33
78.46
78.04
75.22
69.57
61.26
51.05
40.00
29.17
19.26
10.31
1.75
-7.35
-17.83
-29.98
-43.30
-56.63
-68.67
-78.47
-86.02
-92.24
-98.80
-107.48
-119.68
-135.77
-154.71
-173.90
-189.47
-197.11
-193.13
-175.79
-145.88
-106.75
-63.26
-20.44
17.77
49.18
73.26
90.53
101.94
108.43
110.85
110.08
107.12
103.11
99.08
95.87
93.84
92.97
92.98
93.45
94.09
94.75
95.35
95.80
95.89
95.25
93.39
89.81
84.16
76.30
66.46
55.20
43.33
31.72
21.05
11.55
2.97
-5.39
-14.38
-24.64
-36.39
-49.25
-62.36
-74.71
-85.55
-94.69
-102.69
-110.78
-120.51
-133.26
-149.83
-169.75
-191.05
-210.24
-222.80
-224.29
-211.71
-184.60
-145.49
-99.18
-51.43
-7.35
29.75
58.69
79.98
94.95
105.15
111.86
116.15
118.84
120.55
121.60
122.05
121.72
120.49
118.45
115.97
113.63
111.94
111.18
111.24
111.62
111.54
110.21
107.05
101.90
95.02
87.02
78.56
70.06
61.56
52.81
43.51
33.60
23.37
13.36
4.10
-4.21
-11.83
-19.46
-27.92
-37.82
-49.25
-61.75
-74.45
-86.46
-97.20
-106.71
-115.66
-125.27
-137.08
-152.39
-171.64
-193.67
-215.36
-231.94
-238.09
-229.68
-205.29
-166.94
-119.58
-69.51
-22.50
17.60
49.29
72.90
89.81
101.55
109.48
114.78
118.44
121.30
123.92
126.41
128.51
129.76
129.75
128.42
126.14
123.59
121.53
120.47
120.47
121.06
121.38
120.47
117.53
112.19
104.56
95.24
85.05
74.91
65.52
57.20
49.78
42.74
35.40
27.22
18.06
8.28
-1.44
-10.34
-18.00
-24.52
-30.62
-37.34
-45.68
-56.14
-68.55
-82.03
-95.38
-107.51
-117.92
-126.85
-135.26
-144.57
-156.33
-171.65
-190.61
-211.69
-231.44
-244.92
-246.92
-233.67
-204.28
-161.40
-110.50
-58.20
-10.36
29.32
59.58
81.10
95.57
104.80
110.29
113.17
114.28
114.27
113.62
112.69
111.68
110.64
109.49
108.12
106.51
104.86
103.50
102.87
103.13
104.07
105.02
105.02
103.19
98.96
92.33
83.80
74.28
64.76
56.07
48.62
42.30
36.60
30.85
24.47
17.22
9.24
0.90
-7.35
-15.19
-22.51
-29.43
-36.31
-43.64
-51.92
-61.51
-72.34
-83.97
-95.62
-106.55
-116.31
-125.08
-133.65
-143.34
-155.60
-171.46
-190.92
-212.26
-231.98
-245.24
-247.11
-234.15
-205.77
-164.65
-115.96
-65.86
-19.70
19.03
49.08
70.86
85.67
95.04
100.41
103.10
104.33
105.10
106.06
107.35
108.70
109.66
109.90
109.46
108.81
108.56
109.16
110.68
112.66
114.27
114.53
112.63
108.18
101.35
92.78
83.46
74.31
65.96
58.43
51.22
43.57
34.88
25.04
14.51
4.12
-5.36
-13.60
-20.96
-28.23
-36.35
-45.94
-57.00
-68.95
-80.82
-91.68
-101.03
-109.06
-116.63
-125.15
-136.16
-150.72
-168.72
-188.40
-206.24
-217.63
-218.05
-204.61
-177.09
-138.21
-92.86
-46.60
-4.27
31.04
58.16
77.39
89.79
96.61
99.04
98.19
95.18
91.15
87.17
84.08
82.34
81.95
82.54
83.60
84.64
85.42
85.91
86.27
86.55
86.58
85.88
83.78
79.69
73.31
64.83
54.88
44.34
33.98
24.30
15.29
6.57
-2.50
-12.45
-23.47
-35.27
-47.11
-58.11
-67.56
-75.34
-82.03
-88.75
-96.86
-107.60
-121.70
-139.06
-158.41
-177.21
-191.79
-198.09
-192.71
-174.17
-143.53
-104.30
-61.42
-19.82
16.81
46.58
69.17
85.19
95.57
101.14
102.72
101.16
97.50
92.92
88.57
85.27
83.42
82.97
83.56
84.73
86.17
87.69
89.16
90.31
90.60
89.29
85.68
79.43
70.80
60.58
49.86
39.65
30.48
22.23
14.25
5.57
-4.56
-16.32
-29.19
-42.12
-53.96
-63.96
-72.16
-79.43
-87.19
-97.08
-110.31
-127.23
-146.81
-166.38
-181.98
-189.23
-184.63
-166.83
-137.22
-99.51
-58.55
-18.93
16.11
44.99
67.53
84.33
96.26
104.21
109.01
111.48
112.36
112.35
112.03
111.80
111.80
111.86
111.57
110.53
108.66
106.25
103.94
102.27
101.35
100.70
99.32
96.24
90.79
82.88
72.97
61.85
50.45
39.58
29.77
21.18
13.48
6.04
-1.96
-11.07
-21.41
-32.61
-43.95
-54.65
-64.22
-72.64
-80.45
-88.69
-98.69
-111.63
-127.97
-146.84
-165.70
-180.72
-187.64
-183.15
-166.01
-137.69
-101.81
-63.16
-26.21
5.94
31.90
51.78
66.53
77.32
85.15
90.80
94.91
98.06
100.70
103.07
105.13
106.58
107.08
106.41
104.65
102.11
99.29
96.62
94.41
92.69
91.20
89.44
86.87
83.05
77.84
71.45
64.37
57.13
50.08
43.23
36.34
29.08
21.32
13.32
5.57
-1.37
-7.20
-12.13
-16.86
-22.26
-29.04
-37.38
-46.85
-56.57
-65.64
-73.53
-80.30
-86.66
-93.75
-102.79
-114.72
-129.71
-146.77
-163.49
-176.30
-181.26
-175.33
-157.51
-129.43
-94.97
-59.06
-26.16
0.93
21.43
36.21
46.88
55.00
61.66
67.40
72.44
76.84
80.57
83.51
85.51
86.37
86.07
84.77
82.82
80.72
78.94
77.77
77.27
77.25
77.29
76.86
75.49
72.82
68.75
63.50
57.51
51.40
45.66
40.59
36.16
32.09
27.99
23.56
18.65
13.25
7.49
1.55
-4.31
-9.82
-14.81
-19.29
-23.66
-28.56
-34.69
-42.36
-51.37
-60.99
-70.30
-78.65
-85.93
-92.59
-99.49
-107.53
-117.45
-129.47
-142.99
-156.40
-167.08
-171.89
-168.12
-154.48
-131.73
-102.60
-70.97
-40.68
-14.51
6.30
21.99
33.60
42.44
49.55
55.54
60.62
64.78
67.96
70.16
71.47
72.09
72.19
71.90
71.33
70.66
70.14
69.99
70.34
71.04
71.68
71.68
70.53
67.95
63.97
58.95
53.34
47.63
42.15
37.06
32.39
28.00
23.69
19.24
14.51
9.45
4.14
-1.27
-6.62
-11.80
-16.84
-21.92
-27.33
-33.45
-40.59
-48.85
-57.97
-67.41
-76.42
-84.47
-91.43
-97.73
-104.25
-112.07
-122.16
-134.97
-150.10
-166.03
-180.09
-188.91
-189.24
-179.06
-158.38
-129.42
-96.04
-62.54
-32.41
-7.64
11.42
25.52
35.86
43.57
49.49
54.22
58.18
61.64
64.76
67.51
69.80
71.50
72.65
73.38
73.94
74.59
75.52
76.81
78.33
79.80
80.69
80.45
78.57
74.85
69.49
63.06
56.34
49.98
44.31
39.33
34.79
30.30
25.52
20.15
14.02
7.13
-0.26
-7.72
-14.76
-21.09
-26.84
-32.52
-38.83
-46.31
-55.05
-64.64
-74.39
-83.68
-92.28
-100.48
-109.01
-118.88
-131.05
-145.94
-163.09
-180.77
-196.02
-205.14
-204.73
-192.70
-169.16
-136.47
-98.62
-60.08
-24.68
5.13
28.43
45.51
57.36
65.17
70.10
73.12
75.05
76.51
77.94
79.59
81.50
83.56
85.55
87.33
88.85
90.26
91.77
93.51
95.33
96.74
97.02
95.55
92.03
86.65
80.03
72.98
66.14
59.75
53.59
47.17
40.00
31.96
23.40
14.99
7.40
0.84
-5.02
-11.07
-18.22
-27.04
-37.39
-48.52
-59.42
-69.31
-78.02
-85.97
-94.06
-103.41
-115.02
-129.46
-146.45
-164.47
-180.63
-191.07
-191.95
-180.73
-157.15
-123.53
-84.07
-43.58
-6.18
25.54
50.64
69.38
82.62
91.33
96.38
98.55
98.62
97.39
95.64
94.06
93.18
93.26
94.28
96.01
98.05
100.03
101.64
102.65
102.88
102.15
100.28
97.10
92.57
86.76
79.79
71.87
63.23
54.05
44.56
35.01
25.64
16.63
8.02
-0.35
-8.78
-17.55
-26.86
-36.67
-46.72
-56.60
-65.95
-74.64
-82.95
-91.55
-101.49
-113.80
-129.06
-146.72
-164.84
-180.10
-188.53
-186.55
-172.23
-145.93
-110.34
-69.69
-28.68
8.70
39.85
63.75
80.73
91.90
98.67
102.33
103.87
104.07
103.48
102.57
101.75
101.28
101.24
101.50
101.87
102.16
102.34
102.46
102.55
102.48
101.90
100.38
97.54
93.20
87.43
80.48
72.58
63.92
54.59
44.70
34.44
24.21
14.45
5.46
-2.75
-10.58
-18.65
-27.59
-37.70
-48.82
-60.42
-71.78
-82.30
-91.79
-100.52
-109.35
-119.51
-132.33
-148.71
-168.37
-189.43
-208.28
-220.27
-220.96
-207.63
-180.30
-141.85
-97.18
-51.72
-10.01
25.17
52.90
73.65
88.59
99.04
106.20
111.06
114.42
116.97
119.14
121.11
122.79
123.88
124.04
123.16
121.42
119.28
117.32
115.95
115.16
114.54
113.32
110.76
106.39
100.20
92.64
84.39
76.17
68.41
61.19
54.18
46.82
38.61
29.30
19.09
8.57
-1.52
-10.62
-18.61
-25.92
-33.40
-41.92
-52.01
-63.58
-75.92
-88.02
-98.99
-108.52
-117.00
-125.52
-135.53
-148.41
-164.97
-184.88
-206.21
-225.36
-237.67
-238.53
-224.91
-196.48
-156.03
-108.64
-60.20
-15.83
21.34
50.27
71.63
86.88
97.61
105.14
110.46
114.30
117.20
119.55
121.58
123.25
124.36
124.62
123.90
122.30
120.27
118.42
117.30
117.10
117.52
117.81
117.00
114.26
109.19
101.95
93.14
83.67
74.35
65.69
57.74
50.14
42.29
33.66
24.08
13.76
3.29
-6.60
-15.31
-22.68
-29.09
-35.33
-42.43
-51.16
-61.78
-73.87
-86.51
-98.65
-109.60
-119.24
-128.15
-137.47
-148.57
-162.65
-180.15
-200.10
-219.75
-234.81
-240.39
-232.49
-209.48
-172.87
-126.94
-77.41
-29.82
11.84
45.54
71.01
89.03
100.83
107.72
111.06
112.16
112.24
112.17
112.38
112.90
113.45
113.72
113.53
112.88
112.05
111.40
111.26
111.75
112.69
113.51
113.44
111.67
107.69
101.36
93.06
83.52
73.63
64.21
55.73
48.25
41.35
34.40
26.74
18.05
8.45
-1.46
-10.91
-19.29
-26.49
-32.98
-39.66
-47.51
-57.06
-68.26
-80.38
-92.36
-103.18
-112.32
-119.95
-126.94
-134.63
-144.50
-157.78
-174.83
-194.66
-214.55
-230.27
-236.95
-230.49
-208.98
-173.59
-128.28
-78.73
-30.62
11.70
45.90
71.49
89.22
100.34
106.20
108.12
107.37
105.16
102.52
100.18
98.50
97.56
97.22
97.35
97.88
98.86
100.40
102.49
104.87
106.92
107.84
106.81
103.41
97.68
90.24
81.95
73.59
65.57
57.81
49.86
41.19
31.54
21.07
10.42
0.35
-8.55
-16.21
-23.14
-30.28
-38.51
-48.28
-59.30
-70.69
-81.39
-90.71
-98.64
-105.93
-113.95
-124.21
-137.95
-155.46
-175.62
-195.59
-211.09
-217.30
-210.37
-188.70
-153.73
-109.59
-61.84
-15.89
24.26
56.50
80.40
96.56
106.02
109.98
109.73
106.60
101.93
96.88
92.29
88.70
86.28
84.98
84.63
84.94
85.70
86.76
88.03
89.40
90.61
91.16
90.38
87.66
82.59
75.20
65.92
55.51
44.85
34.72
25.52
17.20
9.25
0.87
-8.66
-19.66
-31.87
-44.52
-56.59
-67.30
-76.34
-84.07
-91.32
-99.26
-109.07
-121.71
-137.62
-156.18
-175.43
-191.99
-201.68
-200.58
-186.35
-159.11
-121.60
-78.38
-34.61
5.30
38.48
63.73
81.23
91.91
96.97
97.71
95.38
91.23
86.46
82.09
78.83
76.91
76.13
75.98
75.98
75.91
75.91
76.32
77.42
79.05
80.48
80.58
78.17
72.54
63.77
52.77
40.93
29.63
19.63
10.88
2.57
-6.43
-17.01
-29.34
-42.79
-56.21
-68.40
-78.69
-87.19
-94.75
-102.72
-112.50
-125.19
-141.08
-159.24
-177.25
-191.45
-197.65
-192.32
-173.86
-143.25
-103.89
-60.62
-18.29
19.31
50.06
73.36
89.67
99.96
105.35
106.98
105.93
103.23
99.84
96.58
94.13
92.82
92.60
93.06
93.65
93.92
93.80
93.55
93.50
93.60
93.25
91.44
87.13
79.83
69.81
57.99
45.58
33.58
22.43
11.98
1.65
-9.27
-21.20
-34.15
-47.53
-60.46
-72.06
-81.88
-90.18
-97.94
-106.74
-118.22
-133.56
-152.78
-174.32
-194.84
-209.77
-214.37
-205.23
-181.47
-145.25
-101.24
-55.19
-12.32
23.88
52.05
72.55
86.71
96.12
102.18
106.01
108.42
110.06
111.27
112.24
112.96
113.30
113.09
112.19
110.58
108.35
105.79
103.23
100.98
99.08
97.24
94.85
91.13
85.40
77.34
67.18
55.55
43.41
31.67
20.93
11.29
2.30
-6.81
-16.81
-28.12
-40.58
-53.50
-65.89
-76.94
-86.32
-94.36
-102.08
-110.92
-122.41
-137.66
-156.85
-178.62
-199.88
-216.11
-222.45
-215.14
-192.94
-157.75
-114.16
-68.06
-24.86
11.77
40.46
61.61
76.70
87.41
95.17
101.09
105.93
110.18
114.03
117.37
119.92
121.33
121.45
120.39
118.50
116.26
114.18
112.55
111.43
110.57
109.46
107.50
104.16
99.24
92.84
85.33
77.11
68.48
59.53
50.22
40.55
30.70
20.95
11.58
2.63
-6.18
-15.37
-25.47
-36.64
-48.64
-60.81
-72.38
-82.80
-91.95
-100.31
-108.80
-118.70
-131.31
-147.33
-166.27
-185.87
-202.21
-210.57
-206.83
-188.97
-157.99
-117.72
-73.60
-31.02
6.03
35.69
57.96
73.96
85.16
92.86
98.07
101.63
104.23
106.41
108.48
110.41
111.91
112.61
112.25
110.90
108.94
106.89
105.15
103.85
102.75
101.37
99.18
95.78
91.00
84.93
77.86
70.14
62.12
53.93
45.60
37.07
28.35
19.57
10.99
2.83
-4.94
-12.66
-20.91
-30.17
-40.50
-51.46
-62.21
-71.91
-80.12
-87.10
-93.76
-101.43
-111.43
-124.71
-141.33
-160.06
-178.23
-191.95
-196.94
-189.87
-169.53
-137.53
-97.96
-56.21
-17.30
15.36
40.48
58.51
70.84
79.00
84.16
87.19
88.75
89.46
89.90
90.46
91.23
91.98
92.33
91.93
90.71
88.88
86.93
85.26
84.05
83.06
81.75
79.49
75.84
70.69
64.29
57.05
49.38
41.51
33.57
25.62
17.80
10.30
3.24
-3.44
-10.06
-17.06
-24.87
-33.67
-43.32
-53.37
-63.23
-72.32
-80.33
-87.37
-93.97
-101.10
-109.97
-121.62
-136.26
-152.82
-168.61
-179.81
-182.36
-173.38
-152.21
-120.90
-83.63
-45.45
-10.78
17.63
39.03
54.16
64.47
71.35
75.78
78.38
79.64
80.03
80.02
79.95
79.91
79.73
79.20
78.21
76.94
75.80
75.20
75.35
76.04
76.69
76.56
75.01
71.79
67.03
61.12
54.50
47.51
40.33
33.04
25.79
18.72
11.96
5.51
-0.86
-7.48
-14.71
-22.70
-31.32
-40.26
-49.04
-57.32
-64.89
-71.86
-78.63
-85.86
-94.44
-105.25
-118.75
-134.43
-150.42
-163.59
-170.16
-166.83
-152.04
-126.61
-93.64
-57.50
-22.54
8.07
32.78
51.42
64.63
73.21
77.85
79.18
77.95
75.10
71.69
68.68
66.71
66.02
66.45
67.58
68.87
69.86
70.25
69.93
68.97
67.43
65.32
62.49
58.68
53.68
47.37
39.92
31.74
23.44
15.59
8.55
2.28
-3.66
-10.01
-17.42
-26.10
-35.69
-45.30
-53.95
-61.04
-66.66
-71.58
-76.97
-83.97
-93.38
-105.45
-119.72
-134.91
-148.86
-158.65
-161.21
-154.19
-136.78
-110.24
-77.60
-42.85
-9.77
18.88
41.75
58.65
70.08
76.70
79.20
78.27
74.75
69.66
64.14
59.23
55.68
53.79
53.45
54.35
56.06
58.28
60.69
62.95
64.49
64.58
62.53
57.96
51.08
42.60
33.55
24.87
17.02
9.86
2.80
-4.92
-13.83
-24.01
-35.02
-46.05
-56.28
-65.13
-72.58
-79.24
-86.26
-95.02
-106.60
-121.14
-137.38
-152.60
-163.11
-165.24
-156.50
-136.43
-106.89
-71.52
-34.65
-0.20
29.13
52.11
68.71
79.61
85.69
87.87
87.03
84.13
80.19
76.20
72.98
70.92
69.96
69.72
69.74
69.75
69.69
69.71
69.78
69.60
68.50
65.78
60.92
53.96
45.40
36.05
26.56
17.20
7.79
-2.09
-12.71
-23.98
-35.39
-46.20
-55.83
-64.17
-71.67
-79.35
-88.50
-100.36
-115.56
-133.52
-152.09
-167.75
-176.31
-174.23
-159.78
-133.81
-99.48
-61.33
-23.87
9.46
36.87
58.03
73.55
84.43
91.67
96.14
98.55
99.46
99.30
98.44
97.11
95.48
93.63
91.59
89.52
87.65
86.37
85.95
86.35
87.05
87.04
85.14
80.41
72.55
62.06
50.14
38.15
27.19
17.60
8.97
0.32
-9.31
-20.50
-33.12
-46.42
-59.44
-71.37
-81.90
-91.34
-100.58
-110.88
-123.48
-139.09
-157.15
-175.48
-190.31
-197.11
-192.02
-173.24
-141.87
-101.69
-58.05
-16.20
20.02
48.83
70.31
85.68
96.50
104.07
109.34
112.85
115.07
116.40
117.20
117.65
117.71
117.10
115.52
112.88
109.38
105.62
102.32
99.99
98.72
98.01
96.86
94.18
89.12
81.39
71.42
60.18
48.86
38.38
29.12
20.76
12.48
3.35
-7.27
-19.43
-32.50
-45.49
-57.36
-67.53
-76.08
-83.77
-91.85
-101.74
-114.60
-130.90
-149.97
-169.66
-186.50
-196.20
-194.81
-180.05
-152.27
-114.53
-71.80
-29.47
8.20
38.87
62.22
79.23
91.37
99.91
105.66
109.15
110.79
111.08
110.53
109.60
108.52
107.25
105.60
103.40
100.69
97.71
94.86
92.43
90.39
88.39
85.78
82.03
76.78
70.04
62.02
53.05
43.39
33.33
23.16
13.23
3.84
-4.91
-13.28
-21.79
-31.03
-41.29
-52.37
-63.62
-74.14
-83.26
-90.81
-97.28
-103.72
-111.44
-121.79
-135.60
-152.80
-171.92
-190.03
-203.01
-206.62
-197.73
-175.51
-141.90
-101.12
-58.40
-18.55
15.20
41.53
60.72
73.96
82.65
88.04
91.10
92.60
93.18
93.35
93.45
93.68
94.00
94.30
94.45
94.38
94.08
93.63
93.05
92.28
91.13
89.28
86.40
82.22
76.63
69.73
61.74
53.00
43.91
34.84
26.09
17.84
10.08
2.57
-5.09
-13.32
-22.41
-32.35
-42.81
-53.33
-63.39
-72.71
-81.21
-89.05
-96.60
-104.47
-113.57
-124.96
-139.34
-156.38
-174.07
-188.78
-195.97
-191.76
-174.32
-144.77
-106.87
-65.76
-26.36
7.88
35.43
56.33
71.38
81.55
87.63
90.38
90.66
89.47
87.84
86.61
86.22
86.66
87.60
88.68
89.60
90.29
90.82
91.24
91.47
91.26
90.21
87.89
83.93
78.16
70.65
61.69
51.74
41.37
31.19
21.62
12.90
4.92
-2.67
-10.45
-18.97
-28.47
-38.84
-49.52
-59.73
-68.74
-76.28
-82.59
-88.52
-95.24
-103.98
-115.66
-130.50
-147.67
-165.04
-179.31
-186.58
-183.49
-168.27
-141.50
-106.07
-66.37
-27.02
8.24
37.26
59.35
74.88
84.59
89.30
89.77
86.93
81.96
76.28
71.30
68.08
67.00
67.73
69.50
71.44
72.99
74.04
74.81
75.55
76.18
76.22
74.89
71.46
65.55
57.35
47.56
37.14
26.97
17.60
9.10
1.12
-6.81
-15.12
-24.03
-33.44
-43.07
-52.52
-61.42
-69.51
-76.80
-83.62
-90.71
-99.20
-110.24
-124.55
-141.72
-159.78
-175.26
-183.95
-182.09
-167.69
-141.31
-105.88
-65.89
-25.97
10.16
40.26
63.49
79.95
90.19
94.96
95.20
92.17
87.36
82.34
78.35
76.09
75.53
76.17
77.28
78.33
79.13
79.78
80.53
81.39
82.05
81.77
79.71
75.17
67.95
58.50
47.68
36.52
25.71
15.43
5.33
-5.16
-16.45
-28.43
-40.57
-52.09
-62.39
-71.27
-79.13
-86.81
-95.46
-106.26
-120.10
-137.06
-155.94
-173.98
-187.20
-191.35
-183.26
-162.00
-129.37
-89.41
-47.21
-7.43
26.71
53.79
73.91
87.96
97.04
102.09
103.93
103.30
101.06
98.14
95.41
93.48
92.55
92.41
92.59
92.62
92.28
91.70
91.16
90.87
90.64
89.83
87.51
82.76
75.10
64.73
52.53
39.76
27.63
16.85
7.36
-1.53
-10.86
-21.46
-33.57
-46.67
-59.75
-71.74
-82.06
-90.90
-99.19
-108.33
-119.76
-134.48
-152.68
-173.27
-193.67
-209.99
-217.81
-213.33
-194.79
-163.21
-122.21
-76.97
-32.67
6.76
39.27
64.53
83.24
96.54
105.53
111.16
114.24
115.50
115.53
114.84
113.77
112.55
111.26
109.94
108.56
107.19
105.93
104.95
104.29
103.76
102.93
101.20
97.96
92.80
85.59
76.50
66.02
54.78
43.51
32.81
23.00
13.98
5.26
-3.87
-13.97
-25.23
-37.25
-49.23
-60.25
-69.66
-77.39
-84.03
-90.74
-98.97
-110.11
-125.12
-143.99
-165.33
-186.19
-202.23
-208.79
-202.11
-180.78
-146.38
-103.21
-57.06
-13.47
23.65
52.64
73.89
88.85
99.20
106.25
110.75
113.19
113.97
113.56
112.52
111.38
110.45
109.86
109.55
109.35
109.10
108.70
108.11
107.23
105.91
103.87
100.78
96.37
90.60
83.59
75.68
67.20
58.40
49.37
40.08
30.55
20.94
11.48
2.40
-6.25
-14.66
-23.24
-32.33
-42.01
-52.00
-61.77
-70.83
-79.02
-86.70
-94.80
-104.61
-117.37
-133.71
-153.12
-173.40
-190.90
-201.05
-199.70
-184.47
-155.74
-116.69
-72.48
-28.71
10.09
41.33
64.45
80.36
90.56
96.48
99.21
99.57
98.29
96.11
93.75
91.72
90.21
89.11
88.19
87.27
86.37
85.68
85.40
85.59
85.98
86.10
85.30
83.08
79.20
73.80
67.25
60.00
52.41
44.67
36.87
29.08
21.44
14.02
6.76
-0.63
-8.57
-17.35
-26.93
-36.88
-46.51
-55.21
-62.74
-69.33
-75.59
-82.38
-90.67
-101.37
-115.05
-131.47
-149.06
-164.79
-174.62
-174.60
-162.21
-137.38
-102.68
-62.45
-21.59
15.88
47.43
72.14
90.02
101.47
106.91
106.80
101.96
93.67
83.65
73.71
65.28
59.09
55.10
52.75
51.29
50.25
49.44
48.92
48.66
48.37
47.40
45.04
40.74
34.44
26.62
18.09
9.68
1.85
-5.47
-12.83
-20.93
-30.22
-40.62
-51.44
-61.71
-70.60
-77.80
-83.72
-89.30
-95.80
-104.42
-115.95
-130.40
-146.69
-162.41
-174.14
-178.15
-171.52
-153.23
-124.61
-89.04
-50.90
-14.32
17.79
43.98
63.99
78.13
86.88
90.68
90.13
86.14
80.04
73.38
67.57
63.58
61.76
61.86
63.37
65.70
68.40
71.06
73.24
74.35
73.81
71.18
66.40
59.80
51.98
43.60
35.11
26.55
17.67
7.97
-2.94
-15.11
-28.04
-40.80
-52.29
-61.75
-69.16
-75.37
-81.95
-90.73
-103.08
-119.26
-137.88
-155.83
-168.80
-172.50
-163.94
-142.64
-110.97
-73.36
-34.99
-0.24
28.25
49.59
64.25
73.26
77.81
79.10
78.36
76.71
75.05
73.82
72.93
72.04
70.82
69.19
67.42
65.94
65.07
64.91
65.17
65.29
64.57
62.33
58.19
52.09
44.42
35.78
26.77
17.74
8.67
-0.74
-10.79
-21.58
-32.84
-43.98
-54.29
-63.34
-71.16
-78.43
-86.38
-96.53
-110.08
-127.25
-146.66
-165.27
-178.88
-183.22
-175.31
-154.53
-122.84
-84.24
-43.56
-5.16
27.94
54.38
74.16
88.12
97.43
103.21
106.45
107.98
108.47
108.42
108.10
107.56
106.69
105.28
103.21
100.57
97.67
95.00
92.97
91.70
90.82
89.50
86.70
81.55
73.80
63.94
53.08
42.48
32.98
24.71
16.95
8.62
-1.32
-13.28
-26.90
-41.16
-54.76
-66.60
-76.19
-83.85
-90.73
-98.52
-108.99
-123.30
-141.32
-161.12
-179.07
-190.51
-191.12
-178.32
-152.24
-115.86
-74.09
-32.27
5.22
35.89
59.15
75.74
86.99
94.18
98.34
100.25
100.60
100.06
99.21
98.41
97.76
97.07
96.09
94.60
92.62
90.39
88.29
86.59
85.32
84.16
82.56
79.91
75.72
69.74
61.95
52.61
42.20
31.35
20.80
11.17
2.75
-4.69
-11.81
-19.49
-28.37
-38.60
-49.75
-61.02
-71.63
-81.17
-89.70
-97.74
-106.15
-116.03
-128.36
-143.73
-161.66
-180.19
-195.81
-204.17
-201.29
-184.99
-155.83
-117.02
-73.50
-30.46
7.95
39.37
63.18
79.93
90.65
96.43
98.25
97.07
93.95
90.06
86.48
83.96
82.65
82.15
81.82
81.20
80.28
79.49
79.36
80.06
81.10
81.43
79.82
75.43
68.17
58.75
48.39
38.26
29.05
20.71
12.59
3.81
-6.26
-17.72
-29.98
-42.08
-53.02
-62.22
-69.73
-76.32
-83.30
-92.16
-104.19
-119.89
-138.46
-157.50
-173.20
-181.13
-177.64
-161.03
-132.29
-94.84
-53.49
-12.97
23.10
52.74
75.35
91.12
100.58
104.41
103.54
99.22
93.03
86.50
80.88
76.78
74.23
72.87
72.25
72.07
72.34
73.17
74.59
76.30
77.59
77.42
74.80
69.19
60.70
50.18
38.92
28.16
18.60
10.18
2.13
-6.61
-16.82
-28.68
-41.55
-54.41
-66.22
-76.48
-85.39
-93.85
-103.17
-114.65
-129.02
-146.01
-163.86
-179.46
-188.84
-188.23
-175.33
-150.08
-114.84
-73.70
-31.35
8.12
41.86
68.48
87.69
99.94
106.10
107.23
104.59
99.46
93.10
86.62
80.88
76.40
73.36
71.60
70.83
70.68
70.90
71.31
71.71
71.73
70.82
68.36
63.95
57.58
49.65
40.76
31.42
21.73
11.41
0.08
-12.45
-25.88
-39.50
-52.41
-63.93
-73.89
-82.81
-91.78
-102.24
-115.38
-131.63
-150.06
-168.16
-182.11
-187.78
-181.97
-163.52
-133.83
-96.48
-56.09
-17.02
17.62
46.33
68.83
85.43
96.43
102.00
102.38
98.20
90.74
81.69
72.79
65.44
60.36
57.65
57.00
57.89
59.71
61.83
63.58
64.35
63.67
61.34
57.34
51.82
44.93
36.72
27.21
16.43
4.59
-7.92
-20.56
-32.77
-44.15
-54.52
-64.02
-73.10
-82.49
-93.11
-105.75
-120.73
-137.31
-153.36
-165.51
-169.78
-162.85
-143.23
-112.02
-72.71
-30.16
10.75
46.33
74.63
95.18
108.48
115.33
116.59
113.13
106.00
96.53
86.26
76.72
69.13
64.13
61.76
61.57
62.74
64.41
65.80
66.29
65.50
63.20
59.30
53.82
46.86
38.46
28.64
17.40
4.80
-8.88
-23.09
-37.10
-50.18
-61.84
-72.09
-81.46
-90.89
-101.67
-114.99
-131.46
-150.49
-169.89
-185.84
-193.74
-189.53
-171.16
-139.54
-98.36
-53.02
-9.00
29.60
60.62
83.78
99.89
110.24
116.11
118.66
118.96
117.89
116.15
114.13
112.05
109.97
107.98
106.21
104.79
103.81
103.20
102.71
101.90
100.23
97.15
92.28
85.49
77.01
67.25
56.72
45.76
34.49
22.83
10.68
-2.00
-14.98
-27.86
-40.19
-51.60
-62.14
-72.31
-83.13
-95.77
-110.94
-128.27
-145.81
-160.21
-167.44
-164.09
-148.60
-121.92
-87.37
-49.57
-13.09
18.77
44.49
64.16
78.73
89.31
96.71
101.42
103.86
104.56
104.26
103.66
103.16
102.70
101.89
100.28
97.74
94.60
91.54
89.22
87.89
87.14
86.02
83.43
78.59
71.45
62.64
53.22
44.17
35.95
28.36
20.69
12.15
2.24
-8.98
-20.90
-32.67
-43.47
-52.89
-61.01
-68.47
-76.32
-85.76
-97.70
-112.19
-127.99
-142.39
-151.73
-152.44
-142.26
-121.24
-91.86
-58.23
-24.85
4.76
28.73
46.82
59.83
68.85
74.78
78.24
79.70
79.73
78.98
78.09
77.44
77.13
76.94
76.50
75.50
73.87
71.80
69.66
67.80
66.36
65.14
63.58
60.97
56.71
50.58
42.84
34.24
25.73
18.18
12.03
7.15
2.90
-1.56
-6.97
-13.60
-21.21
-29.16
-36.71
-43.38
-49.15
-54.46
-59.94
-66.27
-73.95
-83.23
-94.00
-105.52
-116.24
-123.80
-125.57
-119.45
-104.78
-82.78
-56.37
-29.18
-4.43
15.93
31.43
42.60
50.29
55.14
57.47
57.52
55.74
52.86
49.74
47.08
45.20
44.02
43.19
42.41
41.56
40.74
40.16
39.94
39.95
39.81
39.02
37.13
34.01
29.92
25.37
20.93
16.99
13.54
10.23
6.60
2.26
-2.78
-8.12
-13.16
-17.38
-20.61
-23.18
-25.75
-29.01
-33.45
-39.12
-45.69
-52.64
-59.47
-65.85
-71.72
-77.29
-83.00
-89.43
-97.04
-105.83
-114.95
-122.50
-125.92
-122.79
-111.77
-93.23
-69.29
-43.09
-17.83
4.12
21.57
34.38
42.97
47.95
49.84
49.24
46.84
43.53
40.23
37.72
36.39
36.20
36.77
37.58
38.17
38.39
38.29
38.15
38.18
38.39
38.51
38.13
36.80
34.30
30.68
26.26
21.53
16.99
12.95
9.41
6.11
2.58
-1.54
-6.31
-11.39
-16.20
-20.21
-23.20
-25.42
-27.50
-30.18
-34.02
-39.20
-45.49
-52.39
-59.24
-65.53
-70.95
-75.63
-79.99
-84.84
-91.06
-99.31
-109.69
-121.38
-132.54
-140.52
-142.50
-136.32
-121.35
-98.82
-71.53
-43.02
-16.47
6.02
23.58
36.28
44.60
49.02
50.00
48.17
44.45
40.02
36.01
33.21
31.96
32.12
33.34
35.32
37.88
40.95
44.42
48.03
51.30
53.61
54.37
53.26
50.29
45.79
40.30
34.36
28.34
22.40
16.49
10.50
4.38
-1.79
-7.72
-13.13
-17.84
-21.95
-25.87
-30.25
-35.70
-42.49
-50.41
-58.76
-66.75
-73.79
-79.92
-85.83
-92.74
-101.89
-114.04
-128.91
-144.81
-158.86
-167.59
-167.89
-157.95
-137.92
-109.84
-76.99
-43.03
-11.07
16.74
39.31
56.26
67.63
73.72
75.10
72.64
67.51
61.16
54.98
50.15
47.39
46.91
48.43
51.39
55.15
59.19
63.16
66.85
70.03
72.28
73.03
71.64
67.69
61.19
52.63
42.98
33.32
24.53
17.04
10.69
4.83
-1.35
-8.54
-17.05
-26.69
-36.91
-46.97
-56.28
-64.55
-71.93
-79.02
-86.76
-96.32
-108.73
-124.44
-142.65
-161.10
-176.11
-183.57
-180.12
-164.29
-137.14
-101.90
-63.00
-24.81
9.32
37.45
58.88
73.81
82.85
86.85
86.86
84.14
80.07
75.98
72.90
71.40
71.49
72.77
74.70
76.83
78.94
80.95
82.75
83.97
84.02
82.19
78.05
71.57
63.23
53.73
43.69
33.37
22.68
11.32
-0.87
-13.70
-26.51
-38.47
-48.89
-57.58
-65.00
-72.23
-80.68
-91.70
-106.12
-123.65
-142.61
-159.81
-171.19
-172.77
-161.94
-138.41
-104.45
-64.28
-22.84
15.49
47.79
72.82
90.70
102.27
108.66
110.93
110.10
107.09
102.84
98.24
94.08
90.96
89.21
88.85
89.62
91.02
92.49
93.42
93.28
91.61
88.16
82.88
75.95
67.69
58.44
48.42
37.66
26.09
13.72
0.73
-12.41
-25.12
-36.83
-47.30
-56.70
-65.65
-75.16
-86.41
-100.30
-117.05
-135.59
-153.35
-166.54
-170.94
-163.22
-142.12
-109.18
-68.42
-25.20
15.32
49.59
76.22
95.74
109.70
119.66
126.62
130.96
132.79
132.41
130.48
127.85
125.24
122.91
120.68
118.19
115.23
111.97
108.94
106.69
105.36
104.44
102.86
99.29
92.82
83.24
71.30
58.35
45.93
35.07
26.01
18.16
10.41
1.68
-8.63
-20.36
-32.73
-44.65
-55.26
-64.20
-71.79
-79.00
-87.21
-97.83
-111.87
-129.29
-148.59
-166.65
-179.27
-182.27
-172.84
-150.56
-117.69
-78.53
-38.14
-0.91
30.33
54.61
72.39
84.88
93.40
98.99
102.39
104.14
104.78
104.83
104.79
104.93
105.20
105.37
105.15
104.37
103.11
101.55
99.85
97.99
95.76
92.85
88.97
83.95
77.74
70.46
62.29
53.52
44.49
35.54
26.94
18.88
11.41
4.40
-2.41
-9.42
-17.02
-25.44
-34.63
-44.22
-53.61
-62.24
-69.87
-76.70
-83.48
-91.27
-101.25
-114.18
-129.98
-147.23
-163.13
-173.91
-175.82
-166.32
-145.14
-114.43
-78.24
-41.23
-7.42
20.66
42.18
57.61
67.99
74.44
77.86
78.99
78.60
77.59
76.80
76.87
77.96
79.76
81.69
83.17
83.96
84.17
84.14
84.10
83.97
83.29
81.42
77.87
72.47
65.56
57.82
50.10
43.09
37.06
31.76
26.54
20.65
13.69
5.79
-2.36
-9.91
-16.27
-21.45
-26.05
-31.05
-37.30
-45.20
-54.52
-64.55
-74.33
-83.10
-90.55
-96.95
-103.15
-110.37
-119.86
-132.38
-147.65
-163.90
-177.95
-185.84
-183.88
-170.04
-144.65
-110.58
-72.30
-34.66
-1.49
25.07
44.64
58.05
66.56
71.39
73.50
73.75
73.01
72.18
71.99
72.82
74.52
76.57
78.32
79.35
79.71
79.76
80.02
80.72
81.63
82.08
81.23
78.41
73.41
66.59
58.73
50.81
43.66
37.70
32.91
28.81
24.71
19.94
14.17
7.50
0.45
-6.35
-12.52
-18.13
-23.72
-29.94
-37.22
-45.39
-53.82
-61.71
-68.55
-74.44
-80.06
-86.41
-94.54
-105.18
-118.52
-133.94
-149.77
-163.31
-171.18
-170.18
-158.34
-135.73
-104.67
-69.05
-33.27
-0.95
25.73
46.11
60.60
70.04
75.31
77.16
76.41
74.02
71.08
68.66
67.54
68.01
69.87
72.61
75.63
78.51
81.03
83.10
84.57
85.16
84.49
82.20
78.17
72.65
66.20
59.48
53.03
47.05
41.37
35.61
29.43
22.70
15.59
8.49
1.75
-4.48
-10.38
-16.40
-23.06
-30.68
-39.24
-48.33
-57.40
-65.98
-73.89
-81.40
-89.17
-98.04
-108.84
-122.07
-137.43
-153.51
-167.59
-176.14
-175.68
-163.98
-140.97
-109.01
-72.14
-34.91
-1.07
27.11
48.89
64.47
74.41
79.32
79.84
76.89
71.81
66.22
61.63
59.00
58.65
60.22
63.02
66.34
69.70
72.87
75.73
78.12
79.76
80.26
79.21
76.41
71.89
65.99
59.27
52.32
45.52
38.96
32.40
25.49
17.96
9.91
1.75
-5.97
-12.86
-18.92
-24.61
-30.56
-37.39
-45.31
-54.10
-63.26
-72.17
-80.41
-87.90
-95.04
-102.69
-112.02
-124.16
-139.60
-157.59
-175.72
-190.12
-196.38
-190.87
-172.03
-141.03
-101.46
-58.24
-16.30
20.59
50.27
72.15
86.71
95.04
98.47
98.39
96.13
92.90
89.76
87.45
86.40
86.68
88.04
90.13
92.50
94.94
97.30
99.53
101.36
102.32
101.64
98.67
93.13
85.33
76.10
66.44
57.09
48.23
39.57
30.62
21.13
11.29
1.70
-7.01
-14.57
-21.28
-27.86
-35.17
-43.69
-53.39
-63.70
-73.89
-83.31
-91.78
-99.57
-107.39
-116.33
-127.57
-142.10
-160.09
-180.30
-199.68
-213.81
-217.86
-208.25
-183.97
-147.12
-102.34
-55.36
-11.37
26.10
55.54
77.05
91.66
100.70
105.56
107.53
107.77
107.24
106.56
106.11
105.96
106.11
106.50
107.07
107.82
108.76
109.90
111.17
112.33
112.90
112.17
109.45
104.39
97.14
88.38
79.02
69.84
61.12
52.67
43.98
34.70
24.87
14.96
5.60
-2.78
-10.27
-17.49
-25.31
-34.43
-45.02
-56.62
-68.29
-79.09
-88.50
-96.66
-104.41
-113.00
-123.82
-137.96
-155.70
-175.99
-196.12
-211.97
-218.77
-212.57
-191.57
-156.98
-112.80
-64.64
-18.08
22.62
55.25
79.39
95.80
105.79
110.68
111.81
110.46
107.85
105.08
102.98
102.03
102.25
103.31
104.71
105.99
106.91
107.56
108.16
108.88
109.52
109.49
107.97
104.27
98.20
90.21
81.24
72.29
64.00
56.42
49.05
41.16
32.25
22.31
11.86
1.78
-7.16
-14.59
-20.79
-26.53
-32.87
-40.65
-50.21
-61.20
-72.73
-83.73
-93.38
-101.51
-108.71
-116.31
-125.92
-138.93
-155.75
-175.21
-194.35
-208.76
-213.66
-205.30
-182.31
-146.33
-101.61
-53.81
-8.42
30.50
60.93
82.64
96.57
104.11
106.69
105.67
102.38
98.21
94.43
91.99
91.28
92.06
93.66
95.36
96.72
97.76
98.82
100.22
102.00
103.66
104.34
103.13
99.43
93.20
84.98
75.71
66.40
57.79
50.15
43.17
36.22
28.57
19.88
10.31
0.52
-8.62
-16.56
-23.35
-29.68
-36.55
-44.75
-54.41
-64.90
-75.16
-84.25
-91.81
-98.22
-104.54
-112.08
-122.09
-135.30
-151.71
-170.07
-187.78
-200.98
-205.40
-197.51
-175.88
-141.91
-99.60
-54.37
-11.52
25.08
53.58
73.91
87.09
94.50
97.45
97.04
94.29
90.19
85.76
81.93
79.36
78.37
78.89
80.60
83.07
85.96
89.06
92.19
94.97
96.82
96.97
94.78
90.06
83.22
75.15
66.87
59.12
52.10
45.47
38.57
30.78
21.82
11.90
1.68
-7.97
-16.32
-23.13
-28.80
-34.21
-40.44
-48.20
-57.55
-67.85
-78.04
-87.22
-94.99
-101.71
-108.37
-116.34
-126.96
-140.98
-157.93
-175.79
-190.88
-198.65
-194.96
-177.57
-147.09
-106.97
-62.44
-18.88
19.57
50.65
73.72
89.14
97.67
100.25
98.05
92.68
86.01
79.83
75.44
73.38
73.42
74.87
76.98
79.18
81.25
83.29
85.37
87.43
89.11
89.77
88.80
85.80
80.81
74.22
66.58
58.38
49.86
41.05
31.88
22.37
12.68
3.22
-5.54
-13.19
-19.59
-25.00
-30.12
-35.81
-42.80
-51.26
-60.69
-70.17
-78.72
-85.87
-91.86
-97.69
-104.78
-114.53
-127.89
-144.71
-163.38
-180.73
-192.42
-194.05
-182.53
-157.26
-120.53
-76.94
-32.08
9.03
42.94
68.19
84.90
94.17
97.42
96.13
91.68
85.45
78.76
72.79
68.49
66.40
66.58
68.66
71.99
75.81
79.50
82.68
85.20
87.00
88.00
87.94
86.38
82.84
76.94
68.65
58.42
47.10
35.77
25.36
16.39
8.81
2.12
-4.45
-11.55
-19.54
-28.37
-37.67
-46.89
-55.47
-63.05
-69.57
-75.44
-81.52
-89.00
-99.17
-112.87
-129.94
-148.67
-165.81
-177.10
-178.42
-167.18
-143.26
-109.20
-69.47
-29.08
7.77
38.48
62.13
78.88
89.32
94.06
93.74
89.24
81.97
73.69
66.21
60.88
58.29
58.21
59.91
62.51
65.42
68.40
71.49
74.60
77.41
79.18
78.93
75.87
69.65
60.67
49.88
38.55
27.79
18.25
9.91
2.14
-5.94
-15.11
-25.65
-37.14
-48.63
-59.00
-67.41
-73.81
-78.92
-84.18
-91.23
-101.51
-115.63
-133.01
-151.59
-167.98
-178.13
-178.33
-166.36
-142.33
-108.73
-69.75
-30.04
6.43
37.08
60.76
77.35
87.38
91.68
91.31
87.59
81.99
75.97
70.75
67.15
65.46
65.51
66.78
68.68
70.72
72.77
74.89
77.15
79.22
80.32
79.30
75.20
67.77
57.67
46.32
35.23
25.42
16.94
9.01
0.52
-9.37
-20.78
-33.07
-45.12
-55.91
-64.91
-72.32
-79.04
-86.43
-95.95
-108.69
-124.84
-143.32
-161.55
-175.77
-181.87
-176.57
-158.58
-129.21
-92.01
-51.78
-13.14
20.49
47.40
67.38
81.09
89.59
93.95
95.20
94.38
92.54
90.56
89.14
88.61
89.00
90.06
91.38
92.54
93.29
93.56
93.47
93.23
92.82
91.98
90.11
86.51
80.63
72.35
62.07
50.63
39.10
28.42
19.14
11.19
3.95
-3.55
-12.22
-22.47
-33.94
-45.66
-56.43
-65.43
-72.59
-78.76
-85.38
-94.04
-106.04
-121.97
-141.34
-162.29
-181.57
-194.91
-198.07
-188.12
-164.64
-130.10
-89.26
-47.64
-9.95
20.99
44.48
61.39
73.24
81.50
87.19
91.02
93.47
95.01
96.02
96.85
97.68
98.55
99.48
100.45
101.50
102.73
104.18
105.72
106.94
107.13
105.42
101.14
94.10
84.84
74.41
64.08
54.76
46.72
39.49
32.28
24.44
15.89
7.14
-1.07
-8.20
-14.29
-19.97
-26.13
-33.46
-42.15
-51.88
-62.00
-71.84
-81.02
-89.52
-97.76
-106.56
-116.99
-130.14
-146.54
-165.51
-184.64
-199.98
-206.94
-201.77
-182.97
-152.06
-113.17
-71.75
-32.88
-0.00
25.60
44.42
57.95
67.81
75.26
81.11
85.87
89.91
93.54
96.94
100.14
102.95
105.15
106.54
107.21
107.43
107.60
108.00
108.63
109.00
108.35
105.85
100.98
93.77
84.92
75.51
66.72
59.22
52.98
47.29
41.25
34.17
26.03
17.45
9.32
2.32
-3.44
-8.45
-13.62
-19.86
-27.72
-37.17
-47.64
-58.25
-68.14
-76.81
-84.37
-91.48
-99.32
-109.17
-122.06
-138.17
-156.37
-173.92
-186.76
-190.52
-181.82
-159.75
-126.34
-86.13
-44.75
-7.06
23.97
47.54
64.38
75.80
82.95
86.67
87.75
87.15
86.05
85.53
86.22
88.10
90.56
92.78
94.16
94.54
94.27
93.89
93.83
94.10
94.20
93.32
90.66
85.81
78.99
70.94
62.68
55.06
48.47
42.68
37.08
30.98
24.00
16.31
8.51
1.35
-4.76
-9.96
-15.03
-21.00
-28.68
-38.21
-49.03
-60.06
-70.23
-78.91
-86.14
-92.63
-99.56
-108.35
-120.14
-135.30
-152.90
-170.34
-183.63
-188.33
-180.95
-160.30
-128.10
-88.51
-46.87
-8.09
24.45
49.35
66.81
77.91
83.96
86.11
85.36
82.71
79.25
76.12
74.28
74.26
75.94
78.67
81.53
83.79
85.19
85.99
86.64
87.45
88.25
88.43
87.19
83.86
78.27
70.80
62.27
53.65
45.80
39.16
33.66
28.79
23.85
18.28
11.84
4.73
-2.53
-9.40
-15.50
-20.84
-25.80
-31.01
-37.08
-44.40
-52.92
-62.22
-71.61
-80.48
-88.54
-95.97
-103.34
-111.53
-121.46
-133.87
-148.92
-165.85
-182.51
-195.52
-200.83
-194.96
-176.30
-145.86
-107.14
-65.13
-24.74
10.41
38.54
59.49
73.94
82.80
86.87
86.90
83.86
79.09
74.17
70.51
69.02
69.87
72.52
76.08
79.74
83.02
85.92
88.57
91.03
92.98
93.81
92.79
89.46
83.81
76.36
68.03
59.77
52.33
45.97
40.41
35.04
29.20
22.53
15.20
7.80
1.14
-4.25
-8.32
-11.63
-15.09
-19.68
-26.04
-34.29
-44.00
-54.37
-64.53
-73.75
-81.76
-88.82
-95.71
-103.63
-113.87
-127.36
-144.06
-162.39
-179.16
-190.07
-190.96
-179.22
-154.83
-120.53
-80.95
-41.12
-5.07
24.81
47.78
64.05
74.27
79.16
79.58
76.70
71.95
66.87
62.74
60.39
60.07
61.58
64.39
67.98
71.86
75.75
79.48
82.88
85.66
87.35
87.34
85.16
80.63
73.99
65.86
56.97
48.00
39.34
31.12
23.35
16.07
9.35
3.27
-2.22
-7.40
-12.78
-18.89
-26.11
-34.42
-43.41
-52.40
-60.77
-68.22
-75.01
-81.95
-90.18
-100.82
-114.39
-130.43
-147.07
-161.23
-169.22
-167.75
-155.02
-131.35
-99.32
-62.94
-26.66
5.94
32.62
52.74
66.62
75.10
78.96
78.95
75.92
70.93
65.29
60.36
57.15
56.20
57.42
60.28
64.02
67.93
71.45
74.25
76.19
77.11
76.83
75.07
71.54
66.06
58.78
50.14
40.87
31.77
23.42
16.01
9.33
2.90
-3.84
-11.25
-19.38
-27.83
-35.93
-42.97
-48.59
-53.01
-57.05
-61.93
-68.82
-78.56
-91.32
-106.42
-122.25
-136.33
-145.58
-147.03
-138.64
-120.10
-93.10
-61.01
-27.86
2.72
28.30
47.91
61.62
70.05
73.91
73.90
70.83
65.80
60.15
55.22
52.02
50.96
51.82
53.97
56.59
59.10
61.23
62.95
64.29
65.05
64.79
62.86
58.77
52.44
44.37
35.59
27.24
20.18
14.61
9.98
5.26
-0.54
-7.93
-16.69
-25.94
-34.60
-41.83
-47.45
-52.01
-56.63
-62.62
-71.15
-82.76
-96.99
-112.20
-125.67
-134.06
-134.37
-124.89
-105.87
-79.57
-49.53
-19.55
7.40
29.63
46.71
58.95
66.92
71.15
72.23
70.86
68.03
64.82
62.14
60.53
60.01
60.25
60.82
61.42
62.02
62.71
63.57
64.40
64.72
63.78
60.80
55.31
47.36
37.62
27.27
17.62
9.60
3.48
-1.27
-5.71
-10.92
-17.51
-25.36
-33.71
-41.65
-48.53
-54.33
-59.67
-65.51
-72.97
-82.82
-95.32
-109.80
-124.47
-136.52
-142.68
-140.14
-127.61
-105.91
-77.86
-47.37
-18.24
6.89
26.96
42.19
53.48
61.77
67.73
71.78
74.24
75.48
75.94
76.06
76.15
76.38
76.74
77.14
77.47
77.61
77.52
77.19
76.57
75.57
74.00
71.60
68.07
63.18
56.89
49.39
41.19
32.99
25.45
18.92
13.30
8.04
2.34
-4.47
-12.67
-21.95
-31.60
-40.78
-48.89
-55.87
-62.19
-68.78
-76.69
-86.88
-99.90
-115.62
-132.90
-149.54
-162.49
-168.49
-165.00
-151.13
-128.02
-98.61
-66.85
-36.45
-9.98
11.59
28.66
42.40
53.96
64.04
72.81
80.08
85.71
89.79
92.62
94.55
95.80
96.33
96.10
95.19
93.94
92.87
92.40
92.58
92.97
92.79
91.18
87.64
82.11
75.11
67.52
60.31
54.20
49.44
45.68
42.13
37.91
32.39
25.51
17.82
10.18
3.31
-2.52
-7.70
-12.99
-19.22
-26.82
-35.69
-45.22
-54.62
-63.25
-70.85
-77.58
-84.03
-91.03
-99.52
-110.30
-123.60
-138.67
-153.44
-164.73
-169.01
-163.58
-147.51
-122.30
-91.37
-59.05
-29.19
-4.21
15.20
29.73
40.67
49.30
56.46
62.56
67.79
72.35
76.38
80.09
83.48
86.40
88.61
89.92
90.34
90.17
89.81
89.61
89.63
89.60
89.02
87.38
84.41
80.16
74.95
69.22
63.39
57.73
52.35
47.20
42.20
37.27
32.38
27.52
22.67
17.74
12.64
7.34
1.90
-3.53
-8.79
-13.86
-18.93
-24.35
-30.50
-37.60
-45.55
-53.95
-62.26
-70.00
-76.92
-83.09
-88.92
-95.11
-102.55
-112.04
-123.95
-137.67
-151.37
-162.14
-166.68
-162.38
-148.28
-125.52
-97.03
-66.60
-37.77
-12.93
6.94
22.11
33.55
42.38
49.44
55.22
59.86
63.38
65.80
67.26
68.06
68.52
68.88
69.28
69.78
70.38
71.06
71.73
72.26
72.40
71.82
70.22
67.41
63.35
58.27
52.53
46.65
41.07
36.04
31.60
27.57
23.66
19.60
15.23
10.54
5.66
0.78
-3.82
-8.02
-11.85
-15.60
-19.78
-24.91
-31.32
-38.98
-47.45
-56.04
-64.07
-71.12
-77.13
-82.47
-87.84
-94.13
-102.26
-112.77
-125.45
-138.90
-150.59
-157.30
-156.06
-145.20
-125.02
-97.82
-67.14
-36.75
-9.57
12.78
29.97
42.46
51.04
56.47
59.44
60.59
60.60
60.17
59.86
60.10
61.04
62.68
64.83
67.22
69.54
71.54
73.11
74.25
75.07
75.52
75.35
74.06
71.17
66.46
60.16
52.96
45.71
39.12
33.45
28.55
24.02
19.41
14.51
9.33
4.08
-1.01
-5.74
-10.15
-14.52
-19.24
-24.79
-31.47
-39.29
-47.89
-56.70
-65.08
-72.61
-79.28
-85.48
-91.98
-99.69
-109.45
-121.63
-135.80
-150.46
-163.07
-170.49
-169.82
-159.29
-138.91
-110.54
-77.39
-43.17
-11.18
16.28
38.03
53.86
64.13
69.58
71.06
69.68
66.62
63.17
60.49
59.33
59.95
62.08
65.20
68.71
72.30
75.89
79.53
83.11
86.20
88.06
87.91
85.21
79.93
72.60
64.10
55.40
47.27
40.07
33.70
27.80
21.93
15.85
9.54
3.20
-2.91
-8.68
-14.26
-19.97
-26.20
-33.19
-40.88
-48.95
-56.95
-64.52
-71.60
-78.53
-86.01
-94.95
-106.20
-120.13
-136.25
-152.85
-167.16
-175.71
-175.32
-164.02
-141.84
-110.89
-74.84
-37.86
-3.64
25.42
48.24
64.88
75.94
82.26
84.61
83.79
80.72
76.54
72.51
69.75
68.95
70.15
72.91
76.47
80.21
83.78
87.05
89.92
92.09
93.01
92.06
88.89
83.54
76.43
68.18
59.35
50.34
41.45
32.95
25.15
18.32
12.48
7.33
2.31
-3.29
-10.01
-18.04
-27.20
-37.03
-46.96
-56.55
-65.63
-74.42
-83.60
-94.14
-107.07
-122.98
-141.45
-160.65
-177.34
-187.50
-187.38
-174.82
-150.00
-115.62
-76.07
-36.19
-0.05
29.85
52.74
69.05
79.84
86.22
89.16
89.49
88.06
85.74
83.46
81.93
81.57
82.46
84.41
87.14
90.42
94.06
97.83
101.38
104.11
105.34
104.52
101.39
96.16
89.32
81.48
73.12
64.49
55.58
46.32
36.73
27.01
17.48
8.42
-0.09
-8.29
-16.63
-25.56
-35.28
-45.63
-56.12
-66.19
-75.47
-83.98
-92.17
-100.91
-111.30
-124.41
-140.83
-160.15
-180.48
-198.43
-209.61
-209.87
-196.61
-169.81
-132.20
-88.42
-43.72
-2.55
32.21
59.46
79.42
93.04
101.54
106.05
107.67
107.43
106.31
105.14
104.58
104.84
105.82
107.13
108.38
109.35
110.11
110.95
112.12
113.53
114.62
114.47
112.18
107.26
99.87
90.78
81.02
71.43
62.38
53.70
44.98
35.91
26.50
17.15
8.33
0.35
-6.90
-13.99
-21.65
-30.52
-40.79
-52.19
-63.97
-75.31
-85.58
-94.64
-102.89
-111.30
-121.18
-133.81
-149.88
-168.84
-188.47
-204.86
-213.31
-209.60
-191.62
-160.21
-119.13
-73.88
-29.98
8.51
39.56
63.03
79.72
90.69
96.88
99.18
98.66
96.60
94.33
92.85
92.57
93.34
94.67
96.08
97.38
98.70
100.33
102.45
104.88
107.07
108.16
107.25
103.71
97.48
89.06
79.41
69.62
60.57
52.66
45.76
39.35
32.79
25.62
17.72
9.48
1.56
-5.35
-10.90
-15.36
-19.57
-24.72
-31.78
-41.10
-52.18
-63.84
-74.81
-84.23
-92.10
-99.27
-107.16
-117.33
-130.90
-147.95
-167.14
-185.56
-199.12
-203.42
-195.12
-173.09
-138.95
-96.76
-51.78
-9.19
27.25
55.57
75.52
87.93
94.16
95.64
93.74
89.84
85.31
81.47
79.34
79.38
81.40
84.57
87.87
90.51
92.28
93.49
94.64
95.91
96.94
96.86
94.69
89.91
82.67
73.78
64.35
55.33
47.22
40.01
33.28
26.55
19.50
12.12
4.70
-2.34
-8.65
-14.18
-19.31
-24.68
-31.01
-38.71
-47.72
-57.46
-67.09
-75.84
-83.36
-89.87
-96.15
-103.34
-112.70
-125.23
-141.23
-159.76
-178.37
-193.17
-199.68
-194.15
-174.93
-143.19
-102.72
-58.80
-16.60
20.05
49.21
70.58
84.86
93.05
96.12
95.05
90.98
85.27
79.37
74.57
71.69
71.06
72.47
75.48
79.56
84.29
89.31
94.19
98.38
101.16
101.87
100.08
95.77
89.33
81.36
72.44
63.01
53.31
43.48
33.66
24.05
14.85
6.20
-1.91
-9.60
-17.03
-24.37
-31.67
-38.95
-46.13
-53.16
-59.96
-66.51
-72.90
-79.39
-86.52
-95.14
-106.14
-120.04
-136.28
-152.82
-166.21
-172.28
-167.53
-150.30
-121.61
-84.92
-45.06
-6.80
26.35
52.67
71.97
84.85
92.05
94.21
91.91
86.09
78.16
69.92
63.10
58.88
57.61
58.79
61.48
64.69
67.74
70.37
72.55
74.23
75.15
74.77
72.47
67.82
60.78
51.82
41.76
31.56
21.98
13.40
5.73
-1.47
-8.74
-16.54
-25.01
-33.96
-42.93
-51.33
-58.72
-64.93
-70.20
-75.13
-80.60
-87.59
-96.98
-109.24
-124.06
-139.99
-154.39
-163.76
-164.67
-154.77
-133.72
-103.43
-67.56
-30.48
3.89
32.88
55.29
71.06
80.72
85.00
84.64
80.49
73.69
65.65
57.93
51.93
48.52
47.90
49.59
52.72
56.38
59.84
62.73
64.88
66.15
66.22
64.61
60.89
54.85
46.80
37.55
28.12
19.34
11.52
4.30
-3.06
-11.27
-20.54
-30.42
-39.93
-48.13
-54.53
-59.39
-63.64
-68.56
-75.45
-85.26
-98.32
-114.04
-130.68
-145.29
-154.22
-154.02
-142.59
-120.07
-88.99
-53.57
-18.36
12.91
38.12
56.74
69.30
76.75
80.04
80.04
77.64
73.85
69.77
66.39
64.36
63.90
64.75
66.49
68.67
71.02
73.42
75.81
77.94
79.31
79.24
77.01
72.19
64.76
55.26
44.68
34.23
24.99
17.52
11.64
6.43
0.62
-6.83
-16.28
-27.15
-38.29
-48.43
-56.84
-63.56
-69.40
-75.59
-83.46
-94.05
-107.76
-124.00
-140.84
-155.15
-163.05
-161.11
-147.49
-122.83
-90.17
-54.10
-19.28
10.82
34.51
51.77
63.56
71.08
75.38
77.26
77.49
76.90
76.30
76.35
77.37
79.24
81.55
83.78
85.46
86.39
86.52
86.02
85.07
83.79
82.09
79.71
76.27
71.41
64.99
57.15
48.35
39.23
30.43
22.42
15.40
9.24
3.48
-2.50
-9.24
-17.04
-25.74
-34.90
-43.89
-52.26
-59.87
-66.97
-74.04
-81.72
-90.71
-101.67
-115.08
-130.69
-147.12
-161.56
-170.30
-169.66
-157.42
-133.79
-101.53
-65.20
-29.67
1.21
25.52
43.16
55.29
63.45
68.94
72.59
74.88
76.21
77.05
77.92
79.24
81.12
83.29
85.30
86.68
87.30
87.40
87.37
87.51
87.66
87.28
85.63
82.12
76.69
69.73
62.04
54.36
47.18
40.53
34.04
27.31
20.09
12.51
5.04
-1.78
-7.71
-13.02
-18.37
-24.53
-31.89
-40.25
-48.86
-56.88
-63.82
-69.88
-75.83
-82.82
-91.94
-103.88
-118.65
-135.25
-151.55
-164.40
-170.23
-166.09
-150.72
-125.17
-92.69
-57.67
-24.41
4.06
26.38
42.69
53.93
61.27
65.67
67.92
68.73
68.80
68.78
69.19
70.26
71.94
73.95
75.97
77.79
79.43
81.06
82.79
84.48
85.59
85.40
83.21
78.73
72.26
64.61
56.80
49.62
43.43
38.05
33.01
27.77
22.08
15.94
9.62
3.45
-2.30
-7.57
-12.51
-17.49
-23.00
-29.46
-37.05
-45.58
-54.57
-63.35
-71.38
-78.51
-85.15
-92.21
-100.86
-112.09
-126.15
-142.04
-157.36
-168.66
-172.33
-165.76
-148.29
-121.48
-88.71
-54.06
-21.24
7.22
30.11
47.20
58.84
65.57
68.13
67.49
64.97
61.96
59.71
59.00
59.96
62.20
65.09
68.01
70.58
72.75
74.63
76.35
77.86
78.86
78.86
77.33
73.98
68.86
62.41
55.29
48.16
41.41
35.14
29.16
23.31
17.47
11.73
6.31
1.37
-3.11
-7.40
-12.00
-17.44
-24.10
-31.98
-40.64
-49.34
-57.27
-63.95
-69.40
-74.30
-79.81
-87.25
-97.70
-111.47
-127.68
-144.14
-157.53
-164.24
-161.26
-147.25
-123.03
-91.43
-56.47
-22.21
8.16
32.84
51.29
63.87
71.28
74.31
73.79
70.68
66.12
61.37
57.59
55.59
55.66
57.62
60.95
65.04
69.38
73.55
77.17
79.81
81.01
80.36
77.66
73.02
66.84
59.69
52.15
44.60
37.21
29.96
22.73
15.48
8.31
1.50
-4.70
-10.19
-15.18
-20.14
-25.69
-32.18
-39.64
-47.63
-55.54
-62.81
-69.27
-75.18
-81.20
-88.30
-97.47
-109.45
-124.18
-140.48
-155.83
-166.72
-169.55
-161.74
-142.70
-114.17
-79.70
-43.62
-9.78
19.22
42.20
59.11
70.43
76.76
78.71
76.95
72.45
66.54
60.74
56.55
55.05
56.59
60.81
66.79
73.39
79.53
84.50
87.92
89.68
89.76
88.21
84.95
79.99
73.38
65.35
56.26
46.57
36.77
27.26
18.36
10.18
2.66
-4.44
-11.42
-18.58
-26.03
-33.74
-41.49
-49.04
-56.25
-63.22
-70.30
-78.09
-87.36
-98.80
-112.85
-129.13
-146.14
-161.07
-170.25
-170.14
-158.49
-135.25
-102.77
-65.10
-26.77
8.43
38.10
61.32
78.16
89.13
94.84
95.92
93.21
87.90
81.52
75.64
71.65
70.29
71.55
74.71
78.67
82.40
85.28
87.19
88.31
88.81
88.51
86.91
83.35
77.40
69.08
58.94
47.91
36.92
26.66
17.34
8.76
0.44
-8.19
-17.54
-27.71
-38.41
-49.05
-58.93
-67.53
-74.74
-81.01
-87.27
-94.81
-104.95
-118.60
-135.77
-155.08
-173.52
-186.92
-190.90
-182.23
-160.04
-126.31
-85.40
-42.70
-3.10
30.19
55.99
74.74
87.57
95.68
99.92
100.93
99.42
96.38
92.98
90.29
88.99
89.14
90.37
92.07
93.77
95.21
96.35
97.16
97.47
96.99
95.31
92.08
87.17
80.62
72.70
63.76
54.20
44.42
34.83
25.73
17.31
9.56
2.19
-5.27
-13.39
-22.48
-32.50
-42.96
-53.14
-62.33
-70.25
-77.17
-83.91
-91.68
-101.81
-115.42
-132.91
-153.47
-174.71
-192.66
-202.64
-200.56
-184.34
-154.81
-115.59
-72.03
-29.57
7.59
37.21
58.97
73.76
83.07
88.36
90.95
91.84
91.89
91.69
91.68
92.06
92.81
93.82
94.92
96.00
97.12
98.36
99.80
101.25
102.22
101.94
99.68
94.94
87.79
78.84
69.01
59.23
50.03
41.53
33.42
25.36
17.18
9.05
1.30
-5.86
-12.61
-19.47
-27.12
-36.00
-46.02
-56.61
-66.89
-76.13
-84.05
-91.01
-98.02
-106.43
-117.59
-132.35
-150.55
-170.56
-189.26
-202.49
-206.06
-197.04
-174.85
-141.55
-101.31
-59.21
-19.86
13.64
39.97
59.27
72.46
80.70
85.02
86.39
85.78
84.25
82.82
82.19
82.67
84.11
86.18
88.58
91.28
94.38
97.94
101.73
105.07
107.00
106.59
103.33
97.36
89.38
80.40
71.31
62.59
54.22
45.87
37.21
28.21
19.20
10.74
3.26
-3.24
-9.29
-15.73
-23.31
-32.38
-42.69
-53.51
-63.95
-73.36
-81.56
-88.90
-96.25
-104.78
-115.65
-129.61
-146.38
-164.17
-179.66
-188.59
-186.95
-172.39
-145.21
-108.43
-66.88
-25.74
10.91
40.75
63.21
78.81
88.47
93.13
93.73
91.42
87.62
83.77
81.06
80.09
80.80
82.70
85.12
87.65
90.07
92.41
94.63
96.47
97.47
97.03
94.68
90.26
83.98
76.33
67.83
58.92
49.88
40.79
31.75
22.93
14.66
7.28
0.98
-4.39
-9.32
-14.53
-20.69
-28.13
-36.76
-46.06
-55.35
-64.02
-71.76
-78.70
-85.52
-93.25
-103.12
-116.02
-132.01
-149.75
-166.38
-177.93
-180.37
-170.92
-149.07
-116.86
-78.42
-38.65
-1.92
28.87
52.53
69.21
79.75
85.16
86.34
84.23
79.93
74.76
70.04
66.84
65.67
66.43
68.60
71.46
74.44
77.14
79.38
81.00
81.84
81.65
80.20
77.33
72.97
67.12
59.86
51.37
41.97
32.19
22.67
14.07
6.79
0.82
-4.21
-8.96
-14.09
-20.03
-26.83
-34.16
-41.48
-48.31
-54.43
-59.98
-65.37
-71.23
-78.31
-87.36
-98.98
-113.21
-129.10
-144.37
-155.59
-159.03
-151.78
-132.97
-104.18
-69.13
-32.42
1.76
30.65
53.18
69.46
80.15
85.88
87.15
84.53
79.01
72.06
65.35
60.30
57.69
57.47
59.04
61.53
64.27
66.87
69.19
71.17
72.69
73.44
73.02
70.98
66.96
60.87
52.90
43.59
33.82
24.51
16.35
9.53
3.71
-1.82
-7.79
-14.73
-22.73
-31.43
-40.15
-48.21
-55.09
-60.73
-65.55
-70.43
-76.43
-84.61
-95.58
-109.20
-124.29
-138.48
-148.55
-151.17
-143.87
-125.99
-99.01
-66.28
-31.94
0.17
27.41
48.49
63.24
72.06
75.55
74.47
69.78
62.86
55.31
48.80
44.60
43.31
44.81
48.32
52.73
56.96
60.29
62.38
63.31
63.23
62.23
60.18
56.90
52.21
46.15
38.91
30.86
22.47
14.27
6.71
0.08
-5.73
-11.22
-17.10
-23.96
-31.89
-40.30
-48.19
-54.65
-59.36
-62.82
-66.19
-70.95
-78.36
-89.16
-103.18
-119.11
-134.49
-145.95
-150.01
-144.12
-127.56
-101.80
-70.10
-36.46
-4.52
23.16
45.31
61.60
72.21
77.57
78.30
75.30
69.86
63.47
57.65
53.56
51.79
52.26
54.33
57.11
59.79
61.94
63.49
64.62
65.37
65.46
64.27
61.09
55.55
47.82
38.72
29.38
20.83
13.67
7.73
2.33
-3.49
-10.44
-18.71
-27.86
-37.06
-45.42
-52.37
-57.88
-62.44
-66.96
-72.57
-80.41
-91.29
-105.25
-121.25
-136.87
-148.66
-152.97
-147.07
-130.18
-103.86
-71.54
-37.51
-5.67
21.36
42.52
57.96
68.47
74.92
77.97
78.16
76.15
72.81
69.21
66.34
64.79
64.61
65.36
66.40
67.23
67.71
68.08
68.65
69.53
70.36
70.38
68.68
64.59
58.01
49.53
40.22
31.24
23.40
16.82
10.95
4.87
-2.28
-10.87
-20.62
-30.78
-40.39
-48.74
-55.61
-61.38
-66.95
-73.52
-82.28
-94.03
-108.71
-125.05
-140.47
-151.48
-154.53
-147.15
-128.84
-101.33
-68.18
-33.73
-1.88
24.77
45.21
59.76
69.39
75.16
77.89
78.17
76.57
73.83
70.91
68.72
67.90
68.61
70.47
72.85
75.06
76.61
77.34
77.28
76.56
75.26
73.39
70.74
67.03
61.92
55.25
47.14
38.09
28.85
20.14
12.38
5.55
-0.84
-7.43
-14.75
-22.94
-31.75
-40.62
-48.98
-56.49
-63.23
-69.68
-76.58
-84.83
-95.21
-108.27
-123.89
-140.97
-157.10
-168.86
-172.62
-165.68
-147.40
-119.55
-85.87
-50.81
-18.24
9.46
31.53
48.35
60.73
69.41
74.99
78.02
79.18
79.23
78.97
79.01
79.72
81.17
83.16
85.36
87.34
88.75
89.35
89.05
87.84
85.73
82.71
78.76
73.90
68.22
61.86
54.98
47.75
40.31
32.85
25.54
18.55
11.95
5.68
-0.54
-7.10
-14.38
-22.60
-31.67
-41.13
-50.35
-58.70
-65.97
-72.42
-78.89
-86.53
-96.42
-109.19
-124.49
-140.84
-155.59
-165.38
-166.95
-158.08
-138.44
-109.90
-76.02
-41.12
-9.02
17.81
38.54
53.63
64.14
71.17
75.46
77.54
77.91
77.24
76.31
75.85
76.23
77.47
79.25
81.21
83.07
84.77
86.35
87.69
88.47
88.12
86.04
81.89
75.81
68.39
60.50
52.95
46.23
40.32
34.82
29.12
22.75
15.68
8.27
1.14
-5.15
-10.45
-15.13
-19.95
-25.73
-32.90
-41.32
-50.30
-58.94
-66.56
-73.07
-79.07
-85.70
-94.25
-105.73
-120.28
-136.82
-152.92
-165.13
-169.86
-164.35
-147.74
-121.35
-88.37
-52.88
-18.69
11.43
36.03
54.71
67.69
75.45
78.66
78.24
75.36
71.43
67.83
65.61
65.36
67.07
70.25
74.12
77.90
81.04
83.31
84.72
85.39
85.25
84.02
81.27
76.71
70.40
62.89
55.05
47.75
41.51
36.27
31.47
26.31
20.21
13.11
5.49
-1.81
-7.99
-12.70
-16.25
-19.56
-23.76
-29.73
-37.74
-47.35
-57.58
-67.37
-75.92
-83.04
-89.20
-95.38
-102.91
-112.98
-126.18
-141.97
-158.40
-172.20
-179.48
-176.81
-162.40
-136.72
-102.52
-64.03
-25.84
8.31
36.13
56.87
70.87
79.05
82.43
81.98
78.74
73.92
68.91
65.05
63.26
63.80
66.21
69.69
73.43
77.01
80.35
83.51
86.35
88.46
89.20
87.96
84.47
78.95
71.97
64.31
56.66
49.44
42.72
36.34
29.98
23.42
16.68
10.00
3.80
-1.54
-5.97
-9.81
-13.69
-18.34
-24.31
-31.68
-40.06
-48.64
-56.61
-63.46
-69.35
-75.12
-82.11
-91.73
-104.79
-120.94
-138.33
-153.76
-163.40
-163.76
-152.90
-130.98
-100.32
-64.69
-28.33
5.18
33.41
55.30
70.77
80.34
84.66
84.50
80.73
74.43
66.91
59.51
53.43
49.43
47.73
48.11
50.03
52.96
56.39
60.00
63.45
66.28
67.93
67.81
65.52
61.00
54.54
46.73
38.20
29.51
21.06
13.07
5.66
-1.16
-7.46
-13.47
-19.52
-25.96
-33.02
-40.66
-48.60
-56.36
-63.47
-69.66
-74.99
-79.94
-85.34
-92.32
-101.93
-114.69
-130.13
-146.26
-159.82
-166.86
-163.93
-149.23
-123.36
-89.26
-51.31
-14.05
18.98
45.77
65.77
79.29
86.97
89.45
87.41
81.81
74.06
65.90
59.07
54.90
53.90
55.79
59.69
64.49
69.31
73.56
77.04
79.69
81.43
82.02
81.04
78.09
72.89
65.49
56.30
46.04
35.58
25.72
16.94
9.28
2.36
-4.50
-11.97
-20.41
-29.73
-39.44
-48.82
-57.30
-64.67
-71.24
-77.75
-85.23
-94.76
-107.23
-122.85
-140.71
-158.51
-172.69
-179.17
-174.62
-157.59
-129.22
-92.94
-53.43
-15.21
18.33
45.41
65.57
79.13
86.77
89.32
87.80
83.54
78.09
73.00
69.55
68.47
69.83
73.12
77.51
82.07
86.05
89.04
90.93
91.80
91.65
90.36
87.71
83.50
77.68
70.43
62.11
53.12
43.82
34.50
25.40
16.71
8.54
0.77
-6.92
-14.95
-23.69
-33.24
-43.33
-53.36
-62.72
-71.02
-78.33
-85.28
-92.93
-102.53
-115.05
-130.76
-148.72
-166.63
-180.94
-187.67
-183.48
-166.75
-138.34
-101.40
-60.55
-20.57
14.81
43.51
64.96
79.66
88.53
92.53
92.69
90.15
86.24
82.31
79.53
78.57
79.60
82.32
86.18
90.49
94.62
98.03
100.29
101.12
100.39
98.04
94.09
88.61
81.76
73.77
64.96
55.67
46.29
37.12
28.41
20.32
12.82
5.66
-1.56
-9.27
-17.74
-26.88
-36.29
-45.37
-53.60
-60.79
-67.16
-73.34
-80.21
-88.80
-100.07
-114.54
-131.82
-150.13
-166.25
-176.12
-175.88
-163.19
-138.17
-103.51
-63.66
-23.57
12.63
42.37
64.80
80.29
89.86
94.65
95.76
94.17
90.85
86.77
82.88
79.93
78.41
78.39
79.58
81.44
83.45
85.26
86.76
88.01
88.95
89.25
88.28
85.29
79.85
72.14
63.02
53.79
45.72
39.45
34.84
30.99
26.78
21.41
14.73
7.36
0.23
-5.85
-10.65
-14.59
-18.58
-23.51
-29.84
-37.48
-45.79
-54.02
-61.61
-68.46
-74.93
-81.78
-89.95
-100.32
-113.40
-128.97
-145.65
-160.76
-170.73
-171.90
-161.81
-140.11
-108.97
-72.41
-35.16
-1.30
26.64
47.81
62.57
71.84
76.49
77.32
75.09
70.87
66.01
61.98
60.01
60.68
63.76
68.39
73.47
78.13
81.93
84.89
87.11
88.49
88.62
86.85
82.77
76.45
68.55
60.18
52.46
46.08
41.16
37.14
33.14
28.31
22.20
14.95
7.25
0.00
-6.04
-10.60
-14.08
-17.38
-21.55
-27.37
-35.06
-44.16
-53.77
-62.90
-70.82
-77.40
-83.15
-89.12
-96.65
-106.91
-120.34
-136.18
-152.26
-165.22
-171.26
-167.17
-151.41
-124.69
-89.91
-51.39
-13.74
19.25
45.31
63.71
74.94
80.17
80.71
77.88
72.96
67.26
62.08
58.53
57.30
58.43
61.44
65.46
69.67
73.52
76.81
79.56
81.79
83.32
83.77
82.68
79.70
74.88
68.55
61.39
54.08
47.21
41.09
35.78
31.21
27.11
23.24
19.26
14.91
9.98
4.48
-1.41
-7.30
-12.81
-17.72
-22.13
-26.45
-31.26
-37.11
-44.30
-52.71
-61.87
-71.09
-79.71
-87.40
-94.27
-100.93
-108.38
-117.73
-129.71
-144.21
-159.78
-173.60
-181.92
-181.14
-169.02
-145.52
-113.04
-75.66
-37.93
-3.64
24.89
46.84
62.37
72.06
76.59
76.72
73.46
68.18
62.41
57.62
54.80
54.34
56.02
59.21
63.16
67.24
71.12
74.64
77.71
80.08
81.29
80.79
78.16
73.39
66.96
59.65
52.24
45.18
38.49
31.87
24.97
17.65
10.09
2.78
-3.80
-9.30
-13.78
-17.68
-21.74
-26.65
-32.87
-40.35
-48.63
-57.05
-65.04
-72.43
-79.50
-86.95
-95.66
-106.43
-119.59
-134.58
-149.60
-161.72
-167.39
-163.54
-148.68
-123.59
-91.10
-55.26
-20.09
11.31
37.12
56.64
69.80
76.89
78.51
75.66
69.77
62.54
55.59
50.22
47.13
46.49
48.01
51.20
55.43
60.10
64.74
68.97
72.51
75.09
76.36
76.00
73.78
69.65
63.80
56.64
48.65
40.30
31.89
23.58
15.52
7.88
0.91
-5.16
-10.32
-14.84
-19.34
-24.56
-31.09
-39.06
-48.10
-57.42
-66.21
-73.98
-80.80
-87.43
-95.07
-105.02
-118.11
-134.12
-151.36
-166.69
-176.16
-176.07
-164.18
-140.57
-107.70
-69.69
-31.10
4.22
33.83
56.73
72.97
83.08
87.79
87.85
84.25
78.31
71.55
65.58
61.70
60.59
62.24
66.01
70.98
76.23
81.12
85.29
88.60
90.93
92.08
91.75
89.61
85.41
79.03
70.62
60.57
49.57
38.46
28.07
18.97
11.32
4.77
-1.32
-7.64
-14.63
-22.29
-30.27
-38.05
-45.23
-51.72
-57.76
-63.93
-71.08
-80.17
-91.95
-106.55
-123.01
-138.98
-151.05
-155.46
-149.35
-131.73
-103.97
-69.46
-32.58
2.49
32.74
56.63
73.89
85.05
91.01
92.75
91.39
88.09
84.07
80.41
77.93
77.03
77.75
79.78
82.67
85.91
89.05
91.70
93.61
94.57
94.36
92.78
89.63
84.88
78.71
71.55
63.92
56.29
48.88
41.65
34.46
27.19
19.89
12.74
5.98
-0.37
-6.46
-12.66
-19.38
-26.84
-34.98
-43.51
-52.03
-60.26
-68.27
-76.51
-85.83
-97.14
-110.99
-127.03
-143.60
-157.76
-165.88
-164.66
-152.34
-129.40
-98.56
-63.97
-29.97
0.04
24.23
42.26
54.79
62.82
67.42
69.47
69.82
69.36
68.92
69.21
70.62
73.08
76.19
79.30
81.87
83.62
84.61
85.15
85.47
85.49
84.77
82.71
78.86
73.25
66.41
59.20
52.35
46.18
40.48
34.72
28.38
21.26
13.66
6.17
-0.58
-6.28
-11.12
-15.67
-20.66
-26.61
-33.61
-41.34
-49.24
-56.79
-63.68
-70.01
-76.28
-83.28
-91.97
-103.12
-116.86
-132.12
-146.53
-156.69
-159.05
-151.22
-132.80
-105.78
-73.88
-41.43
-12.11
11.79
29.54
41.61
49.08
53.17
54.99
55.52
55.57
55.76
56.53
58.07
60.37
63.21
66.26
69.15
71.60
73.50
74.90
75.93
76.64
76.86
76.19
74.13
70.32
64.74
57.84
50.38
43.19
36.79
31.28
26.29
21.26
15.79
9.79
3.54
-2.46
-7.80
-12.41
-16.59
-20.95
-26.11
-32.46
-40.00
-48.30
-56.68
-64.43
-71.12
-76.88
-82.43
-88.91
-97.47
-108.83
-122.77
-137.89
-151.67
-160.93
-162.64
-154.78
-137.00
-110.83
-79.33
-46.34
-15.50
10.49
30.32
43.98
52.45
57.11
59.28
59.99
59.91
59.53
59.27
59.57
60.79
63.10
66.27
69.81
73.10
75.67
77.30
78.05
78.13
77.68
76.70
75.02
72.40
68.69
63.87
58.23
52.28
46.59
41.61
37.46
33.83
30.18
25.97
20.89
15.07
8.98
3.20
-1.84
-6.08
-9.83
-13.68
-18.27
-24.05
-31.10
-39.13
-47.59
-55.88
-63.52
-70.38
-76.69
-83.00
-90.13
-98.93
-110.09
-123.65
-138.62
-152.71
-162.70
-165.17
-157.68
-139.69
-112.87
-80.67
-47.20
-16.08
10.38
31.24
46.61
57.03
63.16
65.65
65.32
63.22
60.58
58.59
58.08
59.36
62.19
65.96
70.01
73.82
77.12
79.84
82.03
83.67
84.63
84.64
83.34
80.41
75.73
69.51
62.25
54.71
47.59
41.37
36.10
31.43
26.83
21.84
16.37
10.67
5.25
0.54
-3.34
-6.71
-10.22
-14.58
-20.33
-27.58
-36.02
-45.06
-54.01
-62.38
-69.98
-77.00
-83.98
-91.76
-101.24
-113.11
-127.36
-142.89
-157.35
-167.46
-169.84
-162.14
-143.87
-116.67
-83.86
-49.39
-16.82
11.33
33.80
50.25
60.88
66.26
67.22
64.92
60.73
56.16
52.51
50.69
51.06
53.44
57.23
61.70
66.14
70.15
73.57
76.48
78.93
80.73
81.43
80.45
77.36
72.11
65.17
57.40
49.74
42.90
37.04
31.86
26.80
21.36
15.46
9.44
3.87
-0.82
-4.63
-8.05
-11.91
-16.97
-23.62
-31.70
-40.57
-49.39
-57.41
-64.26
-70.09
-75.56
-81.74
-89.81
-100.71
-114.65
-130.73
-146.75
-159.41
-165.16
-161.08
-145.94
-120.70
-88.34
-53.05
-18.99
10.69
34.41
51.90
63.73
70.58
73.04
71.64
67.17
60.92
54.54
49.71
47.58
48.43
51.75
56.47
61.51
66.12
70.00
73.14
75.55
77.03
77.15
75.35
71.28
64.96
56.84
47.69
38.36
29.59
21.76
14.95
8.82
2.83
-3.62
-10.96
-19.25
-28.08
-36.74
-44.50
-50.95
-56.25
-61.08
-66.47
-73.50
-83.06
-95.54
-110.58
-126.73
-141.45
-151.40
-153.30
-144.92
-125.96
-98.32
-65.51
-31.65
-0.22
26.56
47.88
63.77
74.61
80.66
82.20
79.78
74.52
68.08
62.28
58.55
57.49
58.75
61.38
64.40
67.25
69.87
72.46
75.02
77.13
77.91
76.41
72.00
64.66
55.09
44.35
33.61
23.73
15.08
7.50
0.39
-6.96
-15.11
-24.15
-33.68
-42.92
-51.12
-57.88
-63.46
-68.80
-75.26
-84.21
-96.54
-112.17
-129.68
-146.34
-158.52
-162.57
-155.90
-137.90
-110.19
-76.26
-40.38
-6.45
22.84
46.26
63.76
75.87
83.31
86.82
87.20
85.47
82.80
80.33
78.92
78.92
80.23
82.37
84.70
86.68
87.97
88.53
88.52
88.14
87.42
86.06
83.50
79.07
72.39
63.57
53.27
42.48
32.16
22.85
14.57
6.85
-0.98
-9.41
-18.53
-28.02
-37.25
-45.57
-52.62
-58.56
-64.13
-70.51
-78.99
-90.62
-105.63
-123.15
-141.01
-155.92
-164.17
-162.62
-149.70
-126.08
-94.59
-59.40
-24.83
5.75
30.57
49.33
62.69
71.63
77.09
79.83
80.53
79.94
78.84
77.96
77.79
78.52
79.98
81.75
83.41
84.58
85.12
85.08
84.60
83.71
82.25
79.85
76.04
70.42
62.96
53.99
44.27
34.75
26.26
19.26
13.63
8.65
3.31
-3.30
-11.55
-21.13
-31.14
-40.56
-48.64
-55.19
-60.67
-65.86
-71.85
-79.68
-90.28
-103.98
-120.21
-137.08
-151.43
-159.51
-158.02
-145.30
-121.97
-90.85
-56.06
-21.93
8.16
32.35
50.24
62.51
70.31
74.78
76.85
77.26
76.65
75.67
74.95
74.82
75.31
76.09
76.73
76.97
76.86
76.72
76.83
77.27
77.67
77.46
75.95
72.66
67.33
60.04
51.19
41.46
31.77
23.02
15.88
10.46
6.30
2.50
-1.87
-7.56
-14.81
-23.33
-32.48
-41.50
-49.73
-56.85
-62.91
-68.40
-74.16
-81.24
-90.65
-103.06
-118.15
-134.29
-148.51
-157.04
-156.39
-144.61
-122.08
-91.53
-57.21
-23.59
5.86
29.26
46.34
57.83
64.87
68.54
69.75
69.25
67.83
66.27
65.34
65.56
67.09
69.62
72.52
75.13
76.96
77.87
78.03
77.63
76.73
75.20
72.77
69.21
64.54
58.91
52.60
45.93
39.08
32.20
25.37
18.72
12.37
6.42
0.93
-4.21
-9.26
-14.69
-20.94
-28.29
-36.64
-45.49
-54.09
-61.84
-68.61
-74.91
-81.80
-90.53
-102.02
-116.30
-132.21
-147.28
-158.18
-161.49
-154.69
-137.06
-110.01
-76.82
-41.69
-8.58
19.65
41.63
57.26
67.17
72.30
73.63
72.17
69.01
65.32
62.20
60.45
60.44
62.11
64.99
68.49
72.01
75.15
77.67
79.47
80.45
80.47
79.25
76.54
72.23
66.37
59.26
51.29
42.86
34.32
26.04
18.37
11.65
5.99
1.20
-3.29
-8.23
-14.19
-21.37
-29.42
-37.67
-45.42
-52.30
-58.39
-64.26
-70.70
-78.61
-88.66
-101.12
-115.45
-130.13
-142.64
-149.82
-148.77
-137.78
-117.01
-88.56
-55.96
-23.08
6.88
31.89
51.19
64.73
72.86
75.96
74.67
69.96
63.35
56.61
51.32
48.48
48.31
50.28
53.54
57.25
60.79
63.81
66.13
67.58
67.97
67.07
64.70
60.71
55.11
48.04
39.79
30.85
21.82
13.38
6.03
-0.04
-5.05
-9.58
-14.37
-20.07
-26.93
-34.79
-43.09
-51.21
-58.73
-65.56
-72.03
-78.78
-86.60
-96.24
-108.14
-122.10
-136.92
-150.26
-159.03
-160.11
-151.40
-132.62
-105.55
-73.50
-40.31
-9.26
17.49
39.01
55.15
66.17
72.35
74.06
71.97
67.13
61.04
55.30
51.35
50.05
51.45
54.90
59.33
63.66
67.15
69.52
70.82
71.16
70.47
68.39
64.45
58.34
50.16
40.52
30.42
20.91
12.68
5.81
-0.31
-6.59
-13.90
-22.53
-32.08
-41.61
-50.09
-56.87
-62.01
-66.23
-70.65
-76.48
-84.76
-96.04
-110.13
-125.90
-141.05
-152.43
-156.67
-151.15
-134.87
-108.89
-76.08
-40.36
-5.63
25.06
50.02
68.74
81.56
89.15
92.24
91.56
87.97
82.58
76.75
71.82
68.82
68.15
69.52
72.15
75.13
77.73
79.61
80.76
81.26
81.03
79.75
76.79
71.52
63.62
53.37
41.68
29.87
19.19
10.32
3.13
-3.24
-9.93
-17.87
-27.37
-38.11
-49.27
-59.98
-69.61
-77.97
-85.31
-92.31
-99.93
-109.33
-121.57
-137.15
-155.44
-174.24
-189.88
-197.94
-194.57
-177.85
-148.59
-110.23
-67.78
-26.36
10.17
39.77
62.12
77.96
88.46
94.71
97.66
98.26
97.49
96.34
95.69
96.07
97.57
99.80
102.06
103.60
103.93
103.00
101.20
99.06
96.95
94.76
91.94
87.73
81.47
72.94
62.42
50.63
38.52
26.99
16.67
7.78
0.05
-7.18
-14.74
-23.32
-33.11
-43.77
-54.61
-64.90
-74.24
-82.70
-90.87
-99.60
-109.89
-122.64
-138.23
-156.03
-174.04
-188.82
-196.25
-192.66
-176.09
-147.12
-108.86
-66.04
-23.68
14.16
45.11
68.50
84.87
95.34
101.05
103.04
102.29
99.88
97.01
94.84
94.17
95.25
97.69
100.67
103.38
105.28
106.15
106.02
105.04
103.23
100.49
96.69
91.68
85.35
77.66
68.66
58.55
47.70
36.59
25.75
15.58
6.23
-2.45
-10.80
-19.20
-27.91
-36.89
-45.91
-54.59
-62.69
-70.30
-77.82
-85.94
-95.48
-107.23
-121.80
-139.24
-158.63
-177.75
-193.04
-200.28
-195.80
-177.81
-147.24
-107.65
-64.13
-21.88
15.18
45.02
67.26
82.60
92.07
96.64
97.27
94.97
90.97
86.65
83.29
81.77
82.42
84.88
88.33
91.78
94.43
95.87
96.11
95.36
93.84
91.54
88.20
83.51
77.23
69.38
60.21
50.16
39.75
29.51
19.87
11.14
3.40
-3.51
-10.04
-16.78
-24.23
-32.59
-41.63
-50.82
-59.55
-67.46
-74.63
-81.68
-89.61
-99.58
-112.57
-128.93
-147.84
-166.97
-182.60
-190.34
-186.41
-168.96
-138.93
-99.91
-57.07
-15.62
20.49
49.16
69.97
83.49
90.68
92.56
90.32
85.39
79.51
74.36
71.24
70.77
72.85
76.81
81.74
86.75
91.14
94.42
96.35
96.77
95.64
92.90
88.54
82.58
75.12
66.38
56.72
46.65
36.72
27.44
19.12
11.83
5.34
-0.83
-7.21
-14.28
-22.18
-30.73
-39.43
-47.71
-55.12
-61.61
-67.50
-73.46
-80.43
-89.42
-101.35
-116.57
-134.41
-152.74
-168.00
-175.96
-172.96
-157.20
-129.58
-93.47
-53.58
-14.55
20.18
48.84
70.94
86.59
96.04
99.51
97.46
90.93
81.65
71.86
63.77
58.93
57.93
60.28
64.86
70.29
75.52
80.01
83.58
86.19
87.60
87.33
84.79
79.60
71.81
61.95
50.91
39.68
29.06
19.49
11.05
3.41
-3.94
-11.56
-19.81
-28.73
-38.03
-47.19
-55.67
-63.11
-69.53
-75.34
-81.30
-88.42
-97.72
-109.96
-125.14
-142.14
-158.41
-170.28
-173.84
-166.11
-146.26
-115.98
-79.14
-40.49
-4.40
26.21
50.07
67.21
78.28
84.01
85.10
82.35
76.96
70.46
64.53
60.55
59.28
60.67
64.02
68.35
72.77
76.74
80.09
82.79
84.68
85.25
83.73
79.37
71.87
61.56
49.49
36.99
25.29
15.04
6.16
-1.99
-10.27
-19.27
-29.02
-38.92
-48.06
-55.64
-61.46
-66.02
-70.50
-76.41
-85.12
-97.48
-113.40
-131.60
-149.59
-163.87
-170.64
-166.82
-150.97
-123.94
-88.75
-49.72
-11.29
23.00
51.02
71.92
85.66
92.62
93.49
89.34
81.74
72.68
64.19
57.86
54.51
54.11
56.04
59.40
63.46
67.68
71.72
75.22
77.64
78.25
76.33
71.40
63.49
53.24
41.70
30.06
19.18
9.38
0.36
-8.55
-17.97
-28.19
-38.99
-49.72
-59.63
-68.17
-75.28
-81.54
-88.14
-96.54
-108.11
-123.41
-141.63
-160.26
-175.38
-182.58
-178.29
-160.98
-131.81
-94.26
-53.07
-12.92
22.74
52.01
74.41
90.29
100.32
105.29
106.07
103.81
99.94
95.97
93.17
92.24
93.11
95.10
97.26
98.82
99.45
99.30
98.73
97.94
96.68
94.26
89.78
82.62
72.76
60.89
48.18
35.83
24.58
14.52
5.10
-4.54
-15.04
-26.56
-38.68
-50.61
-61.53
-70.96
-78.95
-86.08
-93.43
-102.26
-113.82
-128.93
-147.39
-167.52
-186.11
-198.84
-201.48
-191.16
-167.52
-132.92
-91.81
-49.37
-10.08
23.21
49.44
68.93
82.62
91.57
96.71
98.88
99.04
98.25
97.60
97.92
99.56
102.30
105.48
108.32
110.18
110.81
110.36
109.20
107.63
105.68
103.01
99.01
93.07
84.89
74.65
63.08
51.24
40.15
30.51
22.41
15.32
8.35
0.58
-8.57
-19.11
-30.48
-41.78
-52.15
-61.14
-68.92
-76.19
-84.04
-93.64
-106.00
-121.54
-139.77
-158.81
-175.38
-185.30
-184.55
-170.72
-144.04
-107.60
-66.44
-25.95
9.62
38.07
59.18
73.91
83.55
89.18
91.63
91.71
90.44
88.94
88.22
88.81
90.67
93.24
95.84
97.92
99.22
99.78
99.71
99.10
97.85
95.72
92.40
87.66
81.37
73.57
64.49
54.55
44.32
34.46
25.49
17.62
10.67
4.12
-2.70
-10.33
-19.00
-28.58
-38.61
-48.58
-57.97
-66.48
-74.13
-81.20
-88.36
-96.57
-106.88
-119.99
-135.74
-152.59
-167.65
-177.12
-177.44
-166.40
-144.05
-112.72
-76.36
-39.46
-5.75
22.39
44.05
59.43
69.29
74.58
76.28
75.45
73.25
70.90
69.39
69.35
70.86
73.55
76.74
79.83
82.40
84.38
85.89
86.97
87.46
86.92
84.82
80.79
74.85
67.45
59.24
50.82
42.54
34.47
26.52
18.71
11.29
4.64
-0.89
-5.28
-8.98
-12.76
-17.57
-24.06
-32.39
-42.16
-52.52
-62.47
-71.26
-78.65
-85.06
-91.40
-98.92
-108.79
-121.57
-136.79
-152.61
-165.94
-173.07
-170.66
-156.93
-132.33
-99.60
-62.93
-26.80
5.18
30.99
50.11
63.11
70.99
74.74
75.28
73.48
70.32
66.86
64.08
62.70
63.01
64.82
67.59
70.65
73.41
75.54
76.96
77.73
77.82
76.96
74.72
70.62
64.54
56.76
48.06
39.41
31.61
25.07
19.71
15.21
11.12
7.10
2.88
-1.86
-7.48
-14.32
-22.49
-31.76
-41.57
-51.19
-60.02
-67.85
-74.95
-82.08
-90.27
-100.46
-113.11
-127.72
-142.50
-154.56
-160.45
-157.23
-143.49
-119.93
-89.23
-55.24
-21.82
8.06
32.68
51.42
64.28
71.50
73.41
70.72
64.59
56.68
48.92
43.07
40.29
40.97
44.68
50.40
56.93
63.14
68.25
71.86
73.93
74.49
73.62
71.26
67.31
61.69
54.47
45.85
36.27
26.30
16.61
7.80
0.32
-5.72
-10.61
-15.01
-19.67
-25.18
-31.74
-39.10
-46.74
-54.17
-61.15
-67.86
-74.78
-82.61
-92.05
-103.64
-117.37
-132.38
-146.67
-157.27
-160.80
-154.53
-137.46
-110.77
-77.64
-42.22
-8.41
21.00
44.63
62.17
73.86
80.05
81.22
78.18
72.21
65.02
58.40
53.77
51.85
52.55
55.21
58.94
62.93
66.67
69.89
72.46
74.20
74.74
73.62
70.34
64.64
56.63
46.88
36.37
26.14
17.01
9.21
2.37
-4.34
-11.70
-20.00
-28.94
-37.70
-45.43
-51.64
-56.51
-60.81
-65.73
-72.57
-82.37
-95.62
-111.85
-129.36
-145.21
-155.73
-157.45
-148.24
-128.04
-98.98
-64.77
-29.54
3.18
31.08
53.07
69.03
79.29
84.40
85.04
82.16
77.02
71.10
65.84
62.34
61.11
61.98
64.30
67.27
70.24
72.86
75.05
76.80
77.85
77.68
75.57
70.88
63.38
53.44
42.02
30.30
19.28
9.40
0.40
-8.49
-18.15
-29.01
-40.88
-52.89
-63.97
-73.27
-80.60
-86.59
-92.53
-100.03
-110.49
-124.48
-141.29
-158.65
-173.03
-180.48
-177.71
-163.22
-137.88
-104.61
-67.60
-31.01
1.97
29.62
51.49
67.93
79.61
87.16
91.19
92.39
91.62
89.94
88.42
87.88
88.63
90.43
92.65
94.60
95.84
96.34
96.36
96.11
95.51
94.02
90.87
85.39
77.31
67.07
55.66
44.27
33.89
24.97
17.30
10.19
2.79
-5.46
-14.63
-24.29
-33.76
-42.48
-50.22
-57.28
-64.38
-72.59
-83.02
-96.52
-113.13
-131.68
-149.54
-163.01
-168.15
-162.14
-144.25
-116.29
-82.10
-46.31
-12.95
15.44
38.06
55.41
68.51
78.32
85.43
90.14
92.75
93.72
93.70
93.42
93.45
94.03
94.97
95.83
96.12
95.60
94.35
92.69
90.97
89.21
87.07
83.90
79.04
72.16
63.50
53.82
44.18
35.50
28.24
22.17
16.55
10.42
3.09
-5.57
-15.04
-24.45
-32.96
-40.14
-46.19
-51.77
-57.81
-65.24
-74.82
-86.97
-101.43
-117.04
-131.57
-141.98
-145.14
-138.82
-122.59
-98.09
-68.62
-38.09
-9.93
13.77
32.39
46.36
56.58
63.78
68.40
70.68
71.00
70.01
68.64
67.80
68.01
69.28
71.12
72.92
74.16
74.70
74.62
74.09
73.12
71.52
68.98
65.26
60.29
54.24
47.46
40.32
33.21
26.39
20.04
14.25
9.02
4.21
-0.49
-5.52
-11.30
-18.08
-25.74
-33.79
-41.55
-48.50
-54.54
-60.09
-65.95
-72.96
-81.79
-92.60
-104.89
-117.33
-127.89
-134.03
-133.35
-124.32
-106.93
-82.86
-55.06
-26.97
-1.51
19.47
35.37
46.55
53.78
57.88
59.56
59.42
58.08
56.28
54.74
54.05
54.45
55.81
57.68
59.55
61.04
62.03
62.50
62.47
61.75
60.06
57.15
52.93
47.58
41.54
35.25
29.09
23.25
17.70
12.30
6.92
1.53
-3.72
-8.59
-12.84
-16.47
-19.79
-23.39
-27.94
-33.81
-40.93
-48.65
-56.13
-62.65
-68.02
-72.74
-77.89
-84.76
-94.26
-106.48
-120.26
-133.29
-142.53
-145.04
-138.90
-123.82
-101.28
-74.01
-45.30
-18.13
5.35
23.93
37.22
45.45
49.28
49.69
47.89
45.16
42.62
41.07
40.85
41.98
44.13
46.88
49.82
52.57
54.94
56.79
58.08
58.68
58.46
57.23
54.83
51.17
46.36
40.67
34.42
28.00
21.69
15.68
10.05
4.82
0.02
-4.38
-8.46
-12.37
-16.33
-20.70
-25.82
-31.98
-39.24
-47.38
-55.91
-64.19
-71.70
-78.26
-84.26
-90.57
-98.29
-108.28
-120.57
-133.98
-146.14
-154.04
-154.82
-146.76
-129.81
-105.61
-77.05
-47.37
-19.45
4.69
23.97
38.15
47.47
52.48
53.92
52.68
49.86
46.62
44.06
43.00
43.83
46.41
50.28
54.84
59.56
64.07
68.09
71.33
73.46
74.08
72.92
69.88
65.17
59.22
52.60
45.88
39.51
33.67
28.29
23.13
17.90
12.54
7.20
2.24
-2.09
-5.83
-9.41
-13.57
-18.98
-26.00
-34.43
-43.66
-52.86
-61.41
-69.05
-75.96
-82.66
-89.85
-98.31
-108.73
-121.48
-136.09
-151.00
-163.42
-169.90
-167.24
-153.72
-129.75
-97.90
-62.10
-26.43
5.88
32.90
53.92
68.92
78.19
82.18
81.64
77.77
72.20
66.65
62.61
60.91
61.70
64.57
68.83
73.83
79.07
84.19
88.79
92.39
94.41
94.32
91.86
87.21
80.92
73.81
66.61
59.75
53.24
46.79
40.00
32.75
25.22
17.90
11.27
5.58
0.62
-4.18
-9.60
-16.25
-24.38
-33.79
-43.85
-53.78
-62.92
-70.97
-78.18
-85.33
-93.57
-104.11
-117.61
-133.69
-150.56
-165.05
-173.29
-171.80
-158.64
-134.10
-100.77
-62.73
-24.37
10.64
40.00
62.74
78.84
88.77
93.22
93.12
89.59
84.06
78.04
72.95
69.90
69.43
71.49
75.54
80.71
86.07
90.87
94.53
96.69
97.12
95.66
92.20
86.79
79.62
71.13
61.81
52.18
42.66
33.60
25.19
17.52
10.50
3.85
-2.82
-9.94
-17.83
-26.61
-36.04
-45.70
-54.99
-63.41
-70.70
-77.17
-83.57
-91.14
-101.21
-114.69
-131.51
-150.11
-167.37
-179.12
-181.24
-170.86
-147.46
-113.10
-71.88
-28.73
11.82
46.63
74.15
94.17
107.31
114.48
116.70
115.04
110.66
104.82
98.82
93.78
90.41
88.87
88.85
89.78
91.12
92.55
93.99
95.32
96.21
96.05
94.15
90.05
83.84
76.09
67.63
59.12
50.84
42.68
34.35
25.73
16.96
8.38
0.36
-6.97
-13.77
-20.46
-27.54
-35.36
-43.98
-53.22
-62.69
-72.02
-80.96
-89.53
-98.09
-107.33
-118.23
-131.74
-148.18
-166.67
-184.72
-198.46
-203.55
-196.52
-176.09
-143.62
-102.89
-58.86
-16.37
20.91
50.89
72.95
87.53
95.69
98.92
98.80
96.88
94.44
92.39
91.23
91.12
91.98
93.63
95.81
98.23
100.59
102.61
104.03
104.58
103.95
101.86
98.14
92.77
85.96
78.02
69.32
60.13
50.68
41.18
31.90
23.08
14.88
7.27
0.00
-7.31
-15.04
-23.37
-32.22
-41.28
-50.19
-58.59
-66.27
-73.30
-80.04
-87.19
-95.77
-106.84
-121.01
-137.84
-155.30
-169.87
-177.33
-174.01
-158.11
-130.51
-94.50
-54.82
-16.18
17.85
45.34
65.84
79.75
87.84
90.98
90.09
86.35
81.13
75.89
71.84
69.69
69.59
71.16
73.67
76.43
78.88
80.73
81.92
82.47
82.34
81.35
79.25
75.77
70.80
64.38
56.76
48.35
39.61
30.99
22.92
15.70
9.51
4.27
-0.38
-5.04
-10.37
-16.89
-24.72
-33.51
-42.55
-51.07
-58.51
-64.81
-70.46
-76.43
-83.99
-94.29
-107.88
-124.22
-141.31
-155.80
-163.72
-161.61
-147.70
-122.67
-89.55
-52.76
-16.82
14.82
40.30
59.21
72.02
79.49
82.37
81.47
77.82
72.71
67.63
63.84
62.13
62.51
64.42
66.98
69.42
71.32
72.72
73.82
74.79
75.48
75.38
73.79
70.07
64.00
55.85
46.40
36.63
27.53
19.73
13.41
8.27
3.68
-1.11
-6.69
-13.26
-20.65
-28.35
-35.77
-42.46
-48.30
-53.53
-58.73
-64.66
-72.13
-81.76
-93.69
-107.20
-120.55
-131.04
-135.59
-131.68
-118.24
-96.12
-67.96
-37.36
-7.87
17.90
38.55
53.80
63.96
69.49
70.81
68.42
63.15
56.24
49.28
43.82
40.91
40.80
42.99
46.54
50.56
54.51
58.16
61.41
63.97
65.27
64.59
61.42
55.67
47.76
38.51
28.82
19.48
10.96
3.41
-3.35
-9.67
-15.88
-22.18
-28.51
-34.58
-40.07
-44.82
-48.92
-52.87
-57.41
-63.39
-71.57
-82.25
-94.91
-107.94
-118.69
-124.07
-121.47
-109.71
-89.54
-63.46
-34.96
-7.46
16.47
35.45
49.11
57.60
61.32
60.84
56.94
50.76
43.79
37.57
33.34
31.73
32.65
35.44
39.10
42.74
45.81
48.15
49.84
50.93
51.24
50.29
47.58
42.79
36.09
28.16
20.03
12.61
6.39
1.17
-3.74
-9.21
-15.78
-23.44
-31.62
-39.48
-46.31
-51.85
-56.40
-60.79
-66.14
-73.57
-83.75
-96.54
-110.66
-123.76
-132.82
-134.94
-128.27
-112.62
-89.59
-62.13
-33.68
-7.31
14.89
32.00
43.98
51.33
54.68
54.67
52.03
47.67
42.75
38.51
35.93
35.46
36.91
39.67
42.99
46.35
49.52
52.44
54.94
56.60
56.74
54.73
50.21
43.36
34.85
25.63
16.56
8.11
0.28
-7.31
-15.07
-23.18
-31.45
-39.39
-46.53
-52.73
-58.29
-63.96
-70.68
-79.33
-90.41
-103.70
-118.01
-131.14
-140.25
-142.44
-135.70
-119.62
-95.62
-66.64
-36.20
-7.54
17.15
36.81
51.33
61.09
66.70
68.87
68.46
66.47
64.01
62.03
61.18
61.65
63.20
65.40
67.80
70.07
72.01
73.47
74.19
73.75
71.66
67.46
61.04
52.75
43.35
33.76
24.78
16.69
9.28
1.93
-5.99
-14.80
-24.33
-34.03
-43.16
-51.21
-58.04
-64.09
-70.23
-77.61
-87.32
-99.95
-115.14
-131.27
-145.53
-154.48
-154.99
-145.21
-125.32
-97.56
-65.56
-33.31
-4.10
20.18
39.10
53.24
63.60
71.05
76.17
79.38
81.15
82.13
83.06
84.43
86.31
88.26
89.64
89.97
89.23
87.89
86.62
85.91
85.64
85.09
83.15
78.86
71.81
62.42
51.76
41.15
31.70
23.82
17.18
10.93
4.15
-3.75
-12.74
-22.27
-31.58
-40.07
-47.62
-54.65
-61.92
-70.39
-80.91
-93.94
-109.19
-125.37
-140.01
-149.87
-151.69
-143.33
-124.65
-97.74
-66.35
-34.64
-6.00
17.80
36.43
50.57
61.10
68.70
73.80
76.79
78.18
78.66
78.96
79.59
80.74
82.26
83.79
84.99
85.65
85.75
85.41
84.82
83.98
82.64
80.31
76.43
70.62
62.97
54.05
44.78
36.12
28.68
22.58
17.33
12.16
6.29
-0.79
-9.09
-18.18
-27.33
-35.80
-43.17
-49.54
-55.54
-62.21
-70.72
-81.89
-95.84
-111.68
-127.41
-140.16
-146.79
-144.71
-132.66
-111.32
-83.13
-51.72
-20.87
6.44
28.56
45.22
57.00
64.82
69.49
71.65
71.87
70.81
69.30
68.14
67.97
68.98
70.93
73.26
75.34
76.67
77.08
76.76
76.01
75.11
74.04
72.43
69.70
65.32
59.07
51.20
42.37
33.46
25.21
18.01
11.80
6.20
0.73
-5.06
-11.43
-18.42
-25.86
-33.39
-40.63
-47.32
-53.48
-59.55
-66.33
-74.81
-85.81
-99.50
-115.04
-130.43
-142.72
-148.66
-145.66
-132.62
-110.38
-81.60
-49.92
-19.02
8.32
30.56
47.27
58.68
65.33
67.80
66.93
63.80
59.79
56.27
54.32
54.42
56.43
59.70
63.35
66.57
68.77
69.71
69.52
68.44
66.75
64.53
61.58
57.55
52.12
45.27
37.37
29.01
20.86
13.34
6.55
0.27
-5.82
-12.01
-18.41
-24.97
-31.44
-37.59
-43.19
-48.31
-53.21
-58.44
-64.65
-72.47
-82.40
-94.44
-108.04
-121.75
-133.33
-140.06
-139.40
-129.84
-111.49
-86.20
-57.00
-27.26
0.20
23.56
41.99
55.37
63.82
67.67
67.42
63.91
58.41
52.46
47.61
45.05
45.37
48.39
53.35
59.10
64.50
68.72
71.36
72.43
72.05
70.28
66.95
61.78
54.64
45.79
35.94
26.20
17.55
10.55
5.08
0.38
-4.59
-10.67
-18.17
-26.73
-35.52
-43.65
-50.56
-56.22
-61.08
-65.94
-71.70
-79.20
-89.06
-101.47
-115.77
-130.26
-142.18
-148.24
-145.61
-132.90
-110.71
-81.57
-49.13
-17.13
11.49
35.07
53.12
65.85
73.76
77.34
77.14
73.92
68.81
63.21
58.62
56.08
56.01
58.04
61.37
65.13
68.76
72.06
75.07
77.68
79.48
79.74
77.62
72.49
64.26
53.48
41.27
28.99
17.86
8.53
0.83
-5.98
-12.91
-20.67
-29.34
-38.46
-47.27
-55.17
-62.01
-68.20
-74.52
-81.96
-91.47
-103.62
-118.21
-133.94
-148.26
-157.85
-159.40
-150.73
-131.55
-103.62
-70.19
-35.05
-1.60
27.73
51.60
69.45
81.25
87.29
88.18
84.88
78.74
71.34
64.25
58.72
55.47
54.53
55.40
57.33
59.62
61.83
63.75
65.25
66.01
65.48
63.00
58.04
50.55
41.03
30.36
19.52
9.21
-0.30
-9.23
-18.00
-27.05
-36.50
-46.13
-55.41
-63.79
-70.93
-76.99
-82.62
-88.94
-97.26
-108.54
-122.89
-139.14
-154.66
-165.84
-168.94
-161.28
-142.11
-112.97
-77.22
-39.05
-2.40
29.84
56.05
75.65
88.68
95.56
97.03
94.18
88.50
81.66
75.26
70.43
67.71
66.98
67.81
69.62
71.98
74.63
77.32
79.65
80.95
80.37
77.14
70.91
61.89
50.87
38.91
27.03
15.83
5.37
-4.72
-14.99
-25.81
-37.16
-48.64
-59.66
-69.71
-78.68
-86.92
-95.30
-105.02
-117.20
-132.37
-149.83
-167.31
-181.06
-186.79
-180.98
-162.22
-131.81
-93.44
-51.96
-11.95
23.37
52.43
74.99
91.54
102.73
109.26
111.89
111.55
109.34
106.40
103.71
101.90
101.14
101.17
101.48
101.60
101.31
100.72
100.14
99.70
99.10
97.56
94.08
87.87
78.76
67.34
54.75
42.26
30.80
20.59
11.19
1.76
-8.55
-20.13
-32.73
-45.52
-57.40
-67.47
-75.44
-81.78
-87.73
-95.00
-105.29
-119.70
-138.07
-158.57
-177.68
-190.83
-193.58
-182.99
-158.72
-123.23
-81.11
-37.72
2.28
35.88
61.98
80.91
93.75
101.76
106.06
107.62
107.37
106.19
104.88
104.03
103.94
104.50
105.33
105.92
105.86
104.98
103.47
101.72
100.11
98.68
97.05
94.39
89.75
82.50
72.65
60.91
48.48
36.58
26.01
16.87
8.55
0.09
-9.40
-20.29
-32.23
-44.36
-55.60
-65.23
-73.10
-79.73
-86.14
-93.59
-103.29
-116.14
-132.26
-150.57
-168.57
-182.43
-187.90
-181.57
-162.12
-130.96
-91.89
-49.92
-9.82
24.96
52.70
73.13
86.81
94.62
97.56
96.71
93.27
88.59
84.01
80.55
78.83
78.86
80.26
82.39
84.70
86.79
88.46
89.57
89.91
89.14
86.94
83.16
77.92
71.60
64.60
57.26
49.66
41.75
33.43
24.74
15.91
7.27
-0.86
-8.35
-15.38
-22.34
-29.70
-37.78
-46.53
-55.58
-64.39
-72.50
-79.75
-86.41
-93.12
-100.84
-110.61
-123.24
-138.74
-155.78
-171.47
-181.71
-182.33
-170.40
-145.48
-109.89
-68.09
-25.29
13.93
46.58
71.42
88.52
98.62
102.71
101.85
97.26
90.38
82.77
75.93
70.94
68.32
67.97
69.31
71.61
74.29
77.05
79.82
82.48
84.67
85.77
85.07
82.07
76.70
69.42
61.06
52.49
44.40
37.03
30.16
23.38
16.27
8.67
0.76
-7.00
-14.21
-20.76
-26.94
-33.36
-40.58
-48.85
-57.85
-66.90
-75.24
-82.47
-88.68
-94.58
-101.22
-109.86
-121.51
-136.50
-153.92
-171.31
-184.82
-190.06
-183.44
-163.51
-131.62
-91.64
-48.68
-7.62
28.07
56.64
77.72
91.63
98.88
100.11
96.29
88.88
79.76
70.83
63.63
58.97
56.95
57.14
58.97
61.91
65.60
69.72
73.93
77.70
80.37
81.23
79.77
75.82
69.69
62.08
53.85
45.74
38.08
30.77
23.44
15.69
7.46
-1.00
-9.19
-16.67
-23.31
-29.40
-35.48
-42.18
-49.85
-58.50
-67.71
-76.86
-85.27
-92.55
-98.79
-104.67
-111.37
-120.27
-132.39
-147.79
-165.02
-180.99
-191.55
-192.46
-180.83
-156.12
-120.46
-78.07
-34.00
7.23
42.47
70.18
90.04
102.37
107.82
107.25
101.91
93.42
83.59
74.14
66.38
61.04
58.38
58.26
60.29
63.96
68.60
73.43
77.68
80.70
82.07
81.60
79.36
75.54
70.39
64.16
57.05
49.24
40.87
32.10
23.13
14.26
5.75
-2.20
-9.61
-16.76
-24.07
-31.91
-40.37
-49.16
-57.74
-65.50
-72.09
-77.61
-82.62
-88.12
-95.30
-105.24
-118.40
-134.09
-150.15
-163.06
-168.74
-163.84
-146.88
-118.90
-83.17
-44.15
-6.14
27.68
55.55
76.82
91.42
99.47
101.28
97.50
89.40
78.77
67.64
57.81
50.56
46.40
45.15
46.19
48.68
51.94
55.50
59.17
62.81
66.11
68.45
68.94
66.72
61.37
53.17
43.08
32.46
22.53
13.89
6.34
-0.91
-8.86
-18.15
-28.77
-40.06
-50.98
-60.67
-68.72
-75.36
-81.34
-87.60
-95.12
-104.71
-116.79
-131.15
-146.57
-160.60
-169.86
-170.81
-160.86
-139.45
-108.26
-70.89
-31.69
5.42
37.67
63.62
82.79
95.23
101.20
101.18
96.01
87.00
75.91
64.66
55.00
48.13
44.53
43.96
45.74
49.04
53.17
57.67
62.09
65.85
68.15
68.11
65.17
59.40
51.60
42.96
34.56
26.80
19.30
11.15
1.44
-10.15
-23.14
-36.38
-48.53
-58.60
-66.32
-72.28
-77.70
-84.17
-93.19
-105.57
-121.01
-137.58
-151.94
-159.91
-157.74
-143.30
-116.92
-81.39
-41.13
-0.92
35.30
65.02
87.22
101.91
109.72
111.57
108.63
102.28
94.09
85.57
77.93
71.91
67.76
65.34
64.37
64.60
65.88
68.13
71.12
74.41
77.23
78.60
77.61
73.71
66.93
57.95
47.75
37.28
27.06
16.99
6.53
-4.85
-17.29
-30.29
-42.96
-54.34
-63.96
-72.05
-79.51
-87.65
-97.75
-110.60
-126.07
-142.82
-158.18
-168.58
-170.39
-160.99
-139.78
-108.53
-70.90
-31.46
5.56
37.20
61.97
79.74
91.06
96.80
97.86
95.22
90.04
83.67
77.50
72.66
69.81
69.01
69.87
71.78
74.23
76.89
79.57
81.98
83.63
83.77
81.64
76.78
69.26
59.79
49.40
39.17
29.79
21.35
13.38
5.18
-3.77
-13.54
-23.67
-33.45
-42.19
-49.66
-56.15
-62.44
-69.65
-78.88
-90.88
-105.48
-121.26
-135.42
-144.32
-144.44
-133.63
-111.96
-81.84
-47.26
-12.61
18.55
44.08
63.28
76.40
84.14
87.32
86.82
83.71
79.20
74.53
70.75
68.47
67.77
68.29
69.42
70.59
71.45
71.96
72.21
72.25
71.82
70.37
67.27
62.11
54.97
46.49
37.60
29.16
21.58
14.72
7.94
0.55
-7.93
-17.44
-27.40
-36.96
-45.33
-52.13
-57.54
-62.42
-68.02
-75.73
-86.56
-100.57
-116.40
-131.22
-141.30
-143.02
-134.13
-114.62
-86.84
-54.68
-22.41
6.55
30.22
48.03
60.28
67.66
70.87
70.71
68.11
64.19
60.10
56.76
54.69
53.93
54.15
54.85
55.64
56.35
57.11
58.11
59.45
60.83
61.60
60.83
57.74
52.01
43.95
34.48
24.79
15.84
8.11
1.48
-4.59
-10.76
-17.47
-24.78
-32.45
-40.01
-47.09
-53.54
-59.55
-65.67
-72.64
-81.28
-92.16
-105.29
-119.68
-133.21
-142.85
-145.45
-138.67
-121.99
-96.87
-66.47
-34.55
-4.45
21.62
42.61
58.27
68.71
74.11
74.88
71.88
66.57
60.73
56.05
53.68
53.90
56.20
59.62
63.15
66.11
68.23
69.63
70.47
70.80
70.39
68.76
65.48
60.33
53.45
45.34
36.74
28.33
20.51
13.26
6.16
-1.38
-9.78
-19.04
-28.61
-37.66
-45.40
-51.53
-56.41
-60.99
-66.50
-74.10
-84.51
-97.69
-112.62
-127.21
-138.55
-143.50
-139.66
-126.13
-103.96
-75.90
-45.50
-16.17
9.65
30.64
46.47
57.28
63.40
65.28
63.57
59.27
53.71
48.29
44.18
42.07
41.97
43.42
45.70
48.23
50.76
53.33
56.03
58.69
60.63
60.84
58.34
52.69
44.24
34.18
24.03
15.09
7.97
2.34
-2.72
-8.33
-15.10
-23.03
-31.46
-39.59
-46.82
-53.14
-59.08
-65.56
-73.51
-83.64
-96.10
-110.22
-124.33
-135.85
-141.74
-139.25
-126.93
-105.16
-76.20
-43.59
-11.08
18.28
42.63
61.19
73.95
81.20
83.46
81.44
76.32
69.58
62.91
57.71
54.87
54.51
56.12
58.83
61.73
64.18
65.87
66.76
66.77
65.67
63.04
58.43
51.72
43.27
33.91
24.60
16.05
8.34
0.96
-6.88
-15.88
-26.17
-37.27
-48.24
-58.09
-66.17
-72.49
-77.74
-83.11
-90.05
-99.76
-112.72
-128.20
-144.09
-157.11
-163.60
-160.50
-146.42
-122.09
-90.26
-54.81
-19.74
11.80
37.91
57.86
71.68
79.77
82.75
81.51
77.33
71.75
66.40
62.54
60.77
61.01
62.65
64.95
67.31
69.53
71.64
73.73
75.69
76.99
76.79
74.19
68.61
60.13
49.56
38.17
27.23
17.43
8.74
0.50
-8.16
-17.78
-28.33
-39.23
-49.63
-58.84
-66.62
-73.42
-80.22
-88.41
-99.32
-113.71
-131.19
-149.84
-166.26
-176.22
-175.93
-163.16
-138.15
-103.55
-63.68
-23.22
13.86
45.11
69.48
87.03
98.28
103.97
105.02
102.59
98.13
93.23
89.26
87.06
86.81
88.04
89.99
91.94
93.44
94.41
94.95
95.15
94.83
93.47
90.35
84.77
76.40
65.58
53.27
40.85
29.56
20.05
12.07
4.57
-3.77
-13.95
-26.15
-39.64
-53.13
-65.32
-75.45
-83.60
-90.67
-98.24
-108.02
-121.37
-138.62
-158.51
-178.02
-192.79
-198.23
-190.95
-169.98
-137.26
-97.04
-54.56
-14.51
20.09
48.10
69.80
86.07
97.69
105.15
108.90
109.63
108.43
106.66
105.49
105.53
106.64
108.12
109.13
109.16
108.28
107.05
106.08
105.63
105.25
103.94
100.48
93.99
84.29
72.04
58.46
44.96
32.66
22.02
12.86
4.42
-4.25
-13.86
-24.64
-36.23
-47.82
-58.51
-67.72
-75.47
-82.49
-90.07
-99.71
-112.65
-129.18
-148.12
-166.59
-180.35
-184.86
-176.73
-154.94
-121.31
-80.06
-36.48
4.59
39.79
67.57
87.82
101.23
108.69
111.13
109.53
105.16
99.50
94.12
90.31
88.78
89.44
91.57
94.08
96.02
96.83
96.57
95.64
94.48
93.18
91.28
88.01
82.54
74.47
64.03
52.10
39.90
28.56
18.73
10.34
2.75
-5.00
-13.67
-23.55
-34.27
-45.01
-54.80
-63.02
-69.61
-75.19
-80.87
-87.96
-97.72
-110.99
-127.83
-147.15
-166.36
-181.60
-188.47
-183.29
-164.42
-132.99
-92.79
-49.06
-7.10
29.21
57.88
78.63
92.21
99.65
101.95
100.05
95.07
88.41
81.69
76.36
73.38
72.95
74.52
77.10
79.70
81.65
82.76
83.18
83.10
82.49
81.01
78.08
73.17
66.02
56.82
46.19
35.07
24.45
15.09
7.30
0.76
-5.30
-11.81
-19.46
-28.39
-38.15
-47.94
-57.03
-64.99
-71.90
-78.24
-84.79
-92.48
-102.31
-115.02
-130.68
-148.11
-164.60
-176.20
-178.76
