1624979498.00
64.000000
-0.00
-0.00
-0.00
-0.00
-0.00
-0.00
-0.00
-0.00
-0.00
-0.00
0.00
0.01
0.01
-0.00
-0.03
-0.05
-0.05
0.00
0.13
0.36
0.66
1.01
1.37
1.72
2.06
2.40
2.79
3.24
3.80
4.42
5.06
5.66
6.20
6.68
7.15
7.68
8.31
9.14
10.09
11.04
11.88
12.56
13.14
13.76
14.65
15.96
17.91
20.32
22.90
25.38
27.58
29.57
31.68
34.32
37.81
42.54
48.15
54.10
59.83
64.97
69.58
74.14
79.34
85.71
93.76
103.00
112.62
121.73
129.77
136.75
143.30
150.75
157.77
166.64
177.95
191.79
206.97
220.57
228.25
225.36
208.53
176.87
132.76
80.05
23.07
-34.94
-92.44
-149.16
-205.23
-260.37
-313.74
-363.87
-409.83
-450.91
-486.50
-515.74
-537.23
-549.22
-549.96
-538.37
-514.21
-478.67
-433.88
-382.45
-327.02
-269.84
-212.63
-156.66
-102.95
-52.37
-5.90
35.58
71.43
101.35
125.50
144.38
158.69
169.15
176.37
180.75
182.57
182.07
179.51
175.23
169.65
163.18
156.15
148.81
141.30
133.69
126.02
118.33
110.69
103.16
95.80
88.68
81.83
75.25
68.95
62.95
57.25
51.86
46.78
42.03
37.59
33.45
29.61
26.07
22.81
19.83
17.11
14.67
12.48
10.54
8.83
7.35
6.07
4.97
4.05
3.27
2.62
2.09
1.65
1.30
1.01
0.79
0.61
0.47
0.37
0.28
0.22
0.18
0.15
0.13
0.12
0.12
0.12
0.13
0.15
0.18
0.21
0.24
0.28
0.32
0.37
0.41
0.45
0.50
0.55
0.60
0.65
0.71
0.77
0.84
0.91
0.99
1.07
1.17
1.28
1.40
1.53
1.69
1.86
2.05
2.26
2.49
2.75
3.03
3.35
3.69
4.07
4.48
4.93
5.41
5.93
6.49
7.09
7.73
8.42
9.15
9.92
10.74
11.60
12.50
13.46
14.47
15.55
16.68
17.88
19.12
20.38
21.61
22.73
23.67
24.30
24.50
24.17
23.20
21.55
19.19
16.17
12.55
8.50
4.19
-0.17
-4.38
-8.25
-11.61
-14.34
-16.37
-17.68
-18.29
-18.27
-17.72
-16.73
-15.40
-13.83
-12.14
-10.36
-8.55
-6.70
-4.84
-2.94
-1.01
0.96
2.95
4.93
6.87
8.78
10.74
12.69
14.64
16.66
18.76
20.95
23.19
25.47
27.82
30.42
33.16
36.12
39.37
42.94
46.74
50.62
54.39
58.05
61.81
65.56
69.46
73.68
78.27
83.02
87.52
91.33
94.25
96.52
98.00
98.97
99.70
100.03
99.26
96.08
88.70
74.94
57.71
38.27
17.90
-2.34
-21.84
-40.64
-59.31
-78.78
-99.99
-123.63
-150.51
-180.05
-210.05
-236.83
-256.15
-264.55
-260.64
-245.69
-223.03
-197.32
-172.34
-150.15
-131.21
-115.17
-101.68
-90.76
-82.68
-77.43
-74.81
-73.88
-73.27
-71.44
-66.93
-58.60
-45.96
-29.32
-9.89
10.37
29.42
45.65
58.22
66.91
71.91
73.53
72.18
68.38
62.96
57.00
51.60
47.58
45.16
44.05
43.70
43.61
43.62
43.85
44.52
45.68
46.92
47.51
46.47
43.03
36.88
28.31
18.15
7.51
-2.56
-11.39
-18.90
-25.60
-32.34
-39.93
-48.53
-57.26
-64.15
-66.68
-62.62
-51.04
-32.73
-10.09
13.62
35.25
52.55
64.44
70.90
72.54
70.30
65.31
58.81
52.12
46.48
42.77
41.25
41.52
42.57
43.22
42.43
39.68
35.05
29.05
22.37
15.47
8.49
1.28
-6.34
-14.39
-22.53
-30.19
-36.77
-41.92
-45.70
-48.69
-51.75
-55.87
-61.62
-68.79
-76.14
-81.59
-82.82
-78.05
-66.82
-50.22
-30.61
-10.83
6.60
20.06
29.00
33.58
34.38
32.05
27.35
21.13
14.51
8.70
4.69
2.99
3.42
5.28
7.61
9.63
11.03
12.00
13.00
14.42
16.17
17.73
18.25
17.01
13.80
9.05
3.73
-1.07
-4.55
-6.51
-7.39
-7.99
-9.28
-12.06
-16.80
-23.37
-30.90
-37.76
-41.85
-41.21
-34.81
-23.04
-7.71
8.59
23.34
34.86
42.56
46.79
48.34
48.02
46.48
44.24
41.75
39.42
37.56
36.29
35.56
35.21
35.06
34.93
34.67
34.10
32.98
31.06
28.08
23.95
18.75
12.81
6.59
0.61
-4.78
-9.49
-13.72
-17.93
-22.71
-28.64
-36.09
-44.87
-54.07
-61.97
-66.35
-65.23
-57.64
-44.15
-26.74
-8.25
8.63
22.18
31.79
37.78
40.79
41.33
39.71
36.31
31.74
26.97
23.04
20.70
20.09
20.86
22.34
23.88
25.05
25.70
25.70
24.89
22.94
19.56
14.67
8.52
1.71
-5.04
-11.09
-16.17
-20.37
-24.11
-28.10
-33.09
-39.78
-48.45
-58.62
-68.77
-76.56
-79.41
-75.49
-64.55
-48.16
-29.23
-10.94
4.34
15.58
23.00
27.38
29.49
29.70
28.23
25.46
22.11
19.15
17.43
17.23
18.20
19.51
20.24
19.88
18.49
16.66
15.15
14.50
14.66
14.99
14.51
12.42
8.50
3.30
-2.13
-6.73
-9.95
-12.02
-13.85
-16.63
-21.35
-28.49
-37.75
-48.05
-57.59
-64.13
-65.52
-60.41
-48.84
-32.40
-13.80
3.98
18.61
28.96
35.11
37.79
37.84
35.89
32.43
28.04
23.56
19.90
17.75
17.31
18.23
19.84
21.47
22.74
23.65
24.39
25.14
25.78
25.91
25.02
22.67
18.79
13.69
7.95
2.25
-2.89
-7.23
-10.88
-14.26
-18.04
-22.91
-29.32
-37.11
-45.24
-51.78
-54.44
-51.35
-41.95
-27.33
-9.94
7.22
21.68
32.12
38.46
41.33
41.49
39.42
35.35
29.56
22.75
15.99
10.46
6.97
5.66
6.02
7.24
8.59
9.74
10.76
11.81
12.91
13.77
13.90
12.83
10.34
6.53
1.73
-3.68
-9.45
-15.47
-21.91
-29.04
-37.19
-46.51
-56.59
-66.23
-73.52
-76.23
-72.68
-62.38
-46.39
-27.03
-7.16
10.61
24.54
33.91
38.80
39.76
37.57
33.20
27.74
22.34
18.11
15.77
15.51
16.96
19.37
21.83
23.62
24.29
23.81
22.38
20.21
17.40
13.93
9.69
4.63
-1.08
-7.08
-12.92
-18.22
-22.86
-27.10
-31.42
-36.56
-43.24
-51.88
-62.29
-73.35
-83.07
-88.89
-88.57
-80.94
-66.50
-47.26
-26.06
-5.64
12.09
26.31
37.00
44.52
49.13
51.03
50.44
47.85
44.08
40.05
36.55
33.92
32.10
30.75
29.52
28.22
26.97
25.97
25.31
24.72
23.60
21.16
16.81
10.44
2.49
-6.14
-14.45
-21.62
-27.31
-31.69
-35.42
-39.40
-44.52
-51.31
-59.61
-68.37
-75.74
-79.43
-77.55
-69.21
-55.02
-36.88
-17.41
0.99
16.81
29.52
39.34
46.63
51.55
54.03
54.07
52.04
48.73
45.13
42.09
40.00
38.77
38.01
37.39
36.76
36.23
35.92
35.77
35.34
33.99
30.99
25.97
19.03
10.82
2.28
-5.71
-12.63
-18.48
-23.74
-29.20
-35.71
-43.84
-53.57
-63.99
-73.25
-78.96
-78.83
-71.56
-57.42
-38.28
-17.00
3.40
20.74
34.00
43.26
49.16
52.34
53.18
51.79
48.34
43.28
37.45
31.94
27.73
25.35
24.75
25.28
25.99
26.00
24.72
22.02
18.09
13.41
8.38
3.31
-1.71
-6.80
-12.20
-18.14
-24.82
-32.39
-41.01
-50.70
-61.05
-70.96
-78.60
-81.72
-78.39
-67.83
-50.89
-29.91
-7.92
12.30
28.98
41.48
49.96
54.79
56.31
54.77
50.68
44.98
38.91
33.67
29.98
27.93
27.00
26.53
26.02
25.28
24.33
23.07
21.20
18.18
13.59
7.36
-0.03
-7.74
-14.90
-20.98
-25.97
-30.37
-35.00
-40.73
-48.27
-57.82
-68.82
-79.74
-88.23
-91.61
-87.77
-76.04
-57.55
-35.02
-11.78
9.21
26.16
38.63
47.00
52.04
54.32
54.20
52.00
48.29
43.81
39.37
35.58
32.66
30.50
28.85
27.53
26.51
25.85
25.48
25.09
24.13
21.99
18.22
12.81
6.12
-1.18
-8.41
-15.11
-21.18
-26.92
-32.94
-40.01
-48.75
-59.28
-70.80
-81.48
-88.72
-89.90
-83.33
-69.06
-48.92
-25.98
-3.55
15.94
31.29
42.41
49.79
53.98
55.39
54.42
51.73
48.18
44.71
42.03
40.37
39.54
39.13
38.78
38.38
38.00
37.75
37.52
36.91
35.29
32.06
26.97
20.28
12.74
5.29
-1.32
-6.78
-11.39
-15.88
-21.26
-28.38
-37.68
-48.74
-60.09
-69.40
-74.00
-71.76
-62.05
-46.00
-26.25
-6.09
11.73
25.63
35.38
41.58
45.04
46.23
45.29
42.27
37.55
31.97
26.71
22.90
21.19
21.49
23.00
24.60
25.25
24.36
21.90
18.19
13.70
8.71
3.35
-2.39
-8.47
-14.74
-21.02
-27.27
-33.77
-41.09
-49.76
-59.78
-70.17
-78.86
-83.16
-80.72
-70.55
-53.50
-32.14
-9.81
10.48
26.86
38.76
46.51
50.67
51.66
49.78
45.49
39.64
33.46
28.18
24.61
22.92
22.68
23.18
23.74
23.91
23.47
22.31
20.28
17.19
12.87
7.35
0.87
-6.15
-13.16
-19.74
-25.79
-31.55
-37.69
-45.07
-54.37
-65.66
-77.92
-88.99
-96.00
-96.27
-88.29
-72.44
-50.92
-27.03
-4.05
15.75
31.35
42.82
50.65
55.30
57.00
55.98
52.76
48.19
43.34
39.09
35.95
33.94
32.81
32.22
31.89
31.61
31.12
30.09
28.16
24.97
20.37
14.51
7.76
0.68
-6.23
-12.67
-18.70
-24.73
-31.44
-39.61
-49.76
-61.82
-74.69
-86.22
-93.54
-93.97
-86.01
-69.99
-48.15
-23.83
-0.43
19.69
35.48
47.00
54.79
59.27
60.67
59.23
55.48
50.46
45.42
41.41
38.91
37.77
37.34
36.95
36.16
34.90
33.36
31.65
29.66
26.95
23.00
17.49
10.61
2.96
-4.58
-11.28
-16.85
-21.54
-26.03
-31.26
-38.10
-47.03
-57.90
-69.60
-80.02
-86.46
-86.39
-78.38
-62.81
-41.82
-18.67
3.35
21.90
35.99
45.74
51.81
54.83
55.19
53.20
49.38
44.57
39.84
36.15
34.00
33.31
33.62
34.25
34.67
34.54
33.72
32.12
29.58
25.90
20.99
14.96
8.21
1.35
-5.08
-10.76
-15.74
-20.44
-25.59
-31.97
-40.15
-50.09
-60.80
-70.29
-75.93
-75.24
-66.86
-51.17
-30.31
-7.53
13.85
31.46
44.17
51.98
55.50
55.41
52.33
46.92
40.05
32.88
26.62
22.18
19.91
19.53
20.29
21.32
21.91
21.69
20.55
18.50
15.52
11.53
6.47
0.39
-6.45
-13.60
-20.58
-27.04
-32.94
-38.61
-44.72
-52.12
-61.38
-72.38
-83.95
-93.75
-98.89
-96.79
-86.30
-68.23
-45.24
-20.86
1.65
20.23
34.26
44.11
50.44
53.70
54.12
51.96
47.86
42.88
38.22
34.84
33.07
32.61
32.82
32.99
32.71
31.88
30.56
28.76
26.30
22.80
17.86
11.42
3.80
-4.32
-12.13
-19.11
-25.21
-30.92
-37.09
-44.72
-54.53
-66.69
-80.37
-93.62
-103.61
-107.27
-102.42
-88.57
-67.37
-42.02
-16.26
6.86
25.68
39.94
50.09
56.66
59.90
59.91
57.12
52.50
47.52
43.56
41.49
41.26
42.09
42.98
43.24
42.70
41.71
40.64
39.57
38.15
35.73
31.79
26.25
19.56
12.43
5.58
-0.67
-6.42
-12.16
-18.57
-26.36
-36.08
-47.90
-61.31
-74.76
-85.75
-91.36
-89.23
-78.52
-60.40
-37.79
-14.35
6.75
23.66
35.96
44.20
49.20
51.46
51.16
48.47
43.94
38.55
33.46
29.65
27.53
26.98
27.52
28.60
29.85
31.10
32.13
32.56
31.78
29.15
24.25
17.19
8.60
-0.50
-9.14
-16.71
-23.17
-29.09
-35.41
-43.12
-52.83
-64.40
-76.62
-87.33
-93.79
-93.51
-85.13
-69.05
-47.34
-23.22
0.06
20.04
35.47
46.18
52.57
55.18
54.53
51.25
46.27
40.76
35.98
32.87
31.77
32.40
34.06
35.89
37.22
37.57
36.72
34.54
30.98
25.99
19.65
12.22
4.16
-3.95
-11.57
-18.43
-24.61
-30.57
-37.02
-44.76
-54.34
-65.82
-78.36
-90.09
-98.40
-100.57
-94.76
-80.77
-60.28
-36.37
-12.44
8.84
26.06
38.99
47.97
53.33
55.14
53.38
48.50
41.58
34.26
28.24
24.65
23.81
25.10
27.44
29.79
31.56
32.65
33.22
33.35
32.70
30.65
26.51
19.97
11.41
1.81
-7.59
-15.82
-22.55
-28.23
-33.87
-40.68
-49.65
-61.16
-74.70
-88.70
-100.64
-107.54
-106.82
-97.18
-79.18
-55.16
-28.50
-2.50
20.46
39.25
53.74
64.19
70.85
73.84
73.42
70.27
65.55
60.64
56.68
54.18
52.97
52.36
51.59
50.24
48.38
46.50
45.13
44.40
43.83
42.42
39.05
33.09
24.63
14.53
4.03
-5.76
-14.24
-21.42
-27.73
-33.86
-40.57
-48.58
-58.38
-69.89
-82.03
-92.62
-98.77
-97.84
-88.51
-71.35
-48.77
-24.11
-0.58
19.64
35.55
47.00
54.20
57.48
57.23
54.14
49.35
44.24
40.08
37.64
37.03
37.72
38.90
39.84
40.13
39.73
38.83
37.54
35.73
32.95
28.70
22.64
14.93
6.19
-2.76
-11.26
-19.08
-26.48
-34.11
-42.71
-52.84
-64.59
-77.37
-89.67
-99.22
-103.39
-100.03
-88.32
-69.27
-45.60
-20.93
1.40
19.21
31.81
39.64
43.63
44.58
43.02
39.44
34.57
29.53
25.63
23.82
24.39
26.77
29.81
32.32
33.59
33.61
32.87
31.91
30.85
29.24
26.25
21.15
13.75
4.59
-5.22
-14.50
-22.41
-28.78
-34.20
-39.75
-46.65
-55.84
-67.58
-81.08
-94.50
-105.08
-109.93
-106.86
-95.14
-75.91
-51.75
-25.91
-1.30
20.18
37.69
51.12
60.59
66.18
68.08
66.84
63.54
59.60
56.35
54.57
54.29
54.89
55.48
55.29
54.00
51.71
48.87
45.90
43.02
40.09
36.57
31.80
25.27
17.00
7.58
-2.01
-10.75
-18.06
-24.04
-29.45
-35.40
-42.96
-52.80
-64.88
-78.18
-90.77
-100.02
-103.30
-98.79
-86.17
-66.89
-43.79
-20.09
1.49
19.40
33.26
43.40
50.29
54.22
55.37
54.02
50.85
46.93
43.45
41.32
40.83
41.61
42.81
43.59
43.49
42.54
41.16
39.68
38.07
35.80
32.10
26.47
18.98
10.37
1.71
-6.06
-12.55
-18.03
-23.26
-29.16
-36.60
-46.06
-57.54
-70.22
-82.34
-91.40
-94.66
-90.09
-77.21
-57.42
-33.64
-9.40
12.32
29.76
42.46
50.81
55.44
56.84
55.41
51.68
46.53
41.11
36.56
33.59
32.29
32.22
32.64
32.88
32.59
31.72
30.37
28.60
26.20
22.80
17.98
11.56
3.78
-4.69
-12.95
-20.23
-26.21
-31.21
-36.10
-41.98
-49.81
-60.03
-72.22
-84.97
-95.96
-102.41
-101.84
-92.93
-76.12
-53.64
-28.79
-4.93
15.53
31.48
42.90
50.25
53.96
54.35
51.84
47.28
41.99
37.40
34.56
33.74
34.45
35.72
36.56
36.43
35.31
33.56
31.59
29.55
27.17
23.86
19.06
12.56
4.70
-3.70
-11.73
-18.75
-24.72
-30.16
-35.92
-42.90
-51.78
-62.78
-75.44
-88.43
-99.58
-106.17
-105.74
-96.94
-80.23
-57.74
-32.72
-8.34
13.13
30.69
44.27
54.18
60.60
63.53
63.06
59.72
54.63
49.23
44.84
42.19
41.25
41.34
41.55
41.22
40.17
38.71
37.29
36.08
34.73
32.47
28.50
22.43
14.59
5.86
-2.70
-10.32
-16.86
-22.78
-28.90
-36.06
-44.96
-55.83
-68.28
-81.03
-91.93
-98.24
-97.49
-88.33
-71.25
-48.55
-23.63
0.11
20.28
35.83
46.88
54.11
58.17
59.47
58.26
54.95
50.24
45.08
40.41
36.92
34.81
33.89
33.68
33.71
33.58
32.98
31.63
29.25
25.52
20.31
13.79
6.43
-1.09
-8.12
-14.32
-19.78
-24.99
-30.75
-37.90
-47.01
-57.93
-69.48
-79.42
-84.95
-83.54
-73.98
-56.96
-34.99
-11.55
10.05
27.57
40.27
48.45
52.90
54.27
52.94
49.29
43.91
37.75
31.95
27.47
24.76
23.71
23.83
24.46
25.07
25.26
24.74
23.20
20.29
15.80
9.74
2.46
-5.42
-13.23
-20.43
-26.84
-32.66
-38.52
-45.28
-53.80
-64.56
-77.17
-90.03
-100.49
-105.45
-102.47
-90.71
-71.40
-47.47
-22.56
0.13
18.72
32.66
42.35
48.43
51.45
51.73
49.70
46.08
41.87
38.09
35.36
33.75
32.88
32.20
31.34
30.31
29.29
28.45
27.55
26.02
23.13
18.38
11.81
4.03
-4.05
-11.65
-18.39
-24.43
-30.34
-36.93
-45.08
-55.47
-68.15
-82.21
-95.56
-105.20
-108.06
-102.07
-87.09
-65.05
-39.35
-13.63
9.33
28.14
42.61
53.12
60.04
63.52
63.76
61.28
57.12
52.59
48.84
46.49
45.45
45.12
44.82
44.10
42.92
41.54
40.26
39.12
37.84
35.93
32.89
28.54
22.99
16.70
10.18
3.80
-2.32
-8.38
-14.93
-22.66
-32.29
-44.09
-57.57
-71.22
-82.67
-89.32
-89.24
-81.89
-68.39
-51.12
-32.79
-15.55
-0.59
11.84
21.99
30.04
35.92
39.43
40.53
39.60
37.46
35.17
33.69
33.61
34.92
37.17
39.58
41.32
41.74
40.43
37.29
32.42
26.07
18.60
10.42
2.00
-6.30
-14.26
-21.95
-29.68
-38.00
-47.51
-58.54
-70.83
-83.23
-93.65
-99.42
-98.07
-88.31
-70.56
-47.05
-21.11
3.91
25.56
42.68
55.19
63.42
67.76
68.46
65.92
61.05
55.21
49.92
46.24
44.45
44.00
43.92
43.37
41.96
39.76
37.08
34.04
30.47
25.98
20.17
13.01
4.78
-3.94
-12.58
-20.81
-28.64
-36.39
-44.62
-53.95
-64.92
-77.67
-91.53
-104.82
-114.94
-118.93
-114.48
-100.87
-79.29
-52.54
-24.05
3.21
27.40
47.77
64.17
76.47
84.38
87.69
86.70
82.52
76.83
71.39
67.44
65.34
64.65
64.52
64.15
63.08
61.30
59.04
56.53
53.79
50.55
46.44
41.15
34.65
27.24
19.47
11.89
4.84
-1.68
-8.07
-15.04
-23.36
-33.67
-46.08
-59.78
-72.94
-82.97
-87.21
-83.85
-72.69
-55.27
-34.37
-13.06
6.15
21.73
33.01
39.78
41.95
39.50
32.78
22.64
10.47
-2.11
-13.72
-23.47
-31.01
-36.35
-39.65
-41.02
-40.61
-38.69
-35.75
-32.52
-29.84
-28.39
-28.51
-30.04
-32.33
-34.50
-35.78
-35.79
-34.75
-33.43
-32.85
-33.97
-37.35
-42.87
-49.60
-55.78
-59.03
-56.81
-47.09
-29.00
-3.27
27.79
60.93
92.76
120.53
142.58
158.32
167.97
172.16
171.83
168.03
161.98
154.95
148.11
142.37
138.28
135.93
134.90
134.40
133.31
130.45
124.83
115.88
103.63
88.59
71.63
53.76
35.90
18.75
2.67
-12.39
-27.04
-42.32
-59.43
-79.06
-100.81
-122.81
-141.90
-154.49
-157.78
-150.86
-135.19
-114.33
-92.88
-75.18
-64.31
-61.64
-66.86
-78.39
-93.76
-109.89
-123.48
-131.51
-131.96
-124.20
-109.24
-89.37
-67.42
-46.10
-27.47
-12.80
-2.70
2.71
3.70
0.84
-5.03
-12.91
-21.86
-31.14
-40.35
-49.35
-58.26
-67.36
-77.14
-88.11
-100.65
-114.63
-129.08
-142.09
-151.01
-153.04
-146.05
-129.36
-104.09
-73.00
-39.78
-8.06
19.43
41.29
57.27
67.85
73.74
75.58
73.96
69.54
63.23
56.10
49.28
43.58
39.32
36.32
34.02
31.80
29.13
25.78
21.69
16.98
11.80
6.31
0.61
-5.22
-11.20
-17.44
-24.22
-31.99
-41.29
-52.51
-65.51
-79.17
-91.27
-98.85
-99.02
-89.95
-71.66
-46.11
-16.62
13.14
40.18
62.71
80.20
92.88
101.33
106.06
107.49
105.99
102.06
96.33
89.52
82.34
75.46
69.32
64.21
60.24
57.50
56.11
56.17
57.57
59.78
61.58
61.21
56.83
47.19
32.28
13.45
-6.98
-26.69
-44.14
-59.05
-71.99
-83.45
-93.01
-99.00
-99.07
-91.33
-75.49
-53.28
-28.06
-3.72
16.59
31.27
40.35
44.90
46.31
45.58
43.24
39.53
34.82
29.73
25.11
21.71
19.94
19.69
20.49
21.75
23.01
23.99
24.63
24.91
24.80
24.24
23.19
21.60
19.38
16.39
12.37
7.01
-0.01
-8.97
-20.00
-33.01
-47.40
-61.85
-74.26
-82.13
-83.24
-76.45
-62.21
-42.54
-20.33
1.56
21.11
37.33
50.04
59.30
65.05
67.00
65.04
59.58
51.83
43.63
36.94
33.23
33.08
36.07
40.96
46.21
50.38
52.44
51.89
48.72
43.25
36.01
27.57
18.34
8.52
-1.95
-13.29
-25.77
-39.58
-54.80
-71.21
-88.12
-104.07
-116.77
-123.51
-121.85
-110.60
-90.42
-63.88
-34.72
-6.68
17.52
36.66
50.79
60.55
66.45
68.57
66.76
61.17
52.65
42.85
33.75
27.10
23.78
23.59
25.52
28.24
30.68
32.35
33.24
33.56
33.39
32.43
30.13
25.90
19.32
10.38
-0.72
-13.50
-27.32
-41.23
-53.71
-62.80
-66.32
-62.66
-51.43
-33.91
-12.68
9.04
28.51
44.09
55.37
62.72
66.72
67.72
65.82
61.23
54.54
46.92
39.81
34.49
31.61
30.94
31.60
32.39
32.35
31.03
28.57
25.40
21.98
18.52
14.89
10.59
4.72
-4.01
-17.00
-35.23
-58.61
-85.44
-112.60
-136.18
-152.67
-159.94
-157.55
-146.49
-128.40
-105.20
-78.87
-51.71
-26.37
-5.37
9.60
18.27
21.76
21.97
20.80
19.55
18.94
19.41
21.41
25.23
30.68
36.79
42.09
45.36
46.37
46.17
46.49
48.65
52.55
56.31
56.82
50.85
36.26
12.80
-17.72
-51.87
-85.22
-113.11
-131.29
-136.54
-127.27
-103.87
-68.93
-26.91
16.63
56.19
87.47
108.22
118.41
119.79
115.08
107.11
98.23
90.16
83.95
80.11
78.54
78.48
78.61
77.40
73.61
66.91
58.03
48.49
39.88
33.21
28.54
25.01
21.40
16.76
10.77
3.80
-3.32
-9.61
-14.10
-15.81
-13.73
-6.91
5.13
21.99
42.13
63.09
82.07
96.72
105.71
108.87
106.92
101.02
92.33
81.88
70.69
59.82
50.21
42.45
36.47
31.47
26.33
20.15
12.66
4.30
-4.08
-11.54
-17.36
-21.29
-23.72
-25.55
-28.22
-33.37
-42.35
-55.64
-72.38
-90.21
-105.63
-114.84
-114.85
-104.53
-85.17
-60.11
-33.71
-9.88
9.11
23.06
33.15
40.93
47.07
51.13
52.08
49.12
42.46
33.28
23.17
13.43
4.59
-3.46
-11.07
-18.46
-25.69
-32.72
-39.73
-47.22
-55.63
-64.89
-73.99
-81.13
-84.42
-82.97
-77.56
-70.38
-63.88
-59.23
-55.45
-49.82
-39.33
-22.45
-0.03
25.09
49.50
70.66
87.53
100.14
108.62
112.51
110.82
102.75
88.41
69.07
46.79
23.76
1.72
-18.22
-35.50
-49.85
-61.08
-69.04
-73.68
-75.19
-74.12
-71.40
-68.20
-65.61
-64.36
-64.53
-65.71
-67.35
-69.21
-71.67
-75.60
-81.85
-90.60
-100.86
-110.40
-116.33
-115.95
-107.72
-91.82
-70.13
-45.56
-21.09
1.04
19.61
34.24
44.95
51.79
54.78
54.12
50.38
44.65
38.32
32.77
28.94
27.12
26.84
27.05
26.51
24.27
19.97
13.94
6.99
-0.03
-6.56
-12.61
-18.53
-24.84
-32.04
-40.52
-50.59
-62.42
-75.73
-89.48
-101.66
-109.58
-110.67
-103.35
-87.71
-65.55
-39.85
-13.84
9.94
29.94
45.68
57.29
65.15
69.64
71.15
70.18
67.42
63.64
59.58
55.70
52.18
48.93
45.81
42.72
39.66
36.59
33.33
29.58
25.01
19.50
13.25
6.62
-0.00
-6.47
-13.00
-20.09
-28.34
-38.23
-49.97
-63.26
-77.07
-89.53
-98.17
-100.46
-94.67
-80.54
-59.53
-34.38
-8.24
16.12
36.91
53.32
65.21
72.77
76.26
76.10
72.86
67.37
60.53
53.11
45.58
38.18
31.06
24.54
19.26
15.99
15.26
16.90
19.82
22.28
22.57
19.92
14.95
9.58
6.24
6.68
11.07
17.66
23.28
24.48
18.87
5.93
-12.80
-34.28
-54.95
-71.40
-80.88
-81.49
-72.41
-54.32
-29.76
-3.10
20.74
38.09
48.07
52.54
54.29
54.72
52.66
45.65
32.66
16.32
2.68
-1.83
5.75
22.71
41.89
55.48
59.10
53.64
43.94
35.39
31.06
30.62
31.43
30.52
25.86
16.77
3.51
-13.27
-32.62
-53.28
-73.61
-92.18
-108.00
-121.05
-132.00
-141.62
-149.99
-156.10
-158.17
-154.33
-143.73
-126.95
-106.08
-84.20
-64.55
-49.76
-41.01
-37.79
-38.09
-39.29
-39.22
-37.14
-33.91
-31.40
-31.53
-35.23
-41.98
-49.56
-54.57
-53.02
-41.63
-19.34
11.46
44.72
72.27
86.64
84.27
66.86
40.51
12.60
-11.48
-29.97
-44.27
-56.90
-69.19
-80.39
-88.30
-90.62
-86.04
-74.11
-54.66
-27.73
5.61
42.11
75.97
100.23
109.62
103.18
84.99
62.31
42.21
28.79
22.38
21.07
23.04
28.37
38.71
55.73
79.37
107.28
135.53
159.81
176.22
181.46
173.04
149.49
111.06
60.59
3.24
-54.55
-107.13
-151.28
-186.91
-216.21
-241.66
-264.15
-282.05
-291.86
-289.90
-274.12
-245.23
-206.83
-164.57
-124.73
-92.66
-71.52
-61.77
-61.31
-66.45
-73.14
-77.98
-78.53
-73.00
-59.87
-37.98
-7.12
31.08
73.07
114.12
149.88
177.73
197.22
209.28
215.13
215.39
210.13
199.62
185.01
168.49
152.60
139.23
128.91
120.92
113.77
105.70
95.10
80.59
61.43
38.17
13.24
-8.96
-23.18
-25.29
-14.05
8.21
36.44
64.99
89.65
108.76
122.60
132.10
137.45
137.93
132.69
121.89
107.41
92.35
79.74
71.15
66.15
62.84
59.22
54.45
49.24
45.19
43.63
44.64
46.95
48.72
48.44
45.74
41.38
36.89
33.93
33.92
37.63
45.15
55.84
68.48
81.71
94.35
105.52
114.56
120.76
123.15
120.83
113.52
101.99
88.05
73.82
60.72
48.66
36.19
21.85
5.96
-8.27
-15.43
-10.39
8.64
38.21
70.18
94.72
104.14
95.78
72.18
39.15
2.86
-32.23
-63.57
-89.66
-109.05
-120.45
-123.91
-122.03
-119.99
-124.08
-139.11
-165.99
-200.69
-235.31
-260.74
-270.00
-260.77
-236.07
-202.73
-168.61
-139.79
-118.88
-105.11
-95.70
-87.51
-78.48
-67.96
-56.46
-45.10
-35.08
-27.55
-23.34
-22.71
-25.11
-28.98
-32.15
-32.49
-28.69
-20.50
-8.46
6.81
25.03
46.22
69.94
94.65
117.34
134.22
141.73
137.64
121.59
94.94
60.45
21.91
-16.09
-48.57
-70.87
-79.73
-74.14
-55.62
-27.67
5.16
37.97
66.02
85.25
92.86
88.20
73.32
52.70
31.76
14.91
3.93
-2.36
-7.12
-13.64
-23.56
-36.18
-49.13
-59.88
-67.35
-72.71
-78.84
-88.91
-104.71
-125.78
-149.58
-172.75
-192.52
-207.78
-219.03
-227.66
-234.63
-239.66
-240.91
-235.64
-221.35
-196.69
-162.06
-119.41
-71.54
-21.47
27.75
72.76
109.84
135.58
148.42
150.42
147.51
147.64
156.91
176.11
199.85
219.24
226.59
219.52
201.85
180.99
163.45
151.63
143.38
134.45
121.57
104.15
83.59
61.13
36.37
7.53
-26.56
-64.54
-101.99
-133.08
-153.10
-160.21
-155.78
-142.89
-124.61
-102.98
-79.14
-54.31
-30.48
-10.24
4.14
11.79
13.62
11.93
9.37
8.02
8.84
11.75
15.99
20.54
24.47
27.17
28.49
28.55
27.55
25.43
21.85
16.25
8.12
-2.74
-16.07
-31.11
-46.59
-60.78
-71.64
-77.07
-75.49
-66.34
-50.47
-30.11
-8.19
12.44
29.78
43.04
52.39
58.45
61.79
62.58
60.93
57.06
51.66
45.86
40.82
37.33
35.46
34.63
33.84
32.26
29.52
25.80
21.70
17.90
14.81
12.39
10.03
6.78
1.52
-6.84
-19.06
-35.13
-53.95
-73.04
-88.89
-97.82
-97.31
-86.98
-68.81
-46.39
-23.55
-3.27
12.81
24.02
30.03
30.46
25.15
14.77
1.08
-13.18
-25.41
-34.15
-39.59
-43.15
-46.56
-50.58
-54.71
-57.50
-57.49
-53.92
-47.01
-37.77
-27.85
-19.42
-14.87
-16.37
-25.17
-40.90
-61.43
-83.18
-102.13
-114.81
-119.10
-114.58
-102.40
-84.57
-63.19
-39.75
-14.93
11.33
39.07
67.35
93.68
114.10
124.52
122.49
108.59
86.65
62.66
42.61
30.53
27.23
30.31
35.44
38.19
35.61
27.13
14.11
-1.21
-16.99
-32.32
-47.08
-61.29
-74.48
-85.64
-93.63
-98.09
-99.94
-101.09
-103.56
-108.20
-113.82
-117.24
-114.48
-102.41
-80.20
-49.82
-15.56
17.30
44.02
61.57
69.24
68.41
62.03
53.59
46.21
41.69
40.19
40.41
40.50
39.14
36.52
34.37
35.19
40.94
52.06
67.16
83.57
98.33
109.10
114.69
114.92
110.32
101.69
90.04
76.55
62.53
49.13
37.16
26.88
18.23
11.16
6.06
3.77
5.36
11.64
22.60
37.22
53.62
69.58
83.03
92.58
97.61
98.22
94.93
88.53
79.75
69.39
58.35
47.61
38.06
30.24
23.97
18.45
12.56
5.46
-2.85
-11.46
-19.02
-24.44
-27.54
-29.11
-30.46
-32.58
-35.77
-39.49
-42.96
-45.85
-48.73
-53.12
-60.74
-72.55
-87.69
-103.20
-114.63
-117.49
-109.05
-89.49
-61.99
-31.70
-4.14
16.29
26.88
26.83
17.18
0.95
-17.03
-30.75
-34.62
-25.54
-4.33
24.25
53.28
76.24
89.25
91.90
86.46
76.29
64.25
51.98
39.85
27.55
14.62
0.94
-13.14
-26.81
-39.16
-49.72
-58.79
-67.22
-75.65
-83.47
-88.35
-86.59
-74.82
-51.79
-19.50
17.30
52.91
82.95
105.65
121.65
132.11
137.16
135.24
124.25
103.33
74.38
41.70
10.21
-16.67
-37.92
-54.12
-65.68
-71.64
-70.02
-59.67
-42.18
-22.37
-6.65
-0.16
-4.24
-16.14
-30.60
-42.94
-51.13
-56.30
-61.25
-68.31
-77.67
-87.17
-93.56
-94.03
-87.43
-74.58
-57.53
-38.37
-18.36
2.24
23.85
46.82
70.68
93.79
113.52
127.09
132.67
130.20
121.56
109.88
98.29
88.80
81.88
76.75
72.24
67.57
62.75
58.21
54.48
51.74
49.86
48.55
47.55
46.62
45.38
42.97
38.38
31.10
22.15
14.54
12.68
20.63
39.90
68.26
100.22
129.26
150.65
163.26
169.53
173.48
178.12
183.80
188.43
188.86
182.75
169.35
149.05
122.49
90.15
52.96
13.16
-25.49
-58.76
-83.79
-100.65
-112.38
-123.31
-136.75
-153.20
-170.33
-184.55
-193.38
-196.87
-197.55
-198.95
-203.71
-212.24
-222.66
-231.80
-236.44
-234.56
-225.57
-210.10
-189.50
-165.23
-138.89
-112.30
-87.58
-66.92
-51.98
-43.22
-39.52
-38.40
-36.70
-31.50
-20.94
-4.62
16.43
40.07
63.59
84.28
99.93
109.44
112.96
111.72
107.42
101.51
94.73
87.18
78.78
69.81
61.15
53.85
48.46
44.75
42.02
39.82
38.52
39.18
42.77
49.42
58.22
67.71
76.80
85.10
92.47
98.06
99.60
93.75
77.24
48.47
8.55
-38.51
-86.80
-129.87
-161.99
-179.22
-180.28
-166.71
-142.87
-114.82
-88.80
-69.46
-58.47
-54.10
-52.18
-48.06
-38.69
-23.82
-5.53
13.50
31.78
49.54
67.72
86.26
102.99
114.25
117.05
111.34
100.86
91.80
89.56
95.58
106.32
114.89
114.82
103.46
83.22
59.91
39.45
25.14
16.75
11.54
6.47
0.07
-7.25
-13.97
-18.99
-22.40
-25.44
-29.78
-36.57
-46.02
-57.26
-68.57
-77.83
-83.32
-84.39
-82.12
-79.05
-77.82
-79.59
-82.90
-84.09
-79.09
-65.50
-43.93
-17.84
8.13
30.22
46.91
58.65
66.68
71.80
73.68
71.50
64.94
55.02
43.99
34.35
27.61
23.74
21.19
17.88
12.29
4.09
-5.77
-15.80
-24.77
-32.31
-38.99
-45.97
-54.50
-65.28
-78.32
-92.84
-107.22
-119.09
-125.49
-123.40
-110.52
-86.24
-52.42
-13.37
25.18
57.55
79.77
90.55
91.21
84.77
74.66
63.65
53.34
44.41
37.30
32.69
31.53
34.49
41.11
49.47
56.62
59.95
58.71
54.58
50.77
50.03
52.57
55.29
53.01
41.05
17.67
-15.03
-52.21
-88.71
-121.20
-149.01
-173.08
-194.13
-211.17
-221.36
-221.06
-207.70
-181.09
-144.01
-101.51
-59.64
-23.84
2.13
16.54
19.37
12.05
-2.84
-21.51
-39.17
-50.92
-52.99
-44.07
-25.97
-2.92
19.83
37.88
48.96
53.44
53.84
53.84
57.09
66.23
81.96
102.64
124.69
143.66
156.01
160.72
159.92
158.07
159.56
166.53
177.08
185.96
186.86
175.43
151.51
118.98
83.70
50.36
20.40
-7.56
-34.98
-60.47
-78.45
-81.34
-63.99
-27.75
18.59
62.11
91.47
101.94
96.80
84.72
74.82
72.72
79.16
91.35
105.53
118.53
127.77
130.31
122.38
100.66
63.86
14.27
-42.28
-97.78
-143.98
-174.17
-184.25
-173.18
-143.08
-98.81
-46.96
5.73
54.30
96.53
132.59
163.50
189.35
208.46
218.02
215.96
202.65
181.30
156.56
132.48
110.70
90.16
68.18
42.40
12.12
-21.56
-56.77
-92.26
-128.29
-166.50
-209.17
-258.45
-315.88
-381.99
-455.73
-533.66
-609.55
-674.96
-721.38
-742.94
-738.74
-713.13
-673.92
-629.41
-585.73
-545.81
-510.10
-478.25
-450.37
-427.13
-408.88
-394.80
-382.70
-369.82
-353.96
-334.33
-311.55
-287.23
-262.85
-239.07
-215.49
-190.92
-164.14
-134.61
-102.81
-70.23
-38.84
-10.38
14.23
35.02
52.88
68.98
84.27
99.13
113.25
126.01
136.92
146.04
154.17
162.66
173.01
186.19
202.37
220.74
239.93
258.84
277.19
295.76
315.86
338.37
362.90
387.61
409.68
425.91
433.64
431.01
417.21
392.77
359.79
322.19
285.27
254.44
233.72
224.37
224.49
230.05
236.75
241.76
244.61
246.67
249.79
254.71
260.39
264.34
263.95
257.81
246.46
232.07
217.32
204.32
193.84
185.17
176.50
165.65
151.09
132.37
110.72
88.67
69.26
54.75
45.56
40.16
35.88
30.23
21.83
10.58
-3.19
-19.17
-37.14
-56.37
-75.07
-90.60
-100.63
-104.41
-103.26
-99.84
-96.72
-95.25
-95.13
-95.13
-94.12
-91.67
-87.91
-82.97
-76.73
-69.01
-60.17
-51.33
-44.13
-39.95
-39.07
-40.49
-42.30
-42.65
-40.52
-36.00
-30.07
-23.99
-18.82
-15.05
-12.70
-11.66
-11.92
-13.65
-17.20
-22.78
-30.36
-39.51
-49.35
-58.68
-66.03
-70.02
-69.65
-64.65
-55.67
-44.31
-32.72
-22.97
-16.38
-12.96
-11.60
-10.52
-8.17
-3.90
1.77
7.38
11.16
11.55
7.60
-0.70
-12.23
-24.67
-34.60
-38.26
-32.65
-16.81
7.61
36.59
64.85
87.21
99.81
100.75
90.22
70.16
43.79
14.89
-12.70
-35.45
-50.70
-57.24
-55.86
-49.07
-40.42
-33.01
-28.46
-26.32
-24.78
-21.87
-16.84
-10.56
-5.14
-2.58
-3.72
-7.91
-13.43
-18.37
-21.27
-21.40
-18.81
-14.33
-9.49
-6.25
-6.50
-11.51
-21.62
-36.05
-53.01
-69.84
-83.35
-90.42
-88.78
-77.79
-58.95
-35.56
-11.68
9.30
25.73
37.99
47.85
57.30
67.56
78.70
89.80
99.50
106.47
109.64
108.47
103.21
95.04
85.95
78.06
72.72
69.85
68.07
65.50
60.87
53.99
45.52
36.11
25.71
13.75
-0.04
-14.60
-27.43
-35.38
-36.19
-29.57
-17.37
-2.66
11.63
23.67
32.86
39.30
43.06
43.95
41.79
36.81
29.97
22.62
16.11
11.25
8.39
7.63
9.12
13.12
19.61
27.96
36.75
44.11
48.31
48.33
44.11
36.40
26.33
15.26
4.68
-3.70
-8.34
-8.37
-4.26
2.12
8.15
11.54
11.25
7.65
2.05
-4.21
-10.14
-15.23
-19.09
-21.39
-22.06
-21.63
-21.31
-22.31
-25.06
-28.54
-30.66
-29.33
-23.64
-14.38
-3.58
6.58
14.82
21.12
26.16
30.69
35.14
39.78
45.06
51.90
61.24
73.20
86.43
98.55
107.66
113.91
119.98
129.81
146.16
168.53
192.83
213.33
225.62
228.81
225.33
218.78
211.28
202.26
189.20
169.84
143.87
113.06
80.02
46.39
12.23
-23.36
-61.09
-100.67
-140.70
-179.11
-213.92
-243.31
-265.64
-279.55
-284.41
-280.93
-271.36
-259.02
-247.24
-238.51
-233.94
-233.51
-236.59
-242.35
-249.87
-257.77
-264.12
-266.45
-262.57
-251.15
-232.37
-207.63
-178.92
-148.08
-116.29
-84.28
-52.79
-23.18
2.47
21.87
33.42
37.00
34.01
26.98
18.74
11.87
8.33
9.27
14.74
23.56
33.60
42.64
49.69
55.43
61.94
71.52
85.46
103.38
123.46
143.15
159.82
171.32
176.07
173.25
163.26
147.99
130.70
115.04
103.85
98.05
96.60
97.16
97.30
95.35
90.53
82.74
72.13
59.00
43.67
26.60
8.31
-10.73
-30.15
-49.78
-69.42
-88.44
-105.38
-117.83
-123.03
-118.93
-105.41
-84.92
-61.90
-41.43
-27.38
-21.26
-22.00
-26.81
-32.48
-36.43
-37.12
-33.87
-26.58
-15.52
-1.56
13.82
28.62
40.85
49.25
53.71
55.33
55.87
56.97
59.42
62.95
66.39
68.29
67.52
63.60
56.77
47.59
36.66
24.30
10.57
-4.44
-20.21
-35.51
-48.44
-56.77
-58.61
-53.03
-40.41
-22.49
-1.87
18.59
36.50
50.31
59.35
63.63
63.59
59.95
53.76
46.31
38.97
32.76
27.90
23.59
18.23
10.18
-1.35
-15.60
-30.35
-42.76
-50.56
-53.06
-51.58
-48.78
-47.43
-49.23
-54.09
-60.54
-66.61
-70.90
-73.14
-74.12
-75.13
-77.33
-81.47
-87.84
-96.40
-106.86
-118.46
-129.69
-138.15
-140.69
-134.17
-116.23
-86.28
-46.00
0.80
48.86
92.80
128.28
152.75
165.56
167.55
160.61
147.26
130.47
113.31
98.49
87.86
81.94
79.91
79.99
80.10
78.35
73.46
64.88
52.67
37.54
20.62
3.26
-13.32
-28.44
-42.10
-54.87
-67.62
-81.09
-95.44
-110.14
-123.91
-135.07
-141.89
-142.96
-137.45
-125.31
-107.25
-84.71
-59.76
-34.81
-12.38
5.52
17.82
24.90
28.45
30.87
34.41
40.24
48.15
56.85
64.70
70.53
74.00
75.40
75.17
73.42
69.84
64.02
55.86
45.88
35.02
24.33
14.48
5.56
-2.85
-11.33
-20.32
-30.03
-40.43
-51.51
-63.19
-75.18
-86.66
-96.08
-101.45
-100.84
-93.18
-78.80
-59.36
-37.29
-15.06
5.56
23.55
38.47
49.99
57.60
60.86
59.66
54.62
47.05
38.58
30.64
24.03
18.88
14.95
11.93
9.60
7.82
6.28
4.37
1.20
-4.09
-11.91
-21.97
-33.29
-44.53
-54.58
-63.14
-70.90
-79.23
-89.43
-101.78
-115.08
-126.68
-133.46
-132.97
-124.39
-108.79
-88.62
-66.77
-45.62
-26.62
-10.32
3.19
13.84
21.32
25.23
25.37
22.05
16.12
8.64
0.58
-7.33
-14.51
-20.09
-22.78
-21.07
-14.03
-1.90
13.68
30.24
45.58
58.66
69.91
80.63
92.17
105.10
119.09
133.13
145.93
156.17
162.58
164.29
161.24
154.67
146.99
141.02
138.82
140.71
145.09
149.33
151.14
149.66
145.64
140.75
136.38
132.89
129.58
125.23
118.93
110.53
100.53
89.62
78.31
66.61
54.37
41.57
28.56
16.08
4.85
-4.88
-13.48
-21.83
-30.94
-41.43
-53.28
-65.85
-78.09
-88.96
-97.85
-104.78
-110.49
-116.19
-123.10
-131.73
-141.44
-150.25
-155.49
-154.68
-146.67
-132.16
-113.45
-93.53
-74.95
-59.17
-46.57
-37.08
-30.67
-27.47
-27.45
-29.91
-33.39
-36.18
-37.07
-35.90
-33.47
-30.82
-28.36
-25.51
-21.03
-14.06
-5.05
4.04
10.41
11.69
6.98
-2.93
-16.10
-30.50
-44.67
-57.94
-70.14
-81.13
-90.81
-99.22
-106.73
-114.00
-121.40
-128.58
-134.20
-136.23
-132.71
-122.20
-104.11
-78.51
-46.09
-8.25
32.67
73.19
109.09
136.32
152.34
157.12
153.19
144.75
136.03
129.81
126.72
125.58
124.42
121.81
117.38
111.68
105.46
98.96
91.69
82.88
72.20
60.21
48.19
37.57
29.12
22.65
17.10
11.10
3.54
-5.89
-16.60
-27.31
-36.36
-42.15
-43.56
-40.13
-32.23
-20.94
-7.74
5.83
18.48
29.29
37.79
43.81
47.45
48.96
48.78
47.45
45.54
43.43
41.20
38.62
35.22
30.51
24.22
16.47
7.79
-1.05
-9.19
-15.99
-21.08
-24.46
-26.41
-27.47
-28.38
-29.97
-33.04
-37.99
-44.58
-51.74
-57.80
-60.96
-59.92
-54.35
-44.93
-33.02
-20.21
-7.81
3.26
12.46
19.37
23.61
24.88
23.20
19.04
13.34
7.35
2.26
-1.14
-2.59
-2.45
-1.43
-0.34
0.15
-0.28
-1.62
-3.69
-6.23
-9.08
-12.23
-15.76
-19.88
-24.85
-30.94
-38.34
-46.93
-56.07
-64.52
-70.64
-72.84
-70.13
-62.50
-50.93
-37.10
-22.80
-9.48
1.90
10.87
17.09
20.32
20.45
17.65
12.58
6.35
0.30
-4.37
-6.94
-7.31
-5.99
-3.83
-1.67
-0.07
0.84
1.24
1.38
1.37
1.00
-0.17
-2.64
-6.87
-13.08
-21.26
-31.06
-41.73
-51.97
-60.11
-64.37
-63.46
-57.03
-45.84
-31.57
-16.23
-1.60
11.17
21.51
29.23
34.25
36.50
36.02
33.18
28.75
23.79
19.36
16.12
14.19
13.15
12.28
10.89
8.61
5.43
1.64
-2.41
-6.40
-10.25
-13.99
-17.80
-21.96
-26.84
-32.83
-40.18
-48.74
-57.67
-65.44
-70.10
-69.89
-63.86
-52.31
-36.70
-19.13
-1.63
14.35
28.03
39.11
47.38
52.52
54.27
52.72
48.59
43.16
37.87
33.83
31.39
30.12
29.08
27.36
24.48
20.56
16.13
11.76
7.69
3.70
-0.73
-6.19
-13.09
-21.59
-31.64
-42.99
-55.15
-67.11
-77.32
-83.89
-85.11
-80.06
-69.03
-53.44
-35.44
-17.19
-0.40
13.85
24.98
32.71
36.91
37.72
35.71
31.87
27.44
23.52
20.72
19.03
17.93
16.75
15.03
12.69
10.01
7.40
5.16
3.28
1.39
-1.09
-4.88
-10.56
-18.43
-28.26
-39.08
-49.23
-56.63
-59.39
-56.39
-47.73
-34.75
-19.49
-4.10
9.75
21.03
29.22
34.03
35.29
33.08
27.89
20.77
13.09
6.13
0.67
-3.25
-6.18
-8.93
-12.09
-15.83
-19.87
-23.73
-27.03
-29.74
-32.22
-35.22
-39.55
-45.91
-54.55
-64.95
-75.74
-84.82
-89.82
-88.81
-80.96
-66.88
-48.43
-28.06
-8.09
9.82
24.76
36.32
44.25
48.35
48.65
45.65
40.49
34.67
29.66
26.30
24.62
23.92
23.26
21.91
19.64
16.71
13.54
10.39
7.14
3.32
-1.72
-8.60
-17.68
-28.88
-41.46
-53.93
-64.15
-69.78
-68.95
-60.88
-46.28
-27.07
-5.85
14.90
33.39
48.61
60.18
67.93
71.82
71.96
68.82
63.42
57.13
51.34
47.00
44.30
42.75
41.44
39.54
36.67
32.95
28.84
24.77
20.82
16.65
11.57
4.77
-4.41
-16.20
-30.13
-44.90
-58.41
-68.13
-71.69
-67.65
-56.01
-38.32
-17.12
4.78
25.10
42.48
56.38
66.72
73.42
76.35
75.50
71.28
64.70
57.28
50.57
45.69
42.89
41.56
40.53
38.66
35.26
30.39
24.70
19.02
13.91
9.32
4.68
-0.90
-8.28
-18.03
-30.21
-44.20
-58.66
-71.53
-80.37
-82.93
-77.92
-65.53
-47.39
-26.13
-4.49
15.38
32.28
45.75
55.67
61.88
64.25
62.84
58.27
51.77
44.90
39.10
35.21
33.24
32.50
31.98
30.82
28.62
25.51
21.91
18.21
14.51
10.51
5.68
-0.62
-8.85
-19.21
-31.47
-44.85
-57.83
-68.32
-74.01
-73.03
-64.67
-49.73
-30.36
-9.40
10.54
27.68
41.27
51.20
57.55
60.29
59.32
54.82
47.60
39.09
31.06
25.04
21.81
21.17
22.02
22.92
22.54
20.23
16.05
10.63
4.81
-0.82
-6.07
-11.23
-16.86
-23.55
-31.76
-41.78
-53.48
-66.19
-78.47
-88.15
-92.74
-90.15
-79.57
-61.85
-39.39
-15.38
7.18
26.25
41.00
51.55
58.38
61.91
62.39
60.06
55.40
49.31
43.00
37.65
34.07
32.34
31.88
31.63
30.53
27.91
23.74
18.56
13.11
7.97
3.25
-1.41
-6.64
-13.06
-21.13
-31.03
-42.61
-55.30
-67.84
-78.33
-84.42
-83.96
-75.84
-60.46
-39.79
-16.74
5.73
25.43
41.27
53.08
61.15
65.78
67.10
65.29
60.80
54.52
47.67
41.51
36.95
34.30
33.18
32.73
31.98
30.16
26.93
22.43
17.10
11.46
5.82
0.23
-5.47
-11.52
-18.14
-25.50
-33.82
-43.45
-54.53
-66.70
-78.68
-88.18
-92.52
-89.54
-78.50
-60.50
-38.21
-14.90
6.54
24.33
37.78
47.06
52.60
54.73
53.77
50.10
44.46
37.92
31.70
26.87
23.98
22.97
23.18
23.69
23.64
22.56
20.38
17.33
13.73
9.69
5.16
-0.02
-5.93
-12.49
-19.59
-27.22
-35.60
-45.01
-55.38
-65.92
-74.84
-79.75
-78.41
-69.63
-53.87
-33.26
-10.84
10.33
28.08
41.40
50.28
55.15
56.47
54.62
49.94
43.10
35.11
27.22
20.60
15.99
13.56
12.81
12.85
12.70
11.51
8.86
4.77
-0.38
-6.08
-11.86
-17.47
-22.93
-28.39
-34.11
-40.38
-47.52
-55.84
-65.40
-75.67
-85.28
-92.03
-93.47
-87.67
-74.13
-54.06
-30.09
-5.49
16.86
35.12
48.63
57.58
62.62
64.42
63.57
60.65
56.31
51.29
46.32
42.04
38.79
36.61
35.23
34.20
33.04
31.31
28.75
25.25
20.80
15.53
9.58
3.18
-3.47
-10.15
-16.79
-23.48
-30.58
-38.66
-48.30
-59.63
-71.87
-83.19
-90.94
-92.48
-86.12
-71.87
-51.54
-28.17
-4.99
15.49
31.95
44.18
52.56
57.54
59.42
58.39
54.79
49.29
42.87
36.64
31.55
28.11
26.33
25.78
25.77
25.58
24.64
22.63
19.45
15.21
10.18
4.69
-0.97
-6.55
-11.97
-17.31
-22.94
-29.38
-37.27
-46.96
-58.04
-69.14
-77.94
-81.79
-78.65
-67.84
-50.48
-29.09
-6.81
13.58
30.27
42.56
50.54
54.65
55.45
53.45
49.26
43.61
37.37
31.39
26.34
22.58
20.08
18.58
17.61
16.69
15.38
13.41
10.64
7.07
2.82
-1.90
-6.88
-11.95
-17.09
-22.37
-28.07
-34.63
-42.48
-51.88
-62.50
-73.19
-81.87
-85.99
-83.33
-72.77
-54.97
-32.17
-7.60
15.59
35.06
49.72
59.46
64.75
66.20
64.46
60.15
54.09
47.23
40.56
34.87
30.63
27.88
26.34
25.51
24.81
23.71
21.76
18.68
14.39
8.99
2.81
-3.73
-10.23
-16.34
-22.01
-27.42
-33.10
-39.77
-48.06
-58.23
-69.64
-80.57
-88.46
-90.53
-84.75
-70.71
-49.81
-24.99
0.28
22.99
41.25
54.45
62.83
67.05
67.77
65.61
61.21
55.38
49.01
42.99
37.93
34.09
31.37
29.49
28.05
26.73
25.22
23.32
20.81
17.57
13.58
8.95
3.83
-1.57
-7.15
-12.93
-19.04
-25.78
-33.58
-42.79
-53.41
-64.71
-74.97
-81.77
-82.59
-75.83
-61.52
-41.46
-18.72
3.45
22.57
37.44
47.98
54.67
57.98
58.10
55.11
49.37
41.70
33.38
25.79
20.03
16.53
14.99
14.64
14.52
13.83
12.19
9.63
6.45
2.99
-0.51
-4.06
-7.85
-12.12
-17.13
-23.08
-30.14
-38.36
-47.45
-56.53
-64.02
-67.86
-66.16
-57.89
-43.48
-24.78
-4.51
14.63
30.62
42.47
50.01
53.50
53.29
49.78
43.60
35.70
27.38
19.94
14.38
11.06
9.71
9.57
9.70
9.27
7.82
5.24
1.77
-2.24
-6.44
-10.64
-14.84
-19.24
-24.18
-30.04
-37.23
-46.00
-56.27
-67.33
-77.65
-85.07
-87.28
-82.61
-70.68
-52.66
-30.96
-8.48
12.20
29.36
42.30
50.99
55.68
56.64
54.20
48.86
41.51
33.37
25.81
19.97
16.37
14.83
14.46
14.13
12.79
9.90
5.63
0.59
-4.45
-9.00
-13.05
-17.02
-21.59
-27.40
-34.89
-44.24
-55.22
-67.06
-78.27
-86.65
-89.74
-85.59
-73.52
-54.58
-31.28
-6.87
15.72
34.51
48.67
58.16
63.24
64.26
61.59
55.81
47.96
39.36
31.43
25.22
21.17
19.01
17.90
16.74
14.66
11.27
6.77
1.82
-2.85
-6.79
-10.10
-13.37
-17.50
-23.31
-31.38
-41.84
-54.26
-67.50
-79.66
-88.29
-90.91
-85.80
-72.67
-52.89
-29.19
-4.78
17.58
36.12
50.17
59.78
65.29
67.02
65.29
60.64
53.99
46.64
39.96
35.01
32.24
31.28
31.21
30.93
29.64
27.12
23.67
19.83
16.01
12.17
7.85
2.42
-4.65
-13.63
-24.47
-36.88
-50.20
-63.35
-74.62
-81.83
-82.78
-76.05
-61.61
-41.06
-17.29
6.36
27.11
43.28
54.46
61.02
63.61
62.75
58.87
52.54
44.68
36.65
29.85
25.33
23.30
23.12
23.60
23.50
22.06
19.19
15.35
11.20
7.19
3.35
-0.62
-5.20
-10.82
-17.80
-26.31
-36.42
-47.94
-60.13
-71.50
-79.89
-82.87
-78.61
-66.59
-47.99
-25.40
-2.01
19.31
36.75
49.65
58.13
62.53
63.11
60.06
53.83
45.37
36.21
28.03
22.23
19.32
18.89
19.75
20.45
19.91
17.70
14.13
9.92
5.83
2.16
-1.26
-4.99
-9.64
-15.69
-23.36
-32.70
-43.51
-55.20
-66.50
-75.42
-79.59
-77.00
-66.82
-49.87
-28.49
-5.75
15.46
33.19
46.52
55.29
59.61
59.57
55.34
47.41
36.90
25.46
15.00
7.12
2.61
1.28
2.08
3.57
4.43
3.93
2.05
-0.78
-4.03
-7.41
-11.00
-15.20
-20.40
-26.90
-34.72
-43.68
-53.23
-62.39
-69.64
-73.14
-71.19
-62.79
-48.19
-28.95
-7.53
13.42
31.69
45.90
55.42
60.17
60.36
56.46
49.30
40.18
30.77
22.68
17.08
14.28
13.69
14.12
14.28
13.33
11.11
7.97
4.54
1.26
-1.84
-5.13
-9.22
-14.76
-22.21
-31.59
-42.31
-53.02
-61.71
-66.17
-64.59
-56.27
-41.92
-23.47
-3.45
15.73
32.27
45.14
53.82
58.06
57.81
53.34
45.46
35.63
25.65
17.20
11.33
8.13
6.81
6.13
4.91
2.51
-1.04
-5.25
-9.48
-13.40
-17.07
-21.01
-25.94
-32.62
-41.54
-52.59
-64.86
-76.46
-84.81
-87.36
-82.36
-69.63
-50.70
-28.29
-5.41
15.54
33.20
47.09
57.07
62.98
64.54
61.72
55.13
46.20
36.83
28.87
23.47
20.77
19.98
19.83
19.14
17.19
13.92
9.75
5.27
0.90
-3.31
-7.65
-12.67
-19.02
-27.26
-37.70
-50.15
-63.59
-76.07
-84.93
-87.49
-82.00
-68.33
-48.14
-24.31
0.05
22.49
41.60
56.86
68.09
75.09
77.59
75.57
69.64
61.14
51.88
43.61
37.53
33.93
32.25
31.44
30.33
28.15
24.71
20.32
15.56
10.93
6.63
2.44
-2.12
-7.66
-14.80
-23.95
-35.19
-48.00
-60.99
-71.92
-78.18
-77.48
-68.77
-52.69
-31.47
-8.21
14.08
33.23
48.14
58.52
64.49
66.24
64.03
58.46
50.60
42.00
34.23
28.49
25.17
23.86
23.56
23.16
21.82
19.23
15.64
11.55
7.47
3.66
0.01
-3.90
-8.64
-14.80
-22.80
-32.74
-44.14
-55.79
-65.74
-71.66
-71.50
-64.13
-49.89
-30.54
-8.77
12.62
31.35
46.01
56.03
61.37
62.24
59.09
52.65
44.06
34.80
26.47
20.34
17.05
16.33
17.19
18.18
17.95
15.72
11.52
6.00
0.11
-5.37
-10.15
-14.49
-18.98
-24.35
-31.23
-40.06
-50.94
-63.36
-75.95
-86.46
-92.15
-90.64
-80.81
-63.29
-40.44
-15.49
8.40
29.01
45.24
56.87
64.04
66.93
65.75
60.98
53.60
45.05
36.93
30.58
26.69
25.12
25.07
25.41
25.06
23.33
20.07
15.58
10.40
5.05
-0.21
-5.42
-10.88
-16.96
-24.06
-32.57
-42.75
-54.50
-67.06
-78.76
-87.13
-89.46
-83.72
-69.39
-47.87
-22.14
4.23
28.05
47.33
61.38
70.47
75.25
76.31
74.14
69.26
62.43
54.72
47.27
41.03
36.48
33.54
31.74
30.36
28.79
26.62
23.64
19.85
15.35
10.24
4.67
-1.27
-7.48
-13.94
-20.73
-28.07
-36.34
-45.90
-56.83
-68.47
-79.25
-86.77
-88.47
-82.49
-68.52
-48.07
-24.00
0.35
22.18
39.77
52.56
60.73
64.73
65.02
62.02
56.39
49.02
41.08
33.75
27.93
24.10
22.17
21.63
21.71
21.64
20.82
18.99
16.18
12.62
8.53
4.07
-0.72
-5.88
-11.47
-17.56
-24.32
-32.03
-40.97
-51.13
-61.86
-71.57
-78.00
-78.76
-72.25
-58.40
-38.83
-16.37
5.84
25.24
40.36
50.79
56.72
58.53
56.58
51.31
43.49
34.34
25.38
18.03
13.20
11.01
10.80
11.40
11.58
10.53
8.03
4.48
0.49
-3.35
-6.90
-10.36
-14.23
-19.03
-25.17
-32.91
-42.20
-52.51
-62.71
-70.95
-75.00
-72.91
-63.71
-47.98
-27.76
-5.96
14.54
31.59
44.14
52.03
55.64
55.45
52.03
45.99
38.23
29.88
22.18
16.16
12.39
10.77
10.62
10.92
10.65
9.15
6.27
2.31
-2.22
-6.84
-11.32
-15.70
-20.26
-25.37
-31.36
-38.60
-47.37
-57.73
-69.25
-80.67
-89.89
-94.34
-91.75
-80.98
-62.64
-38.98
-13.26
11.18
31.85
47.55
58.22
64.48
67.04
66.40
62.91
56.99
49.38
41.19
33.70
27.96
24.40
22.76
22.19
21.66
20.39
18.03
14.73
10.83
6.68
2.41
-2.05
-6.88
-12.28
-18.38
-25.36
-33.44
-42.86
-53.52
-64.65
-74.58
-80.91
-81.24
-73.98
-59.15
-38.44
-14.77
8.64
29.24
45.55
57.14
64.25
67.31
66.69
62.79
56.22
47.85
38.89
30.55
23.84
19.28
16.81
15.87
15.59
15.12
13.83
11.54
8.40
4.79
1.02
-2.80
-6.77
-11.14
-16.21
-22.24
-29.45
-38.02
-47.89
-58.49
-68.55
-76.08
-78.82
-74.99
-64.02
-46.84
-25.77
-3.67
16.75
33.64
46.12
54.04
57.61
57.16
53.18
46.38
37.91
29.22
21.72
16.34
13.34
12.24
12.07
11.79
10.65
8.43
5.40
2.07
-1.06
-3.79
-6.28
-9.06
-12.79
-18.07
-25.26
-34.29
-44.54
-54.76
-63.12
-67.53
-66.25
-58.41
-44.48
-26.26
-6.31
12.71
28.81
40.89
48.68
52.29
52.02
48.22
41.49
32.88
23.81
15.77
9.90
6.57
5.35
5.23
5.05
3.90
1.45
-2.14
-6.31
-10.47
-14.21
-17.47
-20.63
-24.29
-29.14
-35.77
-44.48
-55.11
-66.84
-78.12
-86.74
-90.32
-86.96
-76.00
-58.27
-36.04
-12.25
10.27
29.50
44.38
54.59
60.18
61.32
58.32
51.87
43.16
33.80
25.43
19.24
15.60
14.02
13.35
12.32
10.08
6.44
1.89
-2.77
-6.89
-10.33
-13.55
-17.42
-22.89
-30.66
-40.96
-53.35
-66.62
-78.79
-87.35
-89.85
-84.61
-71.41
-51.66
-28.03
-3.63
18.85
37.67
52.06
61.92
67.34
68.47
65.60
59.38
50.97
41.93
33.85
27.90
24.47
23.10
22.76
22.24
20.66
17.71
13.70
9.22
4.81
0.69
-3.36
-7.87
-13.52
-20.89
-30.35
-41.87
-54.90
-68.17
-79.67
-86.93
-87.67
-80.53
-65.64
-44.72
-20.61
3.57
25.24
42.82
55.79
64.20
68.35
68.51
65.04
58.59
50.28
41.60
34.03
28.61
25.57
24.33
23.82
22.99
21.21
18.44
15.06
11.53
8.13
4.76
1.07
-3.47
-9.39
-17.16
-27.00
-38.69
-51.33
-63.19
-71.93
-75.16
-71.22
-59.78
-42.07
-20.50
2.05
23.03
40.67
54.04
62.80
66.92
66.51
61.95
54.05
44.20
34.19
25.71
19.97
17.19
16.66
17.01
16.86
15.33
12.35
8.51
4.65
1.30
-1.60
-4.66
-8.76
-14.68
-22.81
-33.01
-44.63
-56.40
-66.49
-72.74
-73.08
-66.26
-52.31
-32.78
-10.32
12.09
31.98
47.83
59.01
65.39
67.03
64.07
57.03
47.00
35.74
25.29
17.36
12.75
11.13
11.27
11.61
10.85
8.44
4.56
-0.14
-4.93
-9.42
-13.64
-18.01
-23.16
-29.66
-37.99
-48.39
-60.67
-73.91
-86.30
-95.21
-97.87
-92.22
-77.78
-56.02
-29.93
-3.04
21.59
42.03
57.51
67.99
73.62
74.54
71.01
63.74
54.04
43.75
34.76
28.46
25.27
24.58
25.07
25.20
23.82
20.52
15.69
10.14
4.70
-0.25
-4.89
-9.77
-15.59
-22.94
-32.22
-43.58
-56.70
-70.53
-83.07
-91.57
-93.17
-85.94
-69.70
-46.25
-18.93
8.49
32.90
52.48
66.70
75.78
80.23
80.49
77.04
70.62
62.36
53.66
45.90
40.06
36.46
34.75
34.09
33.48
32.09
29.42
25.46
20.48
14.92
9.15
3.32
-2.67
-9.12
-16.33
-24.61
-34.13
-45.05
-57.32
-70.40
-83.02
-93.01
-97.69
-94.67
-82.76
-62.62
-36.76
-8.82
17.47
39.29
55.22
65.10
69.61
69.74
66.54
61.03
54.18
46.87
39.84
33.56
28.24
23.90
20.45
17.78
15.73
14.06
12.32
9.88
6.11
0.57
-6.75
-15.40
-24.52
-33.23
-40.91
-47.51
-53.53
-59.88
-67.44
-76.63
-86.89
-96.54
-102.85
-102.59
-92.99
-72.84
-43.23
-7.66
28.79
60.85
84.80
99.53
106.60
109.15
110.30
111.86
113.81
114.92
113.85
110.14
104.57
98.71
94.18
91.78
91.17
90.93
89.37
85.25
78.33
69.27
59.00
48.11
36.61
24.17
10.72
-3.13
-16.25
-27.69
-37.45
-46.80
-57.65
-71.52
-88.39
-106.38
-122.23
-132.45
-134.41
-127.09
-111.14
-88.62
-62.44
-35.72
-11.18
9.25
24.57
34.57
39.62
40.43
37.95
33.27
27.57
21.92
17.13
13.62
11.46
10.49
10.45
11.03
11.84
12.42
12.27
10.95
8.21
4.04
-1.29
-7.40
-13.86
-20.37
-26.77
-33.15
-39.77
-47.17
-55.91
-66.32
-78.01
-89.48
-98.22
-101.32
-96.37
-82.53
-60.95
-34.53
-6.97
18.33
39.10
54.41
64.34
69.43
70.29
67.48
61.76
54.16
45.98
38.52
32.74
29.04
27.26
26.86
27.12
27.35
27.01
25.73
23.27
19.58
14.81
9.25
3.25
-2.82
-8.73
-14.45
-20.17
-26.33
-33.54
-42.31
-52.70
-63.87
-73.94
-80.29
-80.34
-72.52
-56.95
-35.56
-11.45
12.03
32.29
47.93
58.66
64.82
66.91
65.31
60.37
52.73
43.41
33.85
25.50
19.40
15.88
14.44
14.04
13.56
12.23
9.83
6.65
3.20
-0.12
-3.19
-6.20
-9.57
-13.70
-18.90
-25.37
-33.25
-42.46
-52.55
-62.40
-70.27
-74.01
-71.74
-62.64
-47.34
-27.88
-7.08
12.34
28.46
40.36
47.88
51.18
50.44
45.94
38.27
28.63
18.71
10.29
4.67
2.21
2.28
3.55
4.63
4.56
3.10
0.60
-2.37
-5.36
-8.35
-11.64
-15.73
-21.11
-28.17
-37.07
-47.60
-58.92
-69.37
-76.62
-78.20
-72.43
-59.14
-39.88
-17.49
4.86
24.62
40.38
51.74
58.86
61.95
61.07
56.40
48.48
38.52
28.20
19.23
12.86
9.50
8.63
9.09
9.53
8.88
6.70
3.16
-1.21
-5.81
-10.31
-14.75
-19.47
-24.88
-31.37
-39.21
-48.59
-59.41
-71.06
-82.16
-90.47
-93.40
-88.80
-75.86
-55.60
-30.71
-4.71
19.19
38.84
53.45
63.15
68.40
69.58
66.94
60.87
52.19
42.29
32.82
25.20
20.21
17.74
16.87
16.35
15.09
12.50
8.69
4.24
-0.17
-4.10
-7.57
-11.06
-15.24
-20.75
-28.02
-37.11
-47.72
-58.99
-69.43
-77.07
-79.77
-75.88
-64.83
-47.54
-26.18
-3.59
17.58
35.42
49.01
58.09
62.74
63.12
59.48
52.50
43.37
33.80
25.49
19.66
16.59
15.64
15.56
15.14
13.66
11.10
7.95
4.84
2.08
-0.48
-3.35
-7.25
-12.80
-20.35
-29.95
-41.09
-52.63
-62.71
-69.02
-69.39
-62.55
-48.72
-29.59
-7.90
13.49
32.29
47.18
57.65
63.58
64.98
61.91
54.74
44.54
33.01
22.21
13.91
9.01
7.27
7.47
7.94
7.28
4.81
0.64
-4.47
-9.70
-14.45
-18.65
-22.65
-27.12
-32.80
-40.35
-50.16
-62.00
-74.76
-86.36
-94.00
-94.95
-87.46
-71.50
-48.90
-22.79
3.39
26.83
45.86
59.92
69.06
73.53
73.55
69.45
61.95
52.33
42.25
33.37
26.86
23.07
21.49
21.07
20.63
19.31
16.80
13.28
9.23
5.04
0.84
-3.59
-8.70
-14.99
-22.89
-32.70
-44.45
-57.74
-71.43
-83.47
-91.20
-92.00
-84.22
-67.84
-44.75
-18.13
8.49
32.21
51.29
65.13
73.84
77.78
77.32
72.94
65.41
55.94
46.09
37.44
31.13
27.58
26.37
26.43
26.49
25.52
23.04
19.18
14.46
9.46
4.55
-0.28
-5.35
-11.08
-17.86
-25.98
-35.64
-46.81
-59.06
-71.20
-81.21
-86.55
-84.86
-74.90
-57.13
-33.79
-8.21
16.21
36.88
52.46
62.66
67.72
68.07
64.18
56.79
47.06
36.58
27.11
19.98
15.84
14.43
14.75
15.49
15.51
14.17
11.42
7.71
3.66
-0.29
-4.04
-7.87
-12.25
-17.70
-24.65
-33.37
-43.82
-55.45
-66.91
-76.07
-80.33
-77.43
-66.32
-47.72
-24.04
1.37
25.17
44.98
59.60
68.90
73.23
73.06
68.92
61.47
51.76
41.19
31.32
23.50
18.52
16.38
16.34
17.23
17.80
17.08
14.65
10.62
5.47
-0.22
-6.01
-11.76
-17.56
-23.67
-30.43
-38.19
-47.32
-58.09
-70.37
-83.19
-94.61
-101.86
-102.11
-93.47
-75.81
-51.00
-22.42
6.08
31.26
51.15
65.14
73.58
77.23
76.96
73.57
67.91
60.90
53.48
46.51
40.62
36.13
33.05
31.19
30.19
29.60
28.95
27.71
25.43
21.82
16.81
10.62
3.61
-3.76
-11.11
-18.23
-25.14
-32.14
-39.79
-48.78
-59.57
-71.90
-84.42
-94.63
-99.48
-96.36
-84.07
-63.46
-37.23
-9.13
17.23
39.23
55.61
66.23
71.67
72.71
70.21
65.07
58.25
50.73
43.49
37.24
32.43
29.20
27.32
26.39
25.86
25.21
23.96
21.79
18.50
14.06
8.55
2.20
-4.67
-11.67
-18.51
-25.04
-31.39
-37.94
-45.30
-54.03
-64.18
-74.95
-84.46
-90.11
-89.29
-80.34
-63.32
-40.14
-13.94
11.85
34.54
52.60
65.57
73.63
77.13
76.42
72.03
64.91
56.39
47.98
40.91
35.79
32.56
30.66
29.40
28.32
27.26
26.23
25.14
23.71
21.37
17.56
11.97
4.73
-3.58
-12.11
-20.05
-26.92
-32.71
-37.93
-43.48
-50.40
-59.46
-70.73
-83.20
-94.66
-102.16
-102.79
-94.67
-77.69
-53.68
-25.83
2.21
27.32
47.53
62.10
71.21
75.49
75.69
72.62
67.14
60.29
53.20
46.86
41.94
38.64
36.66
35.44
34.42
33.32
32.10
30.84
29.48
27.61
24.59
19.85
13.22
5.14
-3.49
-11.65
-18.65
-24.39
-29.39
-34.56
-40.93
-49.29
-59.88
-71.99
-83.92
-93.07
-96.60
-92.34
-79.58
-59.51
-34.83
-8.92
15.18
35.45
51.04
61.93
68.45
70.97
69.85
65.71
59.47
52.36
45.61
40.12
36.21
33.63
31.75
29.97
28.01
26.04
24.39
23.32
22.61
21.60
19.37
15.18
8.85
0.91
-7.64
-15.71
-22.55
-28.03
-32.65
-37.25
-42.79
-50.04
-59.24
-69.88
-80.53
-88.94
-92.53
-89.13
-77.76
-59.15
-35.60
-10.35
13.40
33.24
47.96
57.35
61.84
62.07
58.79
52.87
45.38
37.53
30.43
24.87
21.13
19.03
18.09
17.79
17.68
17.49
16.98
15.92
14.05
11.19
7.29
2.50
-2.94
-8.84
-15.09
-21.75
-28.89
-36.68
-45.26
-54.70
-64.82
-74.85
-83.31
-88.07
-86.93
-78.36
-62.26
-40.19
-15.02
9.91
31.69
48.53
59.75
65.59
66.75
64.08
58.47
50.85
42.24
33.68
26.08
20.08
15.92
13.49
12.38
12.02
11.86
11.34
10.04
7.66
4.05
-0.75
-6.47
-12.74
-19.13
-25.33
-31.20
-36.85
-42.64
-49.20
-57.15
-66.79
-77.58
-87.90
-95.20
-96.64
-90.08
-74.98
-52.71
-26.20
0.96
25.60
45.61
60.15
69.28
73.55
73.62
70.15
63.97
56.05
47.59
39.68
33.19
28.52
25.65
24.22
23.74
23.66
23.51
22.87
21.40
18.81
14.95
9.82
3.66
-3.19
-10.29
-17.30
-24.06
-30.71
-37.73
-45.74
-55.28
-66.26
-77.57
-87.07
-92.00
-89.80
-79.14
-60.46
-36.03
-9.24
16.43
38.26
54.79
65.73
71.54
72.92
70.63
65.42
58.15
49.83
41.53
34.21
28.55
24.79
22.76
22.02
21.95
21.98
21.60
20.49
18.39
15.23
10.99
5.79
-0.14
-6.50
-12.99
-19.39
-25.74
-32.35
-39.76
-48.48
-58.53
-69.10
-78.40
-83.94
-83.33
-75.19
-59.75
-38.92
-15.70
6.80
26.20
41.27
51.76
57.93
60.06
58.39
53.20
45.14
35.40
25.49
16.93
10.76
7.28
6.02
6.05
6.35
6.12
5.02
3.04
0.39
-2.69
-6.03
-9.62
-13.54
-17.96
-23.17
-29.52
-37.36
-46.83
-57.46
-67.99
-76.34
-80.05
-77.03
-66.31
-48.57
-26.01
-1.73
21.15
40.30
54.50
63.52
67.68
67.52
63.61
56.67
47.63
37.73
28.28
20.40
14.78
11.53
10.25
10.23
10.63
10.68
9.81
7.72
4.42
0.14
-4.73
-9.85
-15.01
-20.22
-25.66
-31.68
-38.65
-47.01
-56.96
-68.21
-79.70
-89.39
-94.65
-92.92
-82.68
-64.14
-39.34
-11.69
15.10
37.96
55.14
66.26
71.93
73.17
71.05
66.46
60.19
52.97
45.57
38.70
32.95
28.60
25.69
23.99
23.14
22.67
22.06
20.80
18.46
14.79
9.81
3.78
-2.86
-9.72
-16.50
-23.08
-29.52
-36.16
-43.49
-52.04
-61.96
-72.60
-82.21
-88.19
-87.83
-79.31
-62.57
-39.47
-13.27
12.41
34.61
51.63
63.06
69.32
71.17
69.36
64.64
57.74
49.57
41.10
33.28
26.81
22.04
18.92
17.11
16.11
15.44
14.70
13.58
11.80
9.16
5.54
0.94
-4.38
-10.03
-15.66
-21.04
-26.33
-32.02
-38.82
-47.25
-57.24
-67.78
-76.84
-81.85
-80.42
-71.17
-54.37
-31.95
-6.95
17.28
37.95
53.36
62.93
66.96
66.25
61.78
54.67
46.06
37.14
29.02
22.58
18.26
16.07
15.55
15.99
16.68
16.95
16.36
14.66
11.72
7.58
2.38
-3.60
-10.00
-16.46
-22.78
-28.95
-35.27
-42.23
-50.43
-60.18
-71.16
-82.06
-90.65
-94.21
-90.42
-78.22
-58.30
-33.10
-6.06
19.40
40.67
56.39
66.34
71.05
71.39
68.31
62.77
55.79
48.38
41.45
35.68
31.41
28.59
26.97
26.18
25.85
25.67
25.34
24.55
22.90
19.97
15.49
9.47
2.28
-5.45
-13.03
-19.97
-26.19
-32.09
-38.41
-46.06
-55.59
-66.83
-78.49
-88.19
-92.97
-90.21
-78.59
-58.77
-33.28
-5.68
20.43
42.43
58.96
69.83
75.44
76.43
73.51
67.57
59.77
51.42
43.78
37.67
33.39
30.67
28.98
27.78
26.74
25.82
25.08
24.49
23.81
22.49
19.92
15.68
9.75
2.59
-5.06
-12.48
-19.17
-25.12
-30.72
-36.73
-43.92
-52.82
-63.26
-74.15
-83.41
-88.47
-86.96
-77.61
-60.81
-38.60
-14.07
9.55
29.74
45.09
55.28
60.67
61.88
59.57
54.47
47.46
39.60
32.01
25.63
21.01
18.22
16.94
16.65
16.82
17.04
16.98
16.38
14.97
12.48
8.78
3.93
-1.80
-7.97
-14.14
-20.04
-25.68
-31.40
-37.82
-45.57
-54.93
-65.44
-75.63
-83.11
-85.23
-79.91
-66.50
-46.12
-21.41
4.24
27.64
46.58
59.98
67.76
70.44
68.81
63.79
56.50
48.16
40.03
33.09
27.87
24.40
22.34
21.19
20.54
20.18
19.98
19.76
19.18
17.74
14.88
10.30
4.08
-3.31
-11.10
-18.51
-25.03
-30.59
-35.56
-40.72
-46.97
-55.11
-65.33
-76.91
-88.03
-96.05
-98.12
-92.17
-77.68
-55.98
-29.95
-3.12
21.34
41.32
55.96
65.32
69.99
70.64
67.93
62.65
55.77
48.48
41.93
36.90
33.66
31.89
30.94
30.12
29.01
27.55
26.00
24.62
23.44
22.09
19.92
16.20
10.55
3.14
-5.32
-13.76
-21.25
-27.30
-32.11
-36.49
-41.58
-48.43
-57.53
-68.48
-79.76
-88.99
-93.45
-90.90
-80.36
-62.52
-39.59
-14.58
9.48
30.25
46.41
57.47
63.54
65.02
62.57
57.07
49.68
41.74
34.44
28.64
24.66
22.34
21.22
20.78
20.71
20.91
21.36
21.94
22.27
21.70
19.55
15.39
9.28
1.77
-6.25
-13.92
-20.74
-26.75
-32.44
-38.65
-46.17
-55.46
-66.18
-77.09
-86.00
-90.33
-87.82
-77.40
-59.65
-36.72
-11.73
12.16
32.52
48.02
58.34
63.78
64.94
62.53
57.43
50.66
43.43
36.86
31.72
28.27
26.26
25.13
24.29
23.36
22.25
21.09
19.92
18.56
16.54
13.25
8.30
1.72
-6.01
-14.02
-21.50
-27.93
-33.35
-38.34
-43.87
-50.95
-60.33
-71.92
-84.58
-96.06
-103.36
-103.63
-95.13
-77.92
-54.01
-26.72
0.36
24.33
43.54
57.58
66.75
71.54
72.37
69.67
64.09
56.69
48.85
41.88
36.72
33.60
32.12
31.54
31.16
30.59
29.84
29.07
28.36
27.43
25.64
22.24
16.74
9.24
0.44
-8.58
-16.73
-23.42
-28.71
-33.31
-38.35
-44.98
-54.02
-65.56
-78.64
-91.22
-100.43
-103.34
-97.90
-83.73
-62.34
-36.67
-10.16
14.22
34.56
50.04
60.61
66.51
68.15
66.08
61.17
54.56
47.56
41.26
36.39
33.16
31.33
30.45
30.07
29.84
29.62
29.40
29.17
28.74
27.69
25.40
21.35
15.30
7.54
-1.15
-9.82
-17.65
-24.34
-30.15
-35.88
-42.51
-50.81
-60.99
-72.36
-83.27
-91.35
-94.08
-89.49
-76.89
-57.22
-32.82
-6.82
17.66
38.23
53.51
63.09
67.27
66.76
62.48
55.52
47.06
38.33
30.39
24.05
19.69
17.29
16.48
16.69
17.32
17.81
17.77
16.89
14.96
11.87
7.64
2.40
-3.54
-9.79
-15.99
-21.93
-27.68
-33.68
-40.65
-49.28
-59.81
-71.51
-82.50
-90.04
-91.27
-84.21
-68.58
-45.95
-19.37
7.64
32.01
51.72
65.84
74.31
77.51
76.11
70.99
63.24
54.16
45.07
37.02
30.69
26.25
23.50
22.03
21.36
21.08
20.73
19.88
18.06
14.83
9.97
3.54
-4.09
-12.33
-20.59
-28.48
-35.95
-43.29
-51.12
-60.10
-70.72
-82.79
-95.09
-105.34
-110.55
-107.92
-95.84
-74.64
-46.64
-15.53
14.68
40.75
60.76
74.12
81.26
83.10
80.68
75.13
67.58
59.17
51.02
44.06
38.86
35.60
34.04
33.63
33.75
33.87
33.62
32.76
31.09
28.36
24.32
18.83
12.00
4.21
-3.97
-11.97
-19.49
-26.65
-33.97
-42.25
-52.21
-64.05
-76.96
-88.96
-97.21
-98.68
-91.25
-74.55
-50.24
-21.58
7.58
33.87
55.09
70.36
79.80
84.08
84.03
80.54
74.54
67.06
59.11
51.57
45.06
39.89
36.12
33.64
32.27
31.72
31.67
31.61
31.04
29.39
26.30
21.56
15.32
7.96
0.04
-7.92
-15.59
-22.92
-30.26
-38.22
-47.49
-58.39
-70.39
-81.87
-90.30
-92.85
-87.32
-73.06
-51.37
-25.15
1.90
26.41
46.09
60.03
68.41
71.92
71.32
67.24
60.32
51.40
41.65
32.49
25.15
20.37
18.15
17.85
18.48
19.09
19.05
18.10
16.19
13.40
9.72
5.17
-0.16
-6.08
-12.30
-18.61
-24.99
-31.75
-39.38
-48.26
-58.20
-68.18
-76.24
-80.00
-77.29
-67.12
-50.02
-28.07
-4.25
18.39
37.49
51.73
60.73
64.75
64.29
59.97
52.52
42.95
32.57
22.77
14.80
9.42
6.68
6.02
6.45
6.92
6.62
5.15
2.51
-1.04
-5.15
-9.54
-14.01
-18.52
-23.11
-28.00
-33.54
-40.24
-48.60
-58.87
-70.60
-82.32
-91.58
-95.51
-91.66
-78.99
-58.40
-32.59
-5.25
20.02
40.67
55.55
64.73
68.95
69.13
66.05
60.38
52.83
44.26
35.69
28.13
22.41
18.97
17.72
18.08
19.14
19.92
19.61
17.83
14.62
10.27
5.16
-0.45
-6.45
-12.78
-19.46
-26.49
-34.08
-42.58
-52.42
-63.59
-75.17
-85.10
-90.53
-88.71
-78.09
-59.04
-33.92
-6.35
19.90
41.98
58.39
68.93
74.15
74.94
72.16
66.69
59.45
51.46
43.72
37.09
32.04
28.66
26.68
25.60
24.92
24.21
23.17
21.60
19.32
16.20
12.11
7.07
1.21
-5.17
-11.73
-18.24
-24.75
-31.66
-39.65
-49.28
-60.55
-72.42
-82.75
-88.76
-87.88
-78.73
-61.71
-39.02
-13.92
10.23
30.86
46.53
56.95
62.45
63.68
61.28
55.91
48.37
39.62
30.77
22.88
16.78
12.81
10.82
10.23
10.23
10.07
9.26
7.58
5.12
2.07
-1.39
-5.20
-9.37
-14.01
-19.22
-25.17
-32.09
-40.24
-49.67
-59.87
-69.47
-76.27
-77.75
-71.99
-58.42
-38.30
-14.35
9.99
31.67
48.64
60.12
66.24
67.60
64.93
58.95
50.49
40.59
30.47
21.39
14.36
9.94
8.04
8.05
9.02
9.94
9.98
8.66
5.87
1.75
-3.44
-9.38
-15.82
-22.53
-29.29
-36.03
-42.88
-50.26
-58.83
-69.10
-80.91
-93.03
-103.03
-107.85
-104.74
-92.31
-71.18
-43.95
-14.41
13.58
37.04
54.41
65.50
70.98
71.86
69.17
63.80
56.62
48.58
40.66
33.83
28.78
25.74
24.51
24.47
24.86
24.98
24.31
22.52
19.53
15.38
10.22
4.28
-2.19
-8.99
-15.99
-23.25
-31.04
-39.86
-50.22
-62.34
-75.63
-88.38
-97.87
-100.97
-95.26
-79.95
-56.47
-28.10
1.08
27.35
48.31
63.17
72.31
76.65
77.12
74.43
69.16
62.05
54.01
46.08
39.21
33.96
30.49
28.55
27.70
27.43
27.30
26.88
25.77
23.58
20.00
14.96
8.62
1.41
-6.17
-13.72
-21.06
-28.39
-36.25
-45.35
-56.25
-68.87
-82.05
-93.46
-100.04
-98.87
-88.32
-68.75
-42.61
-13.68
13.99
37.30
54.57
65.58
71.04
71.93
69.17
63.52
55.73
46.73
37.63
29.61
23.62
20.14
19.00
19.49
20.59
21.34
21.04
19.45
16.61
12.71
7.98
2.57
-3.42
-9.86
-16.64
-23.73
-31.30
-39.80
-49.69
-61.11
-73.34
-84.53
-91.95
-92.70
-84.77
-67.92
-43.97
-16.26
11.33
35.49
54.22
66.88
73.79
75.71
73.45
67.83
59.77
50.42
41.04
32.82
26.57
22.57
20.58
20.01
20.13
20.22
19.69
18.10
15.15
10.77
5.07
-1.63
-8.88
-16.22
-23.33
-30.15
-36.93
-44.23
-52.80
-63.25
-75.66
-89.09
-101.40
-109.52
-110.27
-101.47
-82.89
-56.47
-25.85
4.79
31.94
53.47
68.74
78.12
82.37
82.27
78.57
72.13
64.05
55.60
47.92
41.77
37.37
34.54
32.89
32.01
31.62
31.38
30.87
29.50
26.68
22.00
15.50
7.62
-0.93
-9.44
-17.49
-25.04
-32.44
-40.30
-49.37
-60.21
-72.82
-86.19
-98.09
-105.44
-105.08
-94.97
-75.06
-47.59
-16.39
14.26
40.89
61.55
75.79
84.12
87.41
86.48
82.14
75.39
67.47
59.76
53.39
48.92
46.25
44.78
43.75
42.62
41.24
39.76
38.36
36.97
35.13
32.13
27.29
20.29
11.39
1.40
-8.63
-17.76
-25.53
-32.08
-38.14
-44.80
-53.13
-63.77
-76.47
-89.80
-101.23
-107.64
-106.28
-95.68
-76.26
-50.36
-21.42
6.96
31.97
51.98
66.44
75.47
79.44
78.88
74.47
67.27
58.65
50.16
43.10
38.26
35.69
34.80
34.74
34.73
34.37
33.70
32.97
32.27
31.33
29.48
25.91
20.15
12.32
3.17
-6.17
-14.69
-21.87
-27.84
-33.30
-39.23
-46.54
-55.80
-66.91
-78.83
-89.55
-96.38
-96.62
-88.53
-72.02
-48.89
-22.35
3.95
26.98
44.90
57.17
64.13
66.46
64.88
60.13
53.06
44.77
36.51
29.37
24.07
20.77
19.14
18.59
18.55
18.64
18.67
18.49
17.79
16.13
13.03
8.28
2.01
-5.24
-12.70
-19.74
-26.05
-31.79
-37.56
-44.21
-52.52
-62.79
-74.40
-85.64
-93.86
-96.18
-90.38
-75.82
-53.82
-27.33
-0.02
24.70
44.55
58.49
66.58
69.46
67.96
63.01
55.62
46.97
38.33
30.79
25.05
21.26
19.06
17.84
17.06
16.43
15.95
15.71
15.66
15.48
14.58
12.31
8.27
2.50
-4.50
-12.00
-19.33
-26.18
-32.67
-39.32
-46.89
-56.00
-66.88
-78.93
-90.57
-99.37
-102.58
-98.00
-84.81
-63.98
-38.14
-10.75
14.86
36.34
52.58
63.49
69.55
71.39
69.60
64.90
58.23
50.82
43.86
38.30
34.46
32.14
30.73
29.69
28.74
27.88
27.25
26.80
26.14
24.58
21.49
16.52
9.91
2.28
-5.54
-12.91
-19.57
-25.69
-31.76
-38.42
-46.27
-55.74
-66.68
-78.18
-88.32
-94.51
-94.14
-85.51
-68.62
-45.27
-18.65
7.72
30.95
49.34
62.32
70.12
73.23
72.25
67.89
61.14
53.23
45.42
38.64
33.38
29.59
26.88
24.82
23.11
21.70
20.63
19.91
19.35
18.45
16.59
13.19
8.00
1.23
-6.45
-14.19
-21.27
-27.34
-32.63
-37.81
-43.81
-51.46
-61.13
-72.27
-83.32
-91.82
-95.00
-90.67
-78.04
-58.15
-33.64
-7.94
15.70
34.96
48.79
57.19
60.75
60.25
56.48
50.27
42.54
34.32
26.65
20.33
15.83
13.21
12.25
12.46
13.32
14.27
14.80
14.44
12.83
9.82
5.49
0.14
-5.78
-11.85
-17.79
-23.51
-29.20
-35.28
-42.28
-50.70
-60.55
-71.07
-80.49
-86.29
-85.91
-77.68
-61.56
-39.32
-14.08
10.61
31.78
47.68
57.83
62.71
63.25
60.40
54.98
47.68
39.26
30.54
22.45
15.87
11.41
9.21
8.87
9.56
10.28
10.14
8.62
5.59
1.28
-3.94
-9.66
-15.61
-21.62
-27.67
-33.84
-40.42
-47.91
-56.86
-67.54
-79.48
-91.07
-99.74
-102.48
-96.93
-82.33
-59.92
-32.72
-4.53
21.14
41.94
56.90
66.18
70.49
70.64
67.35
61.28
53.24
44.21
35.33
27.68
22.02
18.65
17.31
17.32
17.84
18.01
17.19
15.02
11.39
6.40
0.31
-6.55
-13.86
-21.37
-29.01
-36.95
-45.55
-55.32
-66.67
-79.49
-92.76
-104.39
-111.52
-111.24
-101.64
-82.61
-56.09
-25.57
4.88
31.78
52.95
67.69
76.43
80.16
79.97
76.81
71.50
64.88
57.81
51.13
45.55
41.43
38.83
37.51
37.04
36.93
36.66
35.68
33.52
29.82
24.47
17.67
9.91
1.74
-6.36
-14.18
-21.83
-29.72
-38.48
-48.86
-61.29
-75.46
-89.93
-102.05
-108.54
-106.51
-94.56
-73.40
-45.76
-15.52
13.48
38.36
57.63
70.93
78.58
81.14
79.34
74.06
66.48
57.96
49.82
43.02
38.04
34.84
33.04
32.18
31.83
31.67
31.44
30.81
29.38
26.67
22.36
16.38
9.06
1.00
-7.13
-14.85
-22.05
-29.07
-36.65
-45.70
-56.80
-69.75
-83.17
-94.51
-100.59
-98.56
-86.98
-66.45
-39.59
-10.25
17.63
41.06
58.46
69.59
74.99
75.53
72.10
65.64
57.26
48.20
39.71
32.83
28.11
25.58
24.82
25.21
26.08
26.88
27.12
26.32
24.09
20.12
14.43
7.36
-0.46
-8.33
-15.76
-22.61
-29.20
-36.22
-44.54
-54.84
-67.19
-80.55
-92.71
-100.58
-101.07
-92.17
-73.77
-47.86
-18.03
11.66
37.78
58.18
72.11
79.82
82.04
79.65
73.63
65.14
55.49
46.08
38.06
32.10
28.29
26.24
25.41
25.24
25.36
25.43
25.09
23.83
21.13
16.62
10.30
2.55
-5.97
-14.55
-22.72
-30.35
-37.73
-45.48
-54.40
-65.16
-77.91
-91.80
-104.75
-113.67
-115.31
-107.32
-89.22
-62.76
-31.41
0.67
29.81
53.58
70.97
82.02
87.31
87.61
83.83
77.09
68.69
60.07
52.39
46.39
42.22
39.59
38.00
37.02
36.41
36.06
35.82
35.29
33.81
30.60
25.11
17.31
7.75
-2.52
-12.45
-21.28
-28.88
-35.76
-42.89
-51.41
-62.15
-75.14
-89.25
-102.10
-110.39
-110.85
-101.36
-81.80
-54.34
-22.84
8.34
35.55
56.65
71.10
79.47
82.72
81.78
77.45
70.66
62.52
54.37
47.41
42.36
39.29
37.64
36.68
35.79
34.77
33.70
32.71
31.63
29.94
26.89
21.95
15.04
6.66
-2.26
-10.78
-18.28
-24.71
-30.57
-36.81
-44.47
-54.38
-66.65
-80.33
-93.28
-102.47
-104.80
-98.12
-82.09
-58.46
-30.52
-2.18
23.23
43.57
58.05
66.87
70.65
70.10
65.94
58.97
50.24
41.02
32.56
25.88
21.48
19.33
18.94
19.60
20.59
21.32
21.34
20.34
18.09
14.47
9.49
3.40
-3.37
-10.34
-17.14
-23.64
-30.04
-36.90
-44.95
-54.78
-66.31
-78.41
-88.79
-94.46
-92.61
-81.70
-62.15
-36.36
-8.05
18.90
41.43
57.90
68.02
72.37
71.93
67.73
60.75
52.00
42.61
33.74
26.40
21.22
18.33
17.38
17.68
18.50
19.16
19.18
18.22
15.98
12.27
6.99
0.35
-7.20
-15.04
-22.59
-29.58
-36.13
-42.81
-50.41
-59.73
-71.13
-84.03
-96.71
-106.38
-109.86
-104.62
-89.79
-66.58
-38.06
-8.22
19.22
41.68
58.06
68.48
73.71
74.67
72.18
67.04
60.09
52.31
44.73
38.20
33.25
29.96
28.07
27.16
26.76
26.52
26.15
25.27
23.44
20.25
15.43
9.04
1.51
-6.49
-14.34
-21.67
-28.48
-35.24
-42.67
-51.58
-62.42
-74.87
-87.50
-97.81
-102.74
-99.61
-87.16
-66.08
-38.99
-9.60
18.32
41.91
59.64
71.20
77.11
78.20
75.44
69.84
62.49
54.52
46.99
40.70
36.08
33.17
31.60
30.89
30.56
30.24
29.70
28.76
27.17
24.55
20.53
14.87
7.71
-0.46
-8.87
-16.80
-23.80
-29.90
-35.63
-41.86
-49.56
-59.29
-70.81
-82.69
-92.41
-96.93
-93.70
-81.56
-61.37
-35.81
-8.52
16.98
38.19
53.90
64.04
69.08
69.69
66.55
60.49
52.55
44.04
36.31
30.36
26.65
25.02
24.89
25.57
26.55
27.55
28.38
28.75
28.15
25.95
21.70
15.41
7.65
-0.66
-8.63
-15.72
-21.92
-27.70
-33.83
-41.14
-50.18
-60.98
-72.63
-83.22
-90.06
-90.42
-82.43
-65.92
-42.64
-15.80
10.93
34.40
52.68
65.09
71.81
73.43
70.64
64.26
55.39
45.49
36.14
28.70
23.88
21.57
21.02
21.26
21.48
21.35
20.96
20.47
19.87
18.75
16.45
12.34
6.16
-1.82
-10.78
-19.70
-27.66
-34.24
-39.62
-44.55
-50.08
-57.25
-66.60
-77.78
-89.28
-98.53
-102.56
-98.87
-86.36
-65.87
-39.98
-12.23
13.91
35.91
52.49
63.43
69.09
70.08
67.11
61.09
53.23
44.95
37.64
32.23
29.06
27.78
27.68
27.97
28.15
28.08
27.84
27.53
26.98
25.71
23.07
18.54
12.02
3.92
-4.91
-13.49
-21.10
-27.54
-33.23
-38.99
-45.86
-54.61
-65.41
-77.49
-89.01
-97.33
-99.61
-93.77
-79.17
-57.09
-30.32
-2.42
23.32
44.57
60.24
70.20
74.94
75.12
71.52
65.09
57.01
48.61
41.13
35.39
31.67
29.69
28.84
28.54
28.38
28.25
28.14
27.99
27.46
25.96
22.83
17.63
10.41
1.71
-7.52
-16.24
-23.69
-29.57
-34.24
-38.59
-43.80
-50.98
-60.62
-72.20
-83.98
-93.29
-97.14
-93.23
-80.76
-60.80
-35.98
-9.74
14.67
34.91
49.83
59.27
63.70
63.86
60.55
54.70
47.33
39.57
32.45
26.74
22.76
20.43
19.40
19.28
19.73
20.50
21.33
21.79
21.39
19.59
16.08
10.90
4.41
-2.76
-9.95
-16.69
-22.80
-28.48
-34.28
-40.99
-49.32
-59.51
-70.79
-81.27
-88.22
-88.86
-81.37
-65.64
-43.43
-17.85
7.59
29.94
47.37
59.22
65.68
67.36
64.96
59.30
51.32
42.12
32.95
24.92
18.85
15.08
13.41
13.32
14.09
15.10
15.82
15.86
14.84
12.41
8.28
2.47
-4.69
-12.52
-20.24
-27.23
-33.33
-38.86
-44.64
-51.69
-60.90
-72.50
-85.65
-98.25
-107.24
-109.37
-102.38
-85.82
-61.46
-32.75
-3.79
21.87
42.03
56.00
64.20
67.63
67.30
64.13
58.91
52.52
45.85
39.78
34.92
31.51
29.41
28.23
27.55
27.11
26.76
26.37
25.63
24.04
21.00
16.12
9.39
1.29
-7.39
-15.82
-23.50
-30.40
-36.99
-44.06
-52.53
-62.99
-75.29
-88.12
-99.11
-105.22
-103.64
-92.86
-73.32
-47.40
-18.73
8.92
32.60
50.75
63.09
70.14
72.68
71.49
67.33
61.05
53.66
46.23
39.70
34.64
31.18
29.06
27.88
27.25
26.95
26.87
26.86
26.58
25.46
22.88
18.40
12.00
4.16
-4.31
-12.61
-20.23
-27.20
-34.11
-41.86
-51.31
-62.77
-75.56
-87.84
-96.84
-99.60
-93.97
-79.39
-57.31
-30.76
-3.46
21.23
41.05
55.09
63.42
66.76
65.93
61.80
55.29
47.36
39.05
31.35
25.07
20.71
18.39
17.87
18.69
20.19
21.72
22.64
22.47
20.88
17.73
13.07
7.14
0.31
-6.95
-14.27
-21.45
-28.61
-36.18
-44.81
-54.92
-66.30
-77.63
-86.58
-90.28
-86.30
-73.61
-53.15
-27.62
-0.67
24.19
44.46
58.97
67.69
71.23
70.38
65.95
58.75
49.76
40.12
31.03
23.57
18.39
15.64
14.94
15.55
16.55
17.08
16.47
14.37
10.73
5.77
-0.14
-6.58
-13.23
-19.90
-26.64
-33.66
-41.32
-50.17
-60.69
-73.03
-86.52
-99.39
-108.82
-111.65
-105.33
-89.04
-64.16
-33.99
-2.74
25.69
48.69
65.18
75.36
80.04
80.16
76.60
70.25
62.14
53.49
45.47
38.96
34.41
31.74
30.58
30.44
30.86
31.39
31.55
30.78
28.52
24.42
18.43
10.92
2.51
-6.17
-14.61
-22.66
-30.56
-38.87
-48.39
-59.80
-73.16
-87.48
-100.49
-109.01
-109.86
-100.97
-82.27
-55.88
-25.44
4.97
31.92
53.35
68.53
77.73
81.74
81.47
77.88
71.99
64.83
57.38
50.46
44.64
40.17
37.10
35.26
34.35
34.00
33.81
33.31
32.01
29.44
25.26
19.38
12.03
3.76
-4.76
-12.90
-20.38
-27.31
-34.26
-42.07
-51.59
-63.19
-76.30
-89.15
-98.91
-102.39
-97.15
-82.38
-59.41
-31.38
-2.28
24.18
45.49
60.60
69.67
73.50
73.06
69.22
62.78
54.64
45.82
37.43
30.52
25.79
23.44
23.10
24.04
25.35
26.29
26.33
25.17
22.68
18.81
13.64
7.40
0.46
-6.75
-13.89
-20.87
-27.94
-35.59
-44.46
-54.98
-67.00
-79.35
-89.87
-95.70
-94.18
-83.74
-64.68
-39.22
-10.91
16.45
39.77
57.30
68.57
74.03
74.57
71.18
64.85
56.61
47.55
38.72
31.04
25.10
21.17
19.13
18.62
19.10
19.97
20.60
20.39
18.82
15.49
10.27
3.32
-4.89
-13.66
-22.32
-30.38
-37.74
-44.78
-52.29
-61.23
-72.24
-85.13
-98.41
-109.37
-114.66
-111.34
-98.03
-75.53
-46.67
-15.46
14.15
39.26
58.38
71.27
78.43
80.63
78.70
73.58
66.39
58.38
50.77
44.46
39.86
36.93
35.29
34.50
34.22
34.21
34.26
34.02
32.96
30.41
25.88
19.23
10.83
1.47
-7.95
-16.71
-24.55
-31.73
-38.95
-47.17
-57.26
-69.52
-83.29
-96.65
-106.66
-110.03
-104.29
-88.69
-64.68
-35.53
-5.33
22.21
44.63
60.95
71.32
76.45
77.16
74.24
68.60
61.36
53.81
47.14
42.14
39.00
37.36
36.58
36.12
35.68
35.23
34.80
34.21
32.98
30.37
25.76
18.90
10.18
0.46
-9.18
-17.88
-25.28
-31.65
-37.75
-44.63
-53.24
-64.10
-76.83
-89.91
-100.76
-106.21
-103.59
-91.61
-71.07
-44.65
-16.18
10.59
32.94
49.58
60.49
66.35
67.99
66.14
61.41
54.51
46.35
38.01
30.55
24.80
21.16
19.58
19.62
20.65
22.03
23.16
23.56
22.80
20.57
16.70
11.26
4.59
-2.76
-10.18
-17.27
-24.03
-30.92
-38.76
-48.42
-60.22
-73.55
-86.49
-96.19
-99.49
-94.05
-79.19
-56.29
-28.46
0.35
26.49
47.40
61.97
70.26
73.03
71.30
66.04
58.23
48.90
39.18
30.18
22.87
17.83
15.17
14.61
15.55
17.20
18.75
19.42
18.59
15.91
11.37
5.25
-1.95
-9.70
-17.54
-25.25
-32.84
-40.60
-49.12
-59.17
-71.36
-85.46
-100.01
-112.17
-118.34
-115.37
-101.71
-78.23
-48.00
-15.37
15.39
41.17
60.45
73.10
79.81
81.58
79.40
74.22
66.96
58.64
50.27
42.78
36.87
32.83
30.63
29.89
30.04
30.45
30.49
29.61
27.34
23.39
17.70
10.55
2.49
-5.85
-13.97
-21.75
-29.50
-37.93
-47.87
-59.91
-73.87
-88.43
-101.01
-108.33
-107.28
-96.09
-75.10
-46.83
-15.25
15.38
41.72
61.92
75.59
83.31
86.04
84.72
80.20
73.35
65.14
56.60
48.70
42.16
37.36
34.33
32.75
32.16
31.97
31.63
30.61
28.48
24.92
19.79
13.15
5.33
-3.17
-11.77
-20.05
-27.89
-35.69
-44.30
-54.66
-67.26
-81.42
-95.03
-104.75
-107.05
-99.44
-81.57
-55.54
-25.25
4.86
31.15
51.56
65.60
73.84
77.14
76.28
71.91
64.77
55.90
46.59
38.15
31.59
27.41
25.52
25.38
26.19
27.12
27.44
26.65
24.51
21.02
16.34
10.76
4.57
-2.07
-9.08
-16.56
-24.64
-33.62
-43.81
-55.40
-68.12
-80.81
-91.32
-96.79
-94.48
-82.83
-62.25
-35.22
-5.67
22.31
45.55
62.41
72.73
77.19
76.74
72.29
64.66
54.83
43.99
33.51
24.63
18.26
14.73
13.82
14.87
16.89
18.83
19.73
18.88
15.97
11.06
4.54
-3.07
-11.24
-19.55
-27.78
-35.90
-44.22
-53.25
-63.58
-75.47
-88.33
-100.37
-108.77
-110.38
-102.80
-85.37
-59.61
-28.89
2.63
31.08
53.85
69.80
79.06
82.47
81.10
76.04
68.36
59.23
49.87
41.47
34.96
30.75
28.72
28.26
28.57
28.85
28.49
27.10
24.43
20.34
14.85
8.17
0.68
-7.12
-14.82
-22.23
-29.51
-37.13
-45.78
-56.14
-68.51
-82.37
-96.01
-106.62
-110.89
-106.07
-91.03
-66.87
-36.74
-4.91
24.52
48.63
66.12
77.07
82.34
83.02
80.09
74.51
67.19
59.17
51.45
44.82
39.72
36.17
33.88
32.47
31.62
31.13
30.82
30.38
29.26
26.78
22.34
15.75
7.35
-2.05
-11.49
-20.23
-28.09
-35.47
-43.21
-52.32
-63.46
-76.56
-90.39
-102.57
-109.93
-109.45
-99.28
-79.61
-52.70
-22.32
7.44
33.26
53.27
66.97
74.82
77.66
76.32
71.66
64.62
56.38
48.18
41.16
36.07
33.08
31.85
31.70
31.93
32.02
31.71
30.90
29.48
27.19
23.65
18.62
12.06
4.34
-3.89
-11.96
-19.42
-26.25
-32.86
-40.02
-48.53
-58.94
-71.10
-83.81
-94.83
-101.24
-100.29
-90.40
-71.80
-46.68
-18.53
8.88
32.51
50.62
62.76
69.34
71.09
68.75
63.07
54.92
45.44
35.92
27.61
21.38
17.61
16.14
16.42
17.73
19.27
20.35
20.38
18.91
15.70
10.80
4.49
-2.72
-10.24
-17.60
-24.53
-31.08
-37.61
-44.78
-53.39
-63.99
-76.34
-89.00
-99.37
-104.17
-100.60
-87.40
-65.46
-37.67
-8.03
19.58
42.34
58.89
69.14
73.74
73.60
69.66
62.90
54.40
45.39
37.08
30.39
25.85
23.40
22.60
22.79
23.41
24.06
24.53
24.53
23.63
21.26
16.92
10.46
2.29
-6.78
-15.77
-23.91
-30.92
-37.15
-43.40
-50.78
-60.28
-72.27
-86.09
-99.73
-110.09
-113.78
-108.21
-92.63
-68.53
-39.25
-8.90
18.86
41.58
58.35
69.29
75.08
76.42
73.99
68.62
61.33
53.40
46.09
40.28
36.31
33.93
32.57
31.64
30.88
30.31
30.06
30.07
29.86
28.62
25.47
19.87
11.94
2.43
-7.49
-16.72
-24.60
-31.12
-36.93
-43.06
-50.65
-60.52
-72.72
-86.22
-98.77
-107.26
-108.59
-100.68
-83.31
-58.39
-29.40
-0.32
25.43
45.76
59.94
68.26
71.50
70.60
66.48
60.13
52.54
44.72
37.58
31.77
27.65
25.30
24.44
24.68
25.47
26.27
26.64
26.17
24.53
21.46
16.78
10.52
3.02
-5.17
-13.34
-20.95
-27.85
-34.44
-41.55
-50.14
-60.77
-72.96
-84.99
-94.06
-97.06
-91.61
-77.06
-54.78
-27.87
-0.14
24.92
45.02
59.22
67.69
71.14
70.38
66.15
59.19
50.42
40.95
32.01
24.66
19.60
16.96
16.38
17.16
18.49
19.63
19.98
19.05
16.48
12.09
5.91
-1.68
-10.07
-18.49
-26.35
-33.42
-40.04
-47.03
-55.50
-66.30
-79.48
-93.82
-106.72
-114.76
-114.65
-104.43
-84.33
-56.78
-25.71
4.68
31.07
51.62
65.85
74.20
77.40
76.26
71.65
64.62
56.47
48.50
41.77
36.83
33.73
32.13
31.57
31.66
32.10
32.59
32.72
31.91
29.49
25.01
18.38
9.98
0.57
-8.98
-17.99
-26.17
-33.76
-41.47
-50.25
-60.94
-73.82
-88.05
-101.53
-111.14
-113.59
-106.54
-89.56
-64.40
-34.55
-4.09
23.42
45.75
62.08
72.56
77.87
78.75
75.97
70.40
63.12
55.33
48.16
42.44
38.55
36.42
35.60
35.53
35.69
35.68
35.20
33.96
31.59
27.72
22.11
14.78
6.19
-2.94
-11.83
-19.93
-27.15
-33.98
-41.34
-50.32
-61.71
-75.37
-89.86
-102.41
-109.51
-108.00
-96.28
-74.99
-46.97
-16.39
12.61
36.95
55.14
67.11
73.56
75.39
73.32
68.02
60.21
50.96
41.56
33.28
27.10
23.45
22.11
22.44
23.56
24.68
25.17
24.56
22.57
19.04
14.01
7.76
0.78
-6.40
-13.39
-20.10
-26.78
-33.94
-42.28
-52.31
-64.12
-76.87
-88.62
-96.52
-97.54
-89.55
-72.30
-47.71
-19.36
8.66
32.93
51.52
63.97
70.82
72.92
71.06
65.83
57.97
48.49
38.67
29.87
23.16
19.07
17.52
17.91
19.35
20.88
21.70
21.20
19.04
15.09
9.48
2.53
-5.25
-13.34
-21.30
-28.97
-36.52
-44.43
-53.48
-64.39
-77.36
-91.57
-104.84
-114.00
-115.69
-107.55
-89.18
-62.52
-31.25
0.30
28.41
50.75
66.55
76.12
80.28
80.00
76.15
69.68
61.65
53.20
45.43
39.17
34.81
32.30
31.27
31.19
31.54
31.86
31.69
30.55
27.96
23.57
17.33
9.56
0.89
-7.98
-16.50
-24.55
-32.50
-41.13
-51.36
-63.82
-78.36
-93.61
-107.01
-115.18
-114.97
-104.53
-84.10
-56.10
-24.36
6.98
34.66
56.78
72.78
82.92
87.76
87.94
84.22
77.63
69.54
61.36
54.25
48.82
45.11
42.76
41.29
40.39
39.89
39.69
39.54
38.97
37.27
33.76
28.04
20.20
10.77
0.63
-9.32
-18.40
-26.37
-33.51
-40.58
-48.65
-58.70
-71.11
-85.12
-98.63
-108.48
-111.29
-104.63
-88.01
-63.17
-33.55
-3.28
24.06
46.18
62.24
72.41
77.39
77.93
74.83
69.00
61.55
53.76
46.79
41.42
37.90
35.99
35.17
34.89
34.73
34.49
34.00
33.04
31.23
28.10
23.30
16.78
8.93
0.40
-8.05
-15.87
-22.93
-29.55
-36.45
-44.48
-54.32
-65.97
-78.40
-89.42
-96.07
-95.45
-85.83
-67.36
-42.24
-14.04
13.40
37.06
55.26
67.60
74.38
76.21
73.64
67.37
58.40
48.10
38.00
29.48
23.39
19.96
18.80
19.19
20.36
21.59
22.35
22.20
20.80
17.91
13.48
7.67
0.82
-6.60
-14.16
-21.61
-28.92
-36.37
-44.46
-53.81
-64.76
-76.96
-88.94
-98.19
-101.71
-96.95
-82.89
-60.59
-32.99
-3.99
22.71
44.57
60.45
70.41
75.08
75.22
71.56
64.88
56.27
47.10
38.76
32.29
28.13
26.01
25.20
24.93
24.71
24.39
24.03
23.56
22.53
20.28
16.17
9.97
2.08
-6.64
-15.18
-22.84
-29.44
-35.43
-41.68
-49.19
-58.73
-70.46
-83.58
-96.12
-105.24
-107.89
-101.83
-86.46
-63.23
-35.26
-6.37
20.01
41.59
57.44
67.69
72.93
73.88
71.22
65.68
58.28
50.26
42.95
37.38
34.03
32.71
32.71
33.17
33.44
33.30
32.79
31.99
30.75
28.60
24.91
19.24
11.62
2.64
-6.76
-15.60
-23.25
-29.63
-35.25
-41.06
-48.18
-57.43
-68.94
-81.66
-93.40
-101.18
-102.03
-94.08
-77.27
-53.51
-26.11
1.21
25.36
44.49
58.03
66.23
69.70
69.10
65.10
58.57
50.65
42.62
35.68
30.54
27.34
25.67
24.87
24.34
23.82
23.30
22.95
22.73
22.29
21.03
18.27
13.64
7.25
-0.30
-8.17
-15.56
-22.08
-27.79
-33.19
-39.04
-46.11
-54.89
-65.18
-75.91
-85.03
-89.91
-88.13
-78.28
-60.76
-37.70
-12.44
11.51
31.49
46.13
55.30
59.59
59.81
56.64
50.71
42.78
33.86
25.16
17.89
12.90
10.50
10.42
11.95
14.18
16.20
17.32
17.11
15.41
12.33
8.09
3.02
-2.59
-8.47
-14.47
-20.54
-26.75
-33.40
-40.95
-49.82
-59.99
-70.59
-79.71
-84.75
-83.19
-73.59
-56.26
-33.33
-8.13
15.82
35.83
50.46
59.45
63.30
62.79
58.71
51.89
43.30
34.05
25.34
18.13
13.02
10.09
9.03
9.32
10.35
11.55
12.37
12.28
10.82
7.67
2.83
-3.37
-10.38
-17.55
-24.44
-30.90
-37.17
-43.77
-51.40
-60.67
-71.76
-84.02
-95.72
-104.27
-106.77
-100.98
-86.26
-63.91
-36.91
-8.97
16.50
37.17
52.11
61.44
65.84
66.17
63.24
57.85
50.81
43.02
35.37
28.61
23.34
19.83
18.11
17.90
18.71
19.93
20.87
20.89
19.43
16.14
10.93
4.08
-3.82
-12.08
-20.06
-27.50
-34.54
-41.78
-50.07
-60.18
-72.30
-85.63
-98.17
-106.96
-108.87
-101.68
-84.98
-60.50
-31.65
-2.45
23.65
44.51
59.42
68.64
72.88
72.91
69.54
63.75
56.69
49.57
43.32
38.45
34.98
32.63
31.06
30.04
29.45
29.20
29.02
28.42
26.77
23.51
18.38
11.58
3.65
-4.63
-12.64
-20.09
-27.11
-34.22
-42.20
-51.81
-63.44
-76.75
-90.26
-101.43
-107.17
-104.73
-92.74
-71.92
-44.91
-15.52
12.42
36.09
54.05
66.10
72.76
74.80
72.96
68.05
61.07
53.15
45.49
39.02
34.28
31.28
29.71
29.10
29.07
29.31
29.59
29.57
28.77
26.63
22.73
16.96
9.64
1.44
-6.84
-14.64
-21.74
-28.48
-35.57
-43.93
-54.28
-66.59
-79.75
-91.44
-98.63
-98.44
-89.15
-70.92
-45.90
-17.60
10.16
34.23
52.74
65.13
71.75
73.39
70.93
65.21
57.15
47.83
38.48
30.31
24.25
20.75
19.66
20.37
22.04
23.79
24.91
24.89
23.37
20.22
15.44
9.30
2.21
-5.36
-12.95
-20.34
-27.54
-34.92
-43.12
-52.84
-64.44
-77.33
-89.71
-98.73
-101.18
-94.65
-78.54
-54.46
-25.75
3.54
29.90
51.04
66.12
75.29
79.15
78.39
73.77
66.25
57.08
47.67
39.34
32.98
28.90
26.85
26.25
26.50
27.06
27.47
27.29
26.00
23.09
18.24
11.48
3.28
-5.60
-14.37
-22.50
-29.87
-36.89
-44.33
-53.10
-63.94
-76.87
-90.84
-103.52
-111.71
-112.18
-102.88
-83.77
-56.98
-26.23
4.41
31.62
53.43
69.25
79.32
84.19
84.45
80.78
74.13
65.75
57.17
49.68
44.12
40.63
38.78
37.88
37.32
36.82
36.35
35.98
35.49
34.33
31.70
26.92
19.80
10.80
0.94
-8.67
-17.20
-24.50
-31.06
-37.89
-46.09
-56.47
-69.10
-82.93
-95.76
-104.53
-106.14
-98.50
-81.33
-56.49
-27.40
1.94
28.13
49.06
63.99
73.16
77.22
76.94
73.09
66.62
58.74
50.77
43.93
39.00
36.19
35.13
35.17
35.61
36.00
36.15
36.01
35.49
34.31
31.96
27.89
21.79
13.86
4.77
-4.45
-12.85
-19.87
-25.61
-30.74
-36.34
-43.51
-52.98
-64.67
-77.43
-88.99
-96.40
-96.87
-88.66
-71.84
-48.36
-21.52
4.99
28.10
45.94
57.89
64.31
65.99
63.87
58.91
52.07
44.40
36.98
30.72
26.25
23.77
23.01
23.43
24.43
25.48
26.23
26.43
25.79
23.94
20.53
15.43
8.88
1.43
-6.22
-13.50
-20.17
-26.46
-32.95
-40.41
-49.49
-60.33
-72.17
-83.24
-90.91
-92.38
-85.63
-70.25
-47.71
-21.10
5.85
29.78
48.47
61.01
67.62
69.09
66.42
60.66
52.88
44.23
35.84
28.72
23.50
20.37
19.06
19.05
19.76
20.75
21.67
22.20
21.90
20.22
16.66
11.01
3.52
-5.10
-13.91
-22.10
-29.23
-35.38
-41.09
-47.20
-54.66
-64.09
-75.46
-87.64
-98.33
-104.51
-103.31
-93.06
-74.06
-48.61
-20.31
7.08
30.61
48.67
60.94
67.86
70.20
68.73
64.29
57.84
50.50
43.44
37.55
33.31
30.65
29.16
28.34
27.88
27.72
27.95
28.51
28.99
28.67
26.65
22.33
15.59
6.97
-2.56
-11.93
-20.38
-27.65
-34.13
-40.67
-48.31
-57.84
-69.35
-81.88
-93.34
-100.91
-101.83
-94.26
-78.08
-54.97
-27.98
-0.66
23.92
43.77
58.08
66.97
70.93
70.61
66.75
60.27
52.35
44.37
37.60
32.87
30.35
29.57
29.71
29.94
29.78
29.17
28.31
27.33
26.10
24.13
20.79
15.65
8.72
0.54
-8.01
-16.08
-23.14
-29.20
-34.74
-40.56
-47.55
-56.30
-66.82
-78.14
-88.29
-94.61
-94.48
-86.27
-70.09
-47.80
-22.51
2.39
24.18
41.29
53.25
60.27
62.80
61.36
56.62
49.51
41.29
33.28
26.63
22.01
19.53
18.85
19.40
20.59
21.92
23.00
23.44
22.85
20.85
17.24
12.01
5.51
-1.69
-9.00
-15.91
-22.21
-28.01
-33.72
-40.03
-47.67
-57.03
-67.80
-78.66
-87.25
-90.82
-87.01
-74.81
-55.05
-30.25
-3.91
20.58
40.71
55.26
64.08
67.66
66.77
62.19
54.87
45.90
36.58
28.17
21.66
17.49
15.56
15.35
16.16
17.33
18.36
18.87
18.54
17.04
14.03
9.30
2.88
-4.86
-13.26
-21.59
-29.26
-36.10
-42.43
-49.08
-57.03
-67.02
-78.99
-91.65
-102.53
-108.52
-106.86
-96.14
-76.89
-51.49
-23.44
3.75
27.40
46.05
59.32
67.42
70.80
69.99
65.71
58.98
51.13
43.56
37.40
33.23
30.99
30.14
29.99
30.02
30.03
30.04
30.05
29.78
28.63
25.86
20.92
13.78
5.00
-4.42
-13.48
-21.48
-28.33
-34.49
-40.91
-48.65
-58.52
-70.63
-84.04
-96.64
-105.51
-107.70
-101.12
-85.43
-62.18
-34.49
-6.01
20.02
41.47
57.50
68.14
73.88
75.29
73.00
67.79
60.77
53.25
46.50
41.44
38.40
37.09
36.83
36.95
36.98
36.83
36.57
36.20
35.42
33.60
30.03
24.31
16.53
7.38
-2.14
-11.07
-18.90
-25.66
-31.92
-38.58
-46.59
-56.59
-68.49
-81.25
-92.71
-100.02
-100.42
-92.15
-75.22
-51.55
-24.39
2.64
26.56
45.56
59.07
67.30
70.85
70.37
66.56
60.28
52.59
44.67
37.59
32.07
28.39
26.38
25.66
25.75
26.27
26.87
27.23
26.93
25.53
22.64
18.06
11.91
4.61
-3.19
-10.84
-17.89
-24.26
-30.36
-37.02
-45.15
-55.29
-67.02
-78.71
-87.68
-90.91
-86.11
-72.60
-51.72
-26.41
-0.29
23.46
42.74
56.70
65.39
69.31
69.02
65.14
58.43
49.94
40.90
32.50
25.65
20.86
18.17
17.30
17.77
19.00
20.35
21.18
20.89
19.00
15.29
9.82
2.96
-4.69
-12.48
-19.90
-26.75
-33.20
-39.86
-47.55
-57.06
-68.59
-81.29
-93.12
-101.11
-102.21
-94.35
-77.28
-52.83
-24.42
4.03
29.18
48.97
62.71
70.66
73.55
72.18
67.37
60.14
51.71
43.41
36.42
31.39
28.38
26.92
26.36
26.11
25.85
25.42
24.69
23.39
21.03
17.21
11.75
4.82
-3.00
-11.01
-18.63
-25.67
-32.37
-39.44
-47.79
-58.17
-70.74
-84.57
-97.55
-106.67
-108.87
-101.97
-85.63
-61.50
-32.84
-3.51
23.10
44.74
60.47
70.38
75.08
75.36
72.09
66.22
58.87
51.23
44.37
38.99
35.37
33.31
32.36
32.04
32.01
32.07
32.08
31.76
30.63
28.08
23.65
17.27
9.33
0.60
-8.06
-16.05
-23.24
-30.02
-37.13
-45.43
-55.56
-67.54
-80.44
-92.25
-100.16
-101.30
-93.70
-77.12
-53.33
-25.61
2.19
26.82
46.26
59.90
68.06
71.50
71.01
67.34
61.29
53.85
46.15
39.26
33.96
30.55
28.87
28.41
28.60
28.96
29.19
29.10
28.50
27.06
24.40
20.16
14.29
7.11
-0.72
-8.48
-15.65
-22.17
-28.45
-35.26
-43.46
-53.55
-65.36
-77.65
-88.14
-93.99
-92.58
-82.48
-64.12
-39.87
-13.25
12.01
33.12
48.69
58.60
63.50
64.19
61.34
55.55
47.56
38.47
29.59
22.23
17.33
15.16
15.40
17.20
19.55
21.52
22.45
22.02
20.17
17.04
12.79
7.60
1.64
-4.96
-12.02
-19.42
-27.15
-35.44
-44.71
-55.26
-66.81
-78.04
-86.60
-89.68
-84.97
-71.63
-50.75
-25.14
1.58
25.97
45.64
59.47
67.41
70.04
68.20
62.79
54.84
45.51
36.09
27.75
21.37
17.28
15.32
14.90
15.32
15.91
16.15
15.65
14.08
11.21
6.94
1.44
-4.95
-11.75
-18.54
-25.14
-31.68
-38.53
-46.27
-55.54
-66.68
-79.41
-92.36
-103.09
-108.49
-105.79
-93.59
-72.58
-45.50
-16.33
11.00
33.62
50.25
61.00
66.75
68.54
67.17
63.23
57.28
50.08
42.58
35.74
30.35
26.82
25.09
24.77
25.27
26.03
26.48
26.12
24.52
21.39
16.62
10.40
3.12
-4.68
-12.52
-20.10
-27.47
-35.05
-43.58
-53.74
-65.66
-78.46
-90.00
-97.28
-97.29
-88.21
-70.14
-45.26
-17.14
10.33
34.08
52.34
64.69
71.52
73.62
71.86
67.11
60.32
52.52
44.73
37.86
32.54
29.06
27.38
27.23
28.10
29.41
30.56
30.96
30.10
27.60
23.34
17.42
10.26
2.39
-5.62
-13.40
-20.85
-28.20
-35.99
-44.92
-55.53
-67.74
-80.46
-91.45
-97.72
-96.44
-86.06
-67.02
-41.85
-14.34
11.64
33.18
48.94
58.90
63.88
64.89
62.77
58.20
51.80
44.34
36.75
30.00
24.91
21.94
21.05
21.80
23.46
25.22
26.40
26.49
25.16
22.33
18.02
12.49
6.10
-0.71
-7.55
-14.20
-20.76
-27.67
-35.57
-45.09
-56.28
-68.27
-79.00
-85.61
-85.29
-76.31
-58.86
-35.09
-8.51
17.11
38.79
54.88
65.02
69.67
69.61
65.71
58.83
49.99
40.41
31.36
23.92
18.80
16.16
15.66
16.58
18.04
19.26
19.63
18.79
16.59
12.98
8.03
1.90
-5.06
-12.41
-19.73
-26.76
-33.61
-40.79
-49.09
-59.19
-71.15
-83.91
-95.27
-102.21
-101.79
-92.21
-73.59
-48.08
-19.30
8.76
32.86
51.17
63.30
69.83
71.75
69.94
65.22
58.42
50.53
42.67
35.88
30.85
27.81
26.52
26.52
27.26
28.24
29.03
29.16
28.20
25.71
21.43
15.39
7.92
-0.35
-8.72
-16.62
-23.79
-30.46
-37.35
-45.41
-55.45
-67.49
-80.39
-91.70
-98.25
-97.11
-86.68
-67.40
-41.70
-13.31
13.97
37.22
54.95
66.92
73.65
75.90
74.36
69.73
62.86
54.88
47.01
40.26
35.21
31.91
30.00
28.92
28.23
27.72
27.31
26.92
26.29
24.94
22.29
17.92
11.81
4.37
-3.61
-11.34
-18.25
-24.30
-29.96
-36.04
-43.49
-52.93
-64.39
-76.91
-88.44
-96.22
-97.45
-90.26
-74.48
-51.90
-25.74
0.34
23.27
41.27
53.81
61.24
64.23
63.47
59.66
53.63
46.39
39.11
32.78
28.01
24.98
23.43
22.94
23.05
23.46
23.93
24.26
24.14
23.13
20.74
16.63
10.80
3.65
-4.12
-11.74
-18.66
-24.83
-30.68
-37.01
-44.64
-53.97
-64.58
-75.00
-82.88
-85.57
-80.96
-68.33
-48.74
-24.81
0.04
22.62
40.76
53.59
61.22
64.29
63.48
59.38
52.66
44.20
35.16
26.78
20.12
15.79
13.80
13.72
14.84
16.41
17.73
18.26
17.59
15.40
11.60
6.31
-0.07
-6.97
-13.82
-20.17
-25.95
-31.54
-37.67
-45.27
-55.05
-67.02
-80.11
-92.08
-99.88
-100.58
-92.36
-75.30
-51.44
-24.18
2.78
26.44
45.05
58.08
65.78
68.73
67.57
63.03
56.06
47.80
39.51
32.19
26.48
22.51
20.03
18.65
18.01
17.90
18.17
18.58
18.69
17.84
15.32
10.75
4.19
-3.75
-12.14
-20.09
-27.08
-33.18
-38.95
-45.25
-53.00
-62.70
-74.09
-85.83
-95.53
-100.28
-97.46
-85.76
-65.79
-40.00
-11.92
14.79
37.40
54.45
65.68
71.51
72.68
70.01
64.46
57.10
49.16
41.77
35.77
31.51
28.87
27.40
26.55
25.93
25.37
24.85
24.33
23.54
21.98
19.00
14.15
7.42
-0.71
-9.33
-17.53
-24.71
-30.86
-36.55
-42.77
-50.56
-60.52
-72.39
-84.69
-94.91
-100.07
-97.62
-86.40
-67.14
-42.35
-15.56
9.79
31.18
47.37
58.23
64.26
66.12
64.43
59.77
52.87
44.65
36.18
28.49
22.35
18.14
15.84
15.15
15.57
16.56
17.56
18.03
17.49
15.60
12.22
7.43
1.59
-4.84
-11.39
-17.77
-23.95
-30.19
-37.06
-45.25
-55.15
-66.45
-77.77
-86.68
-90.31
-86.31
-73.75
-53.69
-28.88
-2.90
20.88
40.12
53.81
62.02
65.33
64.51
60.32
53.56
45.18
36.29
28.03
21.32
16.75
14.43
14.03
14.90
16.26
17.32
17.42
16.10
13.15
8.65
2.89
-3.68
-10.57
-17.38
-23.91
-30.26
-36.80
-44.23
-53.28
-64.46
-77.46
-90.88
-102.14
-108.06
-105.86
-94.16
-73.68
-47.05
-18.07
9.51
32.87
50.60
62.50
69.07
71.11
69.41
64.76
58.07
50.34
42.60
35.71
30.22
26.37
24.08
23.08
23.03
23.49
23.94
23.79
22.46
19.52
14.84
8.63
1.39
-6.32
-14.00
-21.47
-28.82
-36.46
-45.00
-55.08
-66.97
-80.13
-92.94
-102.69
-106.28
-101.15
-86.35
-63.01
-34.14
-3.77
24.29
47.30
64.02
74.47
79.40
79.81
76.64
70.84
63.37
55.31
47.71
41.45
37.03
34.47
33.43
33.35
33.70
34.05
34.11
33.57
32.08
29.20
24.58
18.17
10.25
1.51
-7.32
-15.62
-23.27
-30.64
-38.52
-47.84
-59.18
-72.28
-85.73
-97.00
-102.96
-100.86
-89.32
-69.00
-42.52
-13.70
13.60
36.53
53.71
65.08
71.29
73.15
71.31
66.38
59.12
50.56
42.00
34.63
29.32
26.36
25.49
26.11
27.45
28.87
29.81
29.86
28.67
26.00
21.76
16.12
9.45
2.28
-4.96
-12.03
-19.05
-26.44
-34.87
-44.93
-56.74
-69.41
-81.01
-88.70
-89.60
-81.79
-65.15
-41.56
-14.41
12.47
35.94
54.09
66.36
73.04
74.80
72.38
66.59
58.45
49.22
40.22
32.56
26.91
23.42
21.79
21.55
22.14
23.06
23.80
23.81
22.50
19.43
14.44
7.75
-0.06
-8.24
-16.12
-23.37
-30.03
-36.65
-44.07
-53.24
-64.76
-78.32
-92.37
-104.13
-110.20
-107.71
-95.29
-73.79
-46.03
-15.96
12.52
36.56
54.72
66.83
73.44
75.34
73.36
68.35
61.35
53.57
46.28
40.47
36.64
34.70
34.10
34.17
34.38
34.44
34.30
33.85
32.73
30.37
26.17
19.80
11.50
2.05
-7.48
-16.17
-23.63
-30.10
-36.43
-43.74
-53.02
-64.68
-78.14
-91.64
-102.38
-107.24
-103.64
-90.57
-69.02
-41.74
-12.44
15.31
38.97
57.23
69.82
77.04
79.39
77.48
72.17
64.63
56.31
48.59
42.53
38.55
36.46
35.62
35.34
35.09
34.69
34.20
33.69
32.98
31.57
28.79
24.06
17.27
8.86
-0.32
-9.34
-17.53
-24.73
-31.28
-37.93
-45.57
-54.91
-66.10
-78.39
-89.96
-98.14
-100.15
-93.94
-79.07
-56.98
-30.61
-3.56
20.92
40.69
54.83
63.49
67.31
67.12
63.69
57.83
50.46
42.61
35.38
29.61
25.80
23.92
23.54
24.07
24.98
25.88
26.48
26.49
25.49
23.00
18.74
12.72
5.44
-2.34
-9.85
-16.59
-22.54
-28.25
-34.53
-42.32
-52.12
-63.60
-75.31
-84.82
-89.25
-86.23
-74.73
-55.56
-31.23
-5.14
19.34
39.72
54.67
63.92
67.87
67.26
62.99
56.07
47.70
39.07
31.28
25.10
20.87
18.56
17.81
18.18
19.13
20.12
20.62
20.11
18.19
14.62
9.48
3.08
-4.08
-11.52
-18.88
-26.04
-33.13
-40.58
-49.01
-59.00
-70.78
-83.68
-95.92
-104.75
-107.17
-100.97
-85.59
-62.55
-34.96
-6.62
19.14
40.10
55.40
65.14
69.91
70.45
67.51
61.96
54.78
47.10
39.98
34.25
30.31
28.13
27.35
27.46
27.98
28.50
28.68
28.12
26.38
23.04
17.86
10.95
2.81
-5.82
-14.18
-21.81
-28.69
-35.32
-42.60
-51.49
-62.54
-75.38
-88.35
-98.67
-103.06
-98.93
-85.32
-63.45
-36.38
-8.06
17.87
38.96
54.22
63.80
68.44
68.97
66.17
60.81
53.82
46.31
39.37
33.81
30.03
27.91
27.02
26.79
26.75
26.55
25.99
24.89
22.99
19.99
15.70
10.13
3.55
-3.55
-10.66
-17.44
-23.87
-30.34
-37.54
-46.22
-56.73
-68.55
-80.01
-88.52
-91.23
-86.03
-72.39
-51.71
-26.92
-1.62
21.03
38.96
51.46
58.82
61.79
61.15
57.54
51.57
43.93
35.57
27.58
21.03
16.66
14.76
14.97
16.51
18.39
19.68
19.74
18.31
15.46
11.49
6.76
1.54
-4.03
-9.94
-16.28
-23.25
-31.09
-40.12
-50.54
-62.14
-73.92
-83.95
-89.70
-88.69
-79.41
-62.06
-38.69
-12.62
12.53
33.89
49.87
60.20
65.39
66.25
63.53
57.93
50.27
41.62
33.22
26.18
21.27
18.63
17.89
18.35
19.26
20.08
20.35
19.74
17.89
14.52
9.47
2.96
-4.53
-12.28
-19.69
-26.48
-32.82
-39.29
-46.72
-55.86
-67.04
-79.73
-92.38
-102.44
-106.98
-103.56
-91.15
-70.59
-44.49
-16.42
10.14
32.59
49.70
61.29
67.87
70.14
68.78
64.51
58.17
50.81
43.52
37.32
32.87
30.39
29.68
30.18
31.26
32.29
32.74
32.16
30.18
26.57
21.30
14.58
6.89
-1.15
-8.95
-16.22
-23.00
-29.82
-37.51
-46.94
-58.57
-71.98
-85.53
-96.54
-101.87
-98.97
-86.82
-66.40
-40.50
-12.79
13.19
34.96
51.33
62.21
68.16
69.88
68.08
63.48
57.01
49.77
42.89
37.35
33.65
31.77
31.25
31.48
31.92
32.24
32.28
31.83
30.57
28.06
23.96
18.21
11.11
3.27
-4.67
-12.27
-19.43
-26.43
-33.85
-42.39
-52.52
-64.09
-75.96
-85.93
-91.22
-89.32
-78.96
-60.71
-36.98
-11.19
13.20
33.64
48.92
58.86
63.97
64.86
62.18
56.56
48.94
40.44
32.36
25.78
21.38
19.28
19.10
20.11
21.45
22.31
22.06
20.33
17.02
12.34
6.69
0.57
-5.61
-11.64
-17.49
-23.35
-29.59
-36.72
-45.34
-55.84
-67.99
-80.50
-90.99
-96.43
-94.15
-82.80
-63.07
-37.58
-10.08
15.70
37.03
52.58
62.28
66.78
67.01
63.79
57.94
50.32
41.96
33.93
27.22
22.47
19.84
19.01
19.34
19.99
20.23
19.47
17.38
13.82
8.92
2.93
-3.80
-10.90
-18.11
-25.29
-32.49
-40.02
-48.36
-58.17
-69.82
-82.95
-96.02
-106.36
-110.72
-106.43
-92.46
-70.02
-42.30
-13.39
12.97
34.38
50.03
60.29
65.97
67.85
66.44
62.18
55.72
48.03
40.30
33.63
28.83
26.16
25.39
25.92
26.99
27.83
27.80
26.48
23.63
19.30
13.71
7.20
0.16
-7.18
-14.75
-22.68
-31.32
-41.13
-52.52
-65.50
-79.23
-91.77
-100.37
-102.14
-95.06
-78.90
-55.51
-28.28
-1.14
22.68
41.31
54.32
62.24
65.91
66.07
63.24
57.99
51.13
43.78
37.18
32.40
29.99
29.81
31.13
32.87
34.00
33.83
32.08
28.92
24.67
19.66
14.08
7.96
1.31
-5.90
-13.69
-22.19
-31.68
-42.42
-54.32
-66.53
-77.18
-83.71
-83.60
-75.33
-59.08
-36.84
-11.81
12.54
33.48
49.48
60.22
66.12
67.92
66.25
61.72
55.04
47.16
39.31
32.74
28.36
26.47
26.63
27.82
28.89
28.94
27.57
24.92
21.37
17.31
12.91
8.13
2.79
-3.26
-10.03
-17.58
-26.04
-35.68
-46.60
-58.34
-69.48
-77.71
-80.44
-75.66
-62.87
-43.37
-19.91
4.23
26.18
44.10
57.26
65.67
69.66
69.70
66.33
60.33
52.77
44.93
37.96
32.68
29.42
27.99
27.83
28.22
28.47
28.05
26.60
23.89
19.89
14.67
8.51
1.81
-4.99
-11.56
-17.85
-24.11
-30.95
-39.09
-49.04
-60.69
-72.97
-83.79
-90.43
-90.30
-81.88
-65.36
-42.71
-17.08
8.17
30.31
47.78
60.10
67.43
70.30
69.36
65.44
59.65
53.22
47.32
42.68
39.55
37.68
36.57
35.73
34.91
34.05
33.20
32.30
31.09
29.11
25.82
20.88
14.30
6.52
-1.79
-9.91
-17.41
-24.28
-30.87
-37.87
-45.95
-55.51
-66.34
-77.36
-86.64
-91.75
-90.46
-81.55
-65.38
-43.88
-20.03
3.12
23.17
38.89
50.06
57.06
60.42
60.58
57.95
53.12
46.94
40.53
34.99
31.02
28.80
27.93
27.73
27.55
27.09
26.40
25.66
24.88
23.74
21.62
17.93
12.44
5.43
-2.32
-9.87
-16.49
-21.91
-26.38
-30.57
-35.34
-41.51
-49.43
-58.79
-68.39
-76.24
-80.01
-77.74
-68.53
-52.97
-33.03
-11.40
9.23
26.87
40.45
49.70
54.83
56.22
54.34
49.84
43.60
36.74
30.35
25.30
21.95
20.16
19.48
19.37
19.45
19.51
19.45
19.04
17.90
15.62
11.88
6.70
0.41
-6.40
-13.14
-19.39
-25.03
-30.20
-35.27
-40.71
-47.01
-54.48
-62.99
-71.66
-78.87
-82.50
-80.53
-71.84
-56.63
-36.62
-14.46
7.01
25.51
39.74
49.37
54.68
56.18
54.42
50.00
43.79
36.88
30.52
25.74
23.00
22.06
22.18
22.48
22.36
21.66
20.60
19.44
18.20
16.51
13.84
9.74
4.16
-2.51
-9.54
-16.18
-21.95
-26.78
-31.06
-35.52
-41.03
-48.32
-57.57
-68.19
-78.61
-86.60
-89.73
-86.21
-75.47
-58.46
-37.38
-15.05
5.93
23.70
37.40
46.91
52.55
54.76
53.98
50.74
45.76
39.94
34.27
29.55
26.22
24.22
23.15
22.47
21.76
20.87
19.88
18.94
17.99
16.71
14.53
10.93
5.73
-0.81
-8.03
-15.13
-21.47
-26.85
-31.52
-36.07
-41.27
-47.78
-55.89
-65.27
-74.78
-82.54
-86.32
-84.18
-75.17
-59.71
-39.62
-17.58
3.63
21.82
35.74
45.05
50.08
51.42
49.78
45.83
40.34
34.14
28.08
22.93
19.21
17.05
16.25
16.36
16.89
17.40
17.62
17.34
16.36
14.42
11.31
6.94
1.49
-4.62
-10.84
-16.67
-21.84
-26.46
-31.01
-36.20
-42.70
-50.85
-60.23
-69.54
-76.73
-79.51
-76.10
-65.90
-49.77
-29.83
-8.87
10.51
26.48
38.11
45.32
48.47
48.12
44.92
39.63
33.13
26.42
20.40
15.79
12.86
11.50
11.32
11.81
12.52
13.13
13.36
12.93
11.52
8.86
4.83
-0.45
-6.60
-13.14
-19.62
-25.86
-31.99
-38.43
-45.79
-54.57
-64.89
-76.07
-86.53
-93.94
-95.85
-90.48
-77.44
-57.94
-34.56
-10.39
11.74
29.91
43.21
51.62
55.60
55.85
53.13
48.30
42.27
35.96
30.19
25.52
22.25
20.32
19.47
19.36
19.68
20.18
20.58
20.54
19.54
17.02
12.68
6.54
-0.89
-8.83
-16.52
-23.52
-29.84
-35.97
-42.68
-50.81
-60.91
-72.86
-85.53
-96.80
-103.89
-104.19
-96.14
-79.91
-57.37
-31.59
-5.89
17.01
35.50
48.99
57.68
62.09
62.87
60.76
56.57
51.24
45.67
40.64
36.67
33.94
32.35
31.58
31.26
31.01
30.55
29.65
28.06
25.55
21.86
16.83
10.51
3.17
-4.73
-12.63
-20.13
-27.10
-33.86
-41.12
-49.71
-60.22
-72.43
-85.01
-95.58
-101.23
-99.49
-89.16
-70.86
-46.90
-20.52
5.01
27.17
44.57
56.85
64.29
67.43
66.91
63.40
57.69
50.69
43.46
36.97
32.05
29.13
28.21
28.80
30.08
31.19
31.40
30.32
27.89
24.31
19.84
14.69
8.98
2.71
-4.13
-11.60
-19.83
-29.08
-39.65
-51.51
-64.01
-75.51
-83.61
-85.70
-79.93
-65.90
-45.03
-20.14
5.37
28.52
47.34
61.02
69.59
73.45
73.09
69.02
61.96
52.96
43.37
34.63
27.90
23.80
22.30
22.78
24.26
25.75
26.36
25.51
22.95
18.68
12.97
6.20
-1.19
-8.84
-16.49
-24.10
-31.89
-40.35
-50.11
-61.59
-74.62
-87.95
-99.27
-105.61
-104.23
-93.63
-74.19
-48.13
-18.95
9.66
34.74
54.50
68.32
76.42
79.45
78.17
73.52
66.50
58.30
50.13
43.07
37.86
34.79
33.64
33.82
34.54
35.02
34.64
32.99
29.84
25.15
19.07
11.93
4.17
-3.75
-11.51
-19.11
-26.93
-35.66
-46.04
-58.42
-72.29
-86.02
-96.98
-102.14
-99.00
-86.48
-65.44
-38.47
-9.15
18.98
43.21
62.10
75.27
83.07
86.19
85.46
81.79
76.18
69.62
62.98
56.90
51.77
47.78
44.98
43.29
42.50
42.18
41.74
40.53
37.97
33.73
27.80
20.44
12.07
3.19
-5.73
-14.32
-22.46
-30.36
-38.58
-47.83
-58.57
-70.47
-82.06
-90.84
-93.90
-88.93
-75.13
-53.61
-27.21
0.43
25.85
46.58
61.48
70.53
74.44
74.17
70.75
65.11
58.24
51.06
44.48
39.21
35.65
33.81
33.36
33.76
34.40
34.77
34.44
33.13
30.62
26.79
21.67
15.51
8.68
1.56
-5.55
-12.55
-19.57
-26.99
-35.23
-44.66
-55.15
-65.87
-75.10
-80.55
-79.95
-71.96
-56.73
-36.01
-12.72
10.02
29.66
44.76
54.95
60.50
61.94
59.85
54.88
47.85
39.82
31.98
25.40
20.77
18.30
17.71
18.43
19.74
20.98
21.60
21.20
19.57
16.64
12.48
7.28
1.27
-5.28
-12.14
-19.12
-26.25
-33.73
-41.99
-51.37
-61.71
-72.00
-80.31
-84.21
-81.57
-71.40
-54.37
-32.66
-9.29
12.73
31.21
45.02
53.94
58.34
58.83
56.13
51.03
44.47
37.45
30.96
25.70
22.07
20.09
19.47
19.73
20.36
20.83
20.69
19.57
17.23
13.60
8.77
3.00
-3.33
-9.86
-16.27
-22.39
-28.28
-34.28
-40.95
-48.92
-58.53
-69.40
-80.14
-88.47
-91.75
-87.86
-76.03
-57.30
-34.22
-10.08
12.03
30.06
43.17
51.51
55.70
56.44
54.36
50.08
44.42
38.36
32.87
28.66
25.91
24.37
23.55
23.06
22.73
22.63
22.74
22.82
22.29
20.43
16.69
10.99
3.76
-4.14
-11.84
-18.70
-24.53
-29.63
-34.71
-40.61
-48.06
-57.32
-67.82
-78.10
-85.95
-88.98
-85.35
-74.46
-57.23
-35.89
-13.36
7.59
24.96
37.77
45.96
50.03
50.69
48.69
44.76
39.66
34.16
29.02
24.82
21.88
20.19
19.49
19.41
19.60
19.80
19.82
19.48
18.48
16.47
13.17
8.50
2.71
-3.65
-9.98
-15.77
-20.87
-25.53
-30.33
-35.96
-42.97
-51.42
-60.66
-69.23
-75.13
-76.28
-71.23
-59.77
-43.04
-23.31
-3.25
14.78
29.20
39.39
45.41
47.73
46.95
43.76
38.86
33.04
27.08
21.65
17.22
14.06
12.25
11.65
12.02
12.93
13.85
14.19
13.48
11.44
8.03
3.48
-1.82
-7.42
-12.97
-18.23
-23.20
-28.15
-33.62
-40.25
-48.46
-58.07
-68.04
-76.39
-80.73
-78.98
-70.15
-54.73
-34.66
-12.76
8.11
25.74
38.88
47.28
51.30
51.61
48.94
44.04
37.75
30.96
24.60
19.44
15.97
14.21
13.86
14.41
15.32
16.15
16.59
16.31
14.99
12.26
7.90
1.98
-5.12
-12.69
-20.02
-26.56
-32.29
-37.65
-43.48
-50.72
-59.89
-70.70
-81.79
-90.92
-95.52
-93.47
-83.85
-67.34
-46.01
-22.72
-0.35
18.93
33.95
44.44
50.71
53.36
53.02
50.34
46.05
40.94
35.86
31.50
28.29
26.27
25.18
24.59
24.18
23.78
23.39
22.95
22.21
20.66
17.73
13.05
6.71
-0.77
-8.57
-15.94
-22.56
-28.59
-34.66
-41.63
-50.23
-60.70
-72.48
-84.05
-93.10
-97.11
-94.05
-83.15
-65.23
-42.58
-18.24
4.87
24.59
39.84
50.43
56.69
59.15
58.40
55.09
50.01
44.08
38.23
33.22
29.51
27.22
26.23
26.26
26.96
27.93
28.74
28.86
27.80
25.18
20.88
15.14
8.44
1.42
-5.37
-11.60
-17.29
-22.79
-28.75
-35.95
-45.02
-55.92
-67.71
-78.36
-85.23
-85.76
-78.41
-63.34
-42.41
-18.65
4.66
24.88
40.53
51.22
57.34
59.51
58.37
54.48
48.49
41.23
33.78
27.27
22.60
20.28
20.21
21.80
24.15
26.31
27.51
27.30
25.50
22.21
17.63
12.06
5.80
-0.86
-7.66
-14.46
-21.32
-28.60
-36.83
-46.48
-57.40
-68.53
-77.82
-82.67
-80.80
-71.06
-53.97
-31.68
-7.24
16.22
36.33
51.72
62.05
67.56
68.78
66.38
61.11
53.92
45.94
38.36
32.17
27.96
25.78
25.24
25.65
26.36
26.78
26.52
25.28
22.82
18.97
13.71
7.23
-0.02
-7.53
-14.82
-21.68
-28.26
-35.12
-43.06
-52.81
-64.59
-77.60
-89.89
-98.63
-100.93
-94.78
-79.85
-57.70
-31.26
-4.04
20.92
41.52
56.82
66.72
71.69
72.48
69.99
65.25
59.33
53.22
47.72
43.34
40.26
38.42
37.58
37.43
37.69
38.01
38.03
37.26
35.23
31.54
26.09
19.08
11.03
2.56
-5.78
-13.68
-21.19
-28.71
-36.89
-46.39
-57.47
-69.56
-81.02
-89.31
-91.68
-86.13
-72.21
-51.31
-26.27
-0.48
23.10
42.51
56.94
66.40
71.41
72.59
70.67
66.44
60.85
54.92
49.54
45.35
42.53
40.90
39.99
39.35
38.68
37.87
36.96
35.89
34.37
31.92
28.04
22.47
15.35
7.25
-1.09
-8.99
-16.05
-22.31
-28.21
-34.52
-42.04
-51.28
-61.97
-72.86
-81.75
-86.07
-83.66
-73.56
-56.48
-34.58
-10.86
11.73
30.97
45.62
55.37
60.53
61.73
59.75
55.44
49.71
43.45
37.47
32.38
28.55
26.05
24.75
24.36
24.55
24.99
25.33
25.13
23.96
21.43
17.34
11.83
5.30
-1.64
-8.46
-14.82
-20.66
-26.22
-31.92
-38.30
-45.70
-54.07
-62.55
-69.47
-72.62
-69.92
-60.26
-44.06
-23.31
-0.97
19.88
36.88
48.84
55.62
57.80
56.24
51.82
45.41
37.95
30.46
23.93
19.11
16.37
15.63
16.38
17.98
19.73
21.11
21.70
21.15
19.20
15.65
10.52
4.08
-3.16
-10.54
-17.51
-23.79
-29.53
-35.24
-41.63
-49.29
-58.31
-68.00
-76.80
-82.57
-83.13
-77.05
-64.17
-45.82
-24.48
-3.00
16.13
31.32
41.99
48.31
50.85
50.30
47.37
42.84
37.56
32.33
27.77
24.20
21.68
20.06
19.17
18.90
19.11
19.65
20.15
20.11
18.97
16.28
11.87
5.96
-0.94
-8.17
-15.14
-21.54
-27.35
-32.84
-38.47
-44.71
-51.96
-60.25
-69.01
-76.85
-81.73
-81.51
-74.59
-60.71
-41.20
-18.70
3.70
23.28
38.37
48.51
54.11
55.94
54.75
51.20
45.92
39.68
33.38
27.89
23.80
21.29
20.13
19.81
19.86
20.01
20.15
20.29
20.23
19.57
17.72
14.20
8.85
2.01
-5.57
-13.00
-19.56
-25.01
-29.58
-34.00
-39.14
-45.79
-54.20
-63.79
-73.06
-79.84
-81.82
-77.34
-66.05
-49.10
-28.83
-8.08
10.65
25.70
36.39
42.77
45.32
44.65
41.43
36.42
30.50
24.57
19.37
15.40
12.83
11.62
11.56
12.41
13.88
15.62
17.17
18.04
17.73
15.92
12.50
7.69
1.93
-4.24
-10.28
-15.86
-20.94
-25.84
-31.16
-37.56
-45.43
-54.42
-63.32
-70.08
-72.48
-68.79
-58.54
-42.75
-23.60
-3.83
14.12
28.60
38.92
45.11
47.57
46.83
43.46
38.09
31.51
24.63
18.33
13.33
10.01
8.40
8.08
8.41
8.69
8.35
7.09
4.88
1.88
-1.73
-5.78
-10.17
-14.84
-19.73
-24.82
-30.22
-36.26
-43.34
-51.79
-61.41
-71.24
-79.50
-83.96
-82.59
-74.30
-59.38
-39.55
-17.45
4.04
22.58
36.73
46.05
50.82
51.72
49.54
45.10
39.21
32.70
26.40
20.98
16.95
14.52
13.66
14.05
15.17
16.36
16.89
16.17
13.85
9.96
4.82
-1.02
-7.09
-13.10
-19.06
-25.24
-32.03
-39.87
-49.08
-59.72
-71.29
-82.50
-91.33
-95.35
-92.49
-81.78
-63.84
-40.85
-15.95
7.71
27.71
42.77
52.64
57.77
58.90
56.87
52.61
47.09
41.32
36.12
32.03
29.23
27.58
26.83
26.73
27.10
27.74
28.32
28.32
27.16
24.38
19.84
13.77
6.69
-0.80
-8.26
-15.48
-22.51
-29.65
-37.36
-46.17
-56.34
-67.60
-78.73
-87.62
-91.69
-88.74
-77.76
-59.48
-36.21
-11.15
12.51
32.44
47.48
57.52
63.04
64.76
63.31
59.27
53.28
46.23
39.14
33.09
28.90
26.90
26.84
28.07
29.69
30.93
31.20
30.24
27.98
24.51
20.03
14.76
8.94
2.75
-3.70
-10.44
-17.63
-25.58
-34.60
-44.76
-55.51
-65.56
-72.82
-75.01
-70.35
-58.33
-40.01
-17.77
5.35
26.55
43.82
56.17
63.45
66.01
64.46
59.60
52.43
44.12
35.93
29.06
24.33
22.07
22.03
23.46
25.36
26.75
26.88
25.42
22.38
18.05
12.84
7.15
1.27
-4.70
-10.83
-17.37
-24.72
-33.33
-43.62
-55.65
-68.82
-81.62
-91.71
-96.36
-93.30
-81.53
-61.85
-36.74
-9.65
15.94
37.46
53.62
64.29
70.04
71.64
69.85
65.36
58.94
51.54
44.23
38.01
33.58
31.19
30.61
31.26
32.43
33.42
33.65
32.67
30.21
26.11
20.39
13.29
5.22
-3.30
-11.79
-19.96
-27.82
-35.78
-44.46
-54.46
-65.84
-77.75
-88.28
-94.78
-94.58
-86.04
-69.15
-45.75
-18.99
7.58
30.96
49.33
62.09
69.61
72.68
72.20
68.99
63.86
57.69
51.35
45.68
41.27
38.34
36.75
36.07
35.84
35.71
35.44
34.87
33.74
31.66
28.16
22.89
15.88
7.60
-1.19
-9.67
-17.29
-24.03
-30.34
-37.05
-45.05
-54.95
-66.68
-79.22
-90.54
-97.95
-98.79
-91.32
-75.46
-52.99
-27.00
-1.03
21.90
39.92
52.42
59.66
62.33
61.25
57.24
51.23
44.29
37.52
31.87
27.89
25.72
25.05
25.37
26.15
26.98
27.60
27.81
27.36
25.89
23.00
18.45
12.34
5.06
-2.67
-10.20
-17.05
-23.19
-29.01
-35.28
-42.83
-52.20
-63.20
-74.60
-84.22
-89.36
-87.66
-77.90
-60.62
-37.93
-12.93
11.19
31.97
47.96
58.70
64.36
65.42
62.56
56.63
48.68
39.93
31.66
24.85
20.12
17.59
16.97
17.68
19.06
20.47
21.33
21.11
19.42
16.03
10.95
4.50
-2.81
-10.40
-17.86
-25.07
-32.20
-39.65
-47.95
-57.51
-68.34
-79.71
-90.02
-96.94
-97.94
-91.23
-76.40
-54.75
-29.03
-2.59
21.47
41.02
55.08
63.58
67.05
66.27
62.17
55.84
48.46
41.25
35.20
30.94
28.58
27.75
27.80
28.08
28.10
27.64
26.65
25.08
22.73
19.29
14.43
8.13
0.70
-7.24
-15.01
-22.17
-28.74
-35.18
-42.31
-50.96
-61.65
-74.15
-87.16
-98.34
-104.74
-103.65
-93.55
-74.81
-49.69
-21.71
5.51
29.20
47.86
61.22
69.68
73.81
74.13
71.22
65.86
59.14
52.32
46.42
42.05
39.23
37.58
36.57
35.88
35.44
35.30
35.36
35.23
34.15
31.33
26.22
18.86
9.85
0.19
-9.13
-17.41
-24.52
-30.82
-37.07
-44.17
-52.89
-63.45
-75.30
-86.81
-95.53
-98.69
-94.12
-81.00
-60.34
-34.73
-7.64
17.62
38.63
54.18
64.11
68.89
69.24
65.97
60.00
52.36
44.24
36.72
30.67
26.56
24.41
23.92
24.59
25.84
27.10
27.88
27.78
26.47
23.74
19.52
13.96
7.39
0.31
-6.76
-13.43
-19.62
-25.65
-32.18
-39.95
-49.37
-60.03
-70.50
-78.47
-81.33
-77.05
-64.97
-46.15
-23.12
0.86
22.75
40.46
53.07
60.61
63.69
62.99
59.20
52.97
45.12
36.64
28.60
21.99
17.40
14.96
14.35
14.91
15.88
16.58
16.42
15.03
12.23
8.08
2.82
-3.15
-9.42
-15.65
-21.69
-27.61
-33.76
-40.69
-49.03
-59.12
-70.61
-82.13
-91.33
-95.43
-92.07
-80.23
-60.74
-36.10
-9.75
14.93
35.39
50.35
59.63
63.82
63.84
60.68
55.31
48.66
41.64
35.02
29.45
25.33
22.81
21.78
21.90
22.69
23.59
23.98
23.34
21.24
17.50
12.23
5.81
-1.22
-8.35
-15.24
-21.89
-28.59
-35.85
-44.26
-54.21
-65.58
-77.46
-88.04
-94.84
-95.41
-88.07
-72.68
-50.82
-25.40
0.20
23.08
41.40
54.48
62.51
66.06
65.82
62.48
56.86
50.02
43.08
37.05
32.53
29.63
28.08
27.40
27.17
27.14
27.18
27.07
26.49
24.93
21.98
17.38
11.28
4.15
-3.37
-10.67
-17.42
-23.61
-29.65
-36.23
-44.05
-53.58
-64.52
-75.59
-84.57
-88.84
-86.18
-75.62
-57.88
-35.24
-10.83
12.24
31.64
46.15
55.48
60.00
60.39
57.42
52.03
45.23
38.11
31.66
26.64
23.41
21.91
21.79
22.50
23.56
24.56
25.20
25.22
24.33
22.22
18.70
13.78
7.72
1.04
-5.73
-12.18
-18.26
-24.28
-30.86
-38.61
-47.91
-58.41
-68.83
-77.11
-80.80
-77.84
-67.35
-50.03
-28.12
-4.73
17.05
34.93
47.74
55.39
58.42
57.58
53.65
47.43
39.87
32.05
25.09
19.84
16.71
15.58
15.91
17.02
18.25
19.12
19.27
18.44
16.45
13.18
8.63
3.00
-3.38
-10.08
-16.71
-23.02
-29.07
-35.30
-42.32
-50.71
-60.51
-70.82
-79.78
-84.90
-83.85
-75.33
-59.61
-38.57
-15.11
7.66
27.22
42.07
51.74
56.46
56.88
53.77
48.08
40.88
33.35
26.61
21.50
18.37
17.09
17.21
18.15
19.40
20.55
21.22
20.97
19.42
16.30
11.62
5.75
-0.75
-7.28
-13.46
-19.23
-24.81
-30.63
-37.27
-45.31
-55.09
-66.38
-78.05
-88.03
-93.73
-92.73
-83.74
-67.12
-44.86
-19.98
4.37
25.70
42.59
54.54
61.71
64.56
63.72
60.00
54.41
48.13
42.27
37.65
34.61
33.01
32.40
32.22
32.08
31.82
31.49
31.15
30.70
29.72
27.57
23.59
17.46
9.43
0.28
-8.87
-17.02
-23.70
-29.19
-34.32
-40.23
-47.84
-57.52
-68.76
-80.13
-89.46
-94.28
-92.51
-83.07
-66.42
-44.44
-20.01
3.83
24.62
40.91
52.19
58.64
60.78
59.25
54.89
48.74
42.06
36.11
31.83
29.60
29.18
29.90
30.99
31.85
32.29
32.39
32.27
31.87
30.80
28.51
24.47
18.53
11.03
2.73
-5.43
-12.70
-18.76
-23.86
-28.75
-34.36
-41.56
-50.70
-61.33
-72.03
-80.65
-84.74
-82.35
-72.65
-56.32
-35.38
-12.65
9.05
27.56
41.65
51.01
55.87
56.77
54.35
49.36
42.71
35.48
28.84
23.71
20.61
19.50
19.83
20.84
21.87
22.56
22.82
22.62
21.76
19.82
16.32
11.01
4.12
-3.67
-11.44
-18.47
-24.44
-29.64
-34.81
-40.93
-48.81
-58.75
-70.16
-81.40
-90.07
-93.48
-89.61
-77.79
-59.01
-35.67
-10.88
12.47
32.23
47.24
57.19
62.27
62.97
60.01
54.41
47.39
40.25
34.13
29.76
27.31
26.48
26.69
27.32
27.95
28.42
28.73
28.88
28.63
27.47
24.72
19.84
12.76
3.95
-5.62
-14.84
-22.85
-29.41
-34.91
-40.28
-46.58
-54.70
-64.93
-76.66
-88.28
-97.37
-101.23
-97.69
-85.87
-66.61
-42.31
-16.20
8.56
29.68
45.98
57.25
63.87
66.37
65.37
61.58
55.97
49.73
44.08
39.92
37.59
36.85
36.96
37.11
36.74
35.71
34.28
32.77
31.31
29.63
27.11
23.10
17.24
9.67
1.06
-7.67
-15.73
-22.71
-28.76
-34.49
-40.79
-48.46
-57.91
-68.84
-79.99
-89.30
-94.31
-92.78
-83.55
-66.98
-44.94
-20.35
3.66
24.51
40.73
51.83
58.13
60.26
58.99
55.10
49.50
43.17
37.13
32.23
28.95
27.30
26.98
27.49
28.42
29.49
30.46
31.07
30.87
29.27
25.80
20.32
13.18
5.16
-2.83
-10.02
-16.15
-21.46
-26.57
-32.31
-39.43
-48.28
-58.57
-69.12
-77.91
-82.45
-80.48
-70.87
-54.13
-32.39
-8.81
13.39
31.85
45.40
53.97
58.10
58.48
55.73
50.50
43.56
35.95
28.78
23.02
19.27
17.58
17.56
18.60
20.03
21.31
22.00
21.78
20.36
17.54
13.29
7.80
1.48
-5.20
-11.83
-18.29
-24.69
-31.44
-39.09
-48.12
-58.65
-70.10
-80.95
-88.86
-91.22
-86.00
-72.61
-52.29
-27.83
-2.78
19.70
37.53
49.99
57.38
60.49
60.14
57.02
51.77
45.15
38.13
31.72
26.78
23.75
22.58
22.85
23.92
25.23
26.31
26.87
26.60
25.15
22.17
17.46
11.08
3.45
-4.73
-12.68
-19.86
-26.15
-31.96
-38.17
-45.77
-55.42
-66.97
-79.10
-89.43
-95.04
-93.47
-83.55
-65.91
-42.81
-17.48
6.87
27.78
43.91
54.94
61.22
63.38
62.19
58.46
53.17
47.38
42.14
38.21
35.89
34.96
34.87
34.98
34.85
34.38
33.64
32.71
31.40
29.30
25.92
20.93
14.43
6.86
-1.08
-8.74
-15.71
-21.96
-27.86
-34.05
-41.27
-50.07
-60.40
-71.31
-80.86
-86.52
-85.87
-77.52
-61.71
-40.38
-16.57
6.48
26.24
41.34
51.52
57.22
59.13
57.87
54.03
48.28
41.54
34.87
29.30
25.47
23.54
23.13
23.62
24.40
25.06
25.43
25.45
24.92
23.51
20.78
16.41
10.44
3.30
-4.32
-11.68
-18.32
-24.21
-29.76
-35.66
-42.68
-51.26
-61.17
-71.21
-79.41
-83.32
-80.87
-71.09
-54.59
-33.48
-10.74
10.64
28.43
41.52
49.82
53.88
54.44
52.18
47.64
41.48
34.46
27.56
21.71
17.64
15.61
15.44
16.55
18.24
19.81
20.71
20.56
19.09
16.16
11.84
6.37
0.22
-6.10
-12.11
-17.61
-22.73
-27.94
-33.93
-41.38
-50.60
-61.14
-71.56
-79.59
-82.71
-78.95
-67.69
-49.96
-28.17
-5.38
15.58
32.74
45.20
52.89
56.21
55.75
52.20
46.41
39.44
32.47
26.54
22.30
19.88
18.90
18.75
18.89
19.01
19.04
18.93
18.49
17.28
14.83
10.81
5.29
-1.23
-8.05
-14.54
-20.41
-25.85
-31.40
-37.78
-45.66
-55.32
-66.37
-77.53
-86.65
-91.20
-88.97
-78.95
-61.74
-39.57
-15.59
7.13
26.31
40.86
50.70
56.27
58.14
56.85
52.97
47.26
40.75
34.53
29.53
26.27
24.75
24.56
25.15
26.02
26.86
27.46
27.62
26.95
25.01
21.36
15.86
8.84
0.96
-6.96
-14.28
-20.77
-26.71
-32.76
-39.77
-48.45
-59.01
-70.80
-82.17
-90.62
-93.47
-88.70
-75.74
-55.85
-31.78
-6.90
15.68
33.90
46.92
54.84
58.29
58.03
54.87
49.65
43.37
37.09
31.71
27.84
25.63
24.83
24.97
25.59
26.36
27.10
27.66
27.81
27.14
25.16
21.51
16.10
9.27
1.68
-5.88
-12.78
-18.78
-24.13
-29.52
-35.83
-43.82
-53.63
-64.57
-74.93
-82.33
-84.31
-79.18
-66.68
-48.13
-26.11
-3.62
16.69
33.12
44.95
52.24
55.39
54.93
51.46
45.74
38.68
31.32
24.65
19.41
16.07
14.74
15.24
17.13
19.76
22.34
24.06
24.20
22.35
18.46
12.85
6.12
-1.04
-8.05
-14.55
-20.51
-26.20
-32.20
-39.21
-47.75
-57.78
-68.35
-77.52
-82.73
-81.59
-72.75
-56.49
-34.78
-10.70
12.45
32.07
46.68
55.95
60.29
60.48
57.39
51.95
45.14
38.06
31.72
26.89
23.89
22.57
22.42
22.82
23.29
23.55
23.46
22.89
21.56
19.12
15.28
9.99
3.51
-3.60
-10.74
-17.45
-23.63
-29.56
-35.90
-43.48
-52.93
-64.28
-76.54
-87.62
-94.71
-95.12
-87.24
-71.21
-49.01
-23.77
1.17
23.19
40.79
53.52
61.55
65.34
65.38
62.35
57.18
51.00
45.00
40.08
36.74
34.92
34.23
34.16
34.29
34.42
34.46
34.32
33.76
32.37
29.67
25.31
19.25
11.82
3.65
-4.51
-12.11
-18.96
-25.32
-31.84
-39.32
-48.37
-59.01
-70.36
-80.57
-87.15
-87.70
-80.65
-65.99
-45.29
-21.38
2.59
23.92
40.91
52.96
60.21
63.25
62.74
59.45
54.27
48.23
42.40
37.64
34.43
32.73
32.11
31.95
31.77
31.36
30.79
30.24
29.72
28.98
27.46
24.55
19.89
13.57
6.17
-1.46
-8.54
-14.66
-19.88
-24.76
-30.06
-36.55
-44.66
-54.12
-63.82
-71.81
-75.76
-73.66
-64.53
-48.94
-28.89
-7.28
13.04
29.94
42.37
50.20
53.88
54.00
51.18
46.09
39.54
32.50
25.97
20.76
17.33
15.72
15.64
16.61
18.10
19.60
20.63
20.80
19.74
17.24
13.29
8.11
2.16
-4.02
-9.96
-15.46
-20.61
-25.83
-31.73
-38.92
-47.68
-57.61
-67.39
-74.93
-77.81
-74.10
-63.10
-45.73
-24.35
-2.06
18.29
34.75
46.53
53.71
56.84
56.53
53.33
47.88
41.02
33.86
27.49
22.76
20.07
19.20
19.58
20.46
21.25
21.61
21.42
20.62
19.03
16.31
12.14
6.39
-0.66
-8.29
-15.64
-22.05
-27.28
-31.73
-36.18
-41.60
-48.70
-57.60
-67.57
-77.02
-83.71
-85.36
-80.31
-68.21
-50.15
-28.50
-6.13
14.35
31.16
43.51
51.41
55.25
55.55
52.93
48.07
41.90
35.48
29.77
25.49
22.87
21.74
21.62
22.02
22.61
23.28
23.96
24.47
24.40
23.17
20.29
15.62
9.46
2.45
-4.60
-11.06
-16.67
-21.59
-26.31
-31.51
-37.90
-45.93
-55.46
-65.54
-74.34
-79.54
-78.97
-71.47
-57.33
-38.34
-17.19
3.35
21.14
35.02
44.70
50.44
52.67
51.83
48.45
43.20
37.00
30.88
25.80
22.37
20.75
20.66
21.47
22.55
23.42
23.91
24.07
24.00
23.60
22.47
20.03
15.83
9.83
2.55
-5.10
-12.16
-17.98
-22.55
-26.38
-30.36
-35.34
-41.88
-50.02
-59.06
-67.61
-73.69
-75.28
-70.82
-59.92
-43.58
-23.99
-3.94
14.06
28.33
38.25
44.03
46.32
45.77
43.00
38.57
33.12
27.45
22.32
18.37
15.90
14.86
14.93
15.67
16.68
17.67
18.42
18.69
18.22
16.68
13.86
9.79
4.76
-0.75
-6.26
-11.50
-16.54
-21.69
-27.47
-34.37
-42.55
-51.70
-60.81
-68.22
-71.99
-70.36
-62.49
-48.72
-30.74
-11.02
7.81
23.73
35.60
43.13
46.58
46.44
43.36
38.05
31.44
24.57
18.43
13.78
11.00
10.05
10.57
12.02
13.84
15.48
16.49
16.48
15.20
12.51
8.41
3.10
-3.04
-9.50
-15.79
-21.59
-26.87
-31.96
-37.44
-43.97
-52.01
-61.40
-71.25
-79.82
-84.92
-84.48
-77.26
-63.31
-44.19
-22.47
-1.05
17.59
31.97
41.64
46.98
48.73
47.70
44.61
40.14
34.99
29.93
25.64
22.56
20.77
20.00
19.78
19.71
19.61
19.48
19.41
19.31
18.79
17.29
14.29
9.59
3.47
-3.43
-10.36
-16.74
-22.39
-27.61
-33.04
-39.51
-47.65
-57.49
-68.21
-77.94
-84.25
-84.73
-77.93
-63.90
-44.35
-22.05
-0.00
19.36
34.68
45.52
52.10
54.86
54.26
50.86
45.43
39.00
32.69
27.42
23.74
21.67
20.85
20.79
21.07
21.48
21.96
22.46
22.78
22.47
21.01
17.92
13.03
6.61
-0.73
-8.17
-15.01
-20.89
-25.96
-30.85
-36.47
-43.71
-52.94
-63.65
-74.28
-82.44
-85.54
-81.63
-70.18
-52.32
-30.60
-8.12
12.32
28.82
40.63
47.87
51.10
51.01
48.25
43.47
37.47
31.13
25.31
20.75
17.88
16.73
17.05
18.38
20.20
22.00
23.34
23.79
23.00
20.68
16.72
11.31
4.86
-2.03
-8.79
-15.09
-20.93
-26.73
-33.14
-40.84
-50.17
-60.73
-71.18
-79.36
-82.77
-79.45
-68.67
-51.33
-29.65
-6.59
15.08
33.32
47.06
55.97
60.17
60.08
56.35
49.95
42.11
34.16
27.23
22.04
18.80
17.33
17.22
18.00
19.21
20.37
21.03
20.74
19.17
16.15
11.75
6.22
-0.11
-6.87
-13.76
-20.64
-27.50
-34.54
-42.15
-50.88
-61.11
-72.63
-84.27
-93.90
-98.82
-96.68
-86.32
-68.32
-44.92
-19.30
5.36
26.68
43.37
55.08
62.04
64.67
63.52
59.34
53.17
46.31
40.06
35.41
32.80
32.05
32.57
33.67
34.83
35.83
36.60
36.99
36.67
35.07
31.71
26.38
19.36
11.33
3.10
-4.71
-11.86
-18.58
-25.40
-33.04
-42.17
-53.05
-65.30
-77.55
-87.60
-92.79
-90.85
-80.70
-62.95
-39.85
-14.58
9.70
30.57
46.74
57.88
64.26
66.36
64.78
60.27
53.84
46.69
40.06
34.90
31.66
30.27
30.28
31.09
32.20
33.26
34.03
34.27
33.61
31.66
28.11
22.91
16.37
9.10
1.77
-5.16
-11.64
-18.03
-24.98
-33.18
-43.06
-54.44
-66.35
-76.94
-83.86
-84.76
-78.17
-64.06
-43.99
-20.78
2.36
22.71
38.61
49.58
55.98
58.52
57.85
54.49
48.95
41.93
34.42
27.55
22.38
19.55
19.16
20.78
23.54
26.49
28.66
29.36
28.20
25.17
20.57
14.93
8.81
2.62
-3.48
-9.57
-15.92
-22.91
-30.94
-40.29
-50.82
-61.67
-71.13
-76.87
-76.54
-68.66
-53.27
-32.13
-8.21
15.16
35.23
50.40
60.26
65.18
65.91
63.17
57.64
50.11
41.55
33.15
26.08
21.21
18.88
18.82
20.27
22.23
23.77
24.14
22.93
20.02
15.57
9.91
3.52
-3.16
-9.78
-16.24
-22.66
-29.38
-36.92
-45.77
-56.23
-67.98
-79.81
-89.59
-94.63
-92.50
-81.96
-63.56
-39.59
-13.47
11.32
32.16
47.71
57.87
63.25
64.73
63.11
59.11
53.40
46.76
39.97
33.81
28.84
25.39
23.51
22.95
23.33
24.13
24.78
24.74
23.55
20.91
16.80
11.41
5.20
-1.35
-7.81
-14.03
-20.13
-26.59
-33.99
-42.88
-53.32
-64.53
-74.79
-81.62
-82.47
-75.56
-60.70
-39.47
-14.84
9.75
31.36
48.17
59.58
65.86
67.72
65.95
61.35
54.81
47.31
39.91
33.52
28.75
25.80
24.48
24.37
25.00
25.88
26.62
26.87
26.30
24.62
21.63
17.30
11.83
5.62
-0.89
-7.34
-13.53
-19.59
-25.94
-33.20
-41.93
-52.18
-63.19
-73.24
-79.87
-80.65
-74.03
-59.99
-40.21
-17.58
4.66
23.82
38.31
47.75
52.60
53.70
51.89
47.85
42.19
35.56
28.74
22.64
18.06
15.48
14.91
15.85
17.50
19.04
19.84
19.58
18.22
15.82
12.46
8.20
3.17
-2.45
-8.38
-14.34
-20.26
-26.35
-33.07
-40.84
-49.65
-58.64
-66.14
-69.92
-67.98
-59.33
-44.44
-25.24
-4.52
14.93
30.99
42.60
49.62
52.43
51.60
47.72
41.39
33.40
24.76
16.61
10.02
5.72
3.95
4.39
6.34
8.81
10.82
11.61
10.76
8.31
4.60
0.17
-4.53
-9.26
-14.06
-19.19
-25.02
-31.92
-40.13
-49.66
-59.96
-69.83
-77.36
-80.30
-76.76
-65.91
-48.53
-26.84
-3.97
17.03
33.95
45.77
52.57
55.08
54.18
50.68
45.26
38.63
31.63
25.14
20.00
16.74
15.45
15.75
16.94
18.12
18.58
17.84
15.79
12.59
8.51
3.81
-1.32
-6.81
-12.60
-18.62
-24.80
-31.19
-37.99
-45.53
-53.98
-62.95
-71.27
-76.97
-77.78
-71.96
-59.08
-40.27
-18.09
4.32
24.16
39.64
50.18
56.11
58.19
57.20
53.80
48.63
42.45
36.12
30.49
26.15
23.29
21.73
21.04
20.82
20.82
20.87
20.82
20.40
19.17
16.71
12.81
7.56
1.43
-4.97
-11.09
-16.63
-21.70
-26.81
-32.67
-39.97
-48.97
-59.21
-69.27
-76.98
-79.92
-76.22
-65.30
-48.15
-27.14
-5.27
14.71
30.95
42.66
49.96
53.38
53.50
50.91
46.25
40.33
34.10
28.50
24.22
21.54
20.33
20.15
20.53
21.08
21.54
21.71
21.42
20.39
18.35
15.08
10.57
5.07
-0.95
-6.96
-12.55
-17.58
-22.30
-27.26
-33.13
-40.42
-49.09
-58.38
-66.67
-71.88
-71.92
-65.51
-52.63
-34.69
-14.24
5.84
23.08
35.96
44.10
47.89
48.08
45.43
40.60
34.24
27.16
20.34
14.75
11.13
9.73
10.29
12.14
14.44
16.37
17.38
17.15
15.67
13.07
9.64
5.64
1.27
-3.36
-8.19
-13.23
-18.48
-24.04
-30.12
-37.05
-44.95
-53.44
-61.33
-66.67
-67.29
-61.61
-49.36
-31.82
-11.54
8.50
25.79
38.81
47.13
51.08
51.29
48.45
43.24
36.48
29.15
22.29
16.73
12.97
11.03
10.58
11.11
12.10
13.09
13.66
13.37
11.86
8.94
4.66
-0.64
-6.44
-12.24
-17.72
-22.89
-27.97
-33.42
-39.78
-47.47
-56.58
-66.56
-76.02
-82.88
-84.83
-80.10
-68.10
-49.87
-27.79
-4.89
15.99
32.87
44.92
52.27
55.52
55.45
52.75
48.14
42.34
36.22
30.63
26.23
23.36
21.95
21.62
21.85
22.18
22.27
21.88
20.81
18.84
15.77
11.52
6.19
0.10
-6.30
-12.61
-18.63
-24.39
-30.21
-36.59
-44.04
-52.80
-62.57
-72.21
-79.80
-83.03
-79.92
-69.61
-52.74
-31.41
-8.56
12.95
30.96
44.40
53.10
57.51
58.27
56.13
51.84
46.23
40.19
34.51
29.82
26.44
24.38
23.41
23.15
23.23
23.37
23.38
23.06
22.17
20.39
17.38
12.99
7.33
0.83
-5.86
-12.16
-17.75
-22.79
-27.84
-33.71
-41.13
-50.29
-60.53
-70.24
-77.14
-78.92
-73.94
-61.89
-44.00
-22.71
-0.99
18.47
33.86
44.50
50.56
52.72
51.74
48.30
43.06
36.72
30.13
24.18
19.59
16.73
15.55
15.64
16.44
17.44
18.27
18.65
18.36
17.16
14.84
11.31
6.65
1.15
-4.74
-10.62
-16.24
-21.74
-27.59
-34.42
-42.73
-52.37
-62.32
-70.66
-75.01
-73.28
-64.44
-49.00
-28.90
-6.98
13.83
31.29
44.13
52.10
55.64
55.46
52.32
46.96
40.12
32.64
25.44
19.38
15.10
12.85
12.50
13.48
15.08
16.52
17.18
16.64
14.70
11.37
6.85
1.46
-4.43
-10.48
-16.43
-22.25
-28.11
-34.40
-41.62
-50.15
-59.87
-69.85
-78.34
-82.99
-81.62
-72.99
-57.38
-36.62
-13.60
8.59
27.49
41.70
50.95
55.70
56.72
54.77
50.50
44.59
37.86
31.22
25.58
21.62
19.61
19.39
20.46
22.18
23.94
25.21
25.51
24.46
21.77
17.35
11.44
4.52
-2.77
-9.82
-16.27
-22.14
-27.77
-33.88
-41.23
-50.35
-61.05
-72.08
-81.19
-85.67
-83.25
-72.95
-55.58
-33.54
-10.00
12.00
30.30
43.88
52.70
57.22
58.13
56.15
52.09
46.88
41.41
36.48
32.57
29.79
27.98
26.87
26.26
26.05
26.20
26.50
26.60
25.92
23.92
20.31
15.16
8.89
2.06
-4.78
-11.29
-17.42
-23.37
-29.56
-36.53
-44.77
-54.32
-64.46
-73.55
-79.26
-79.21
-71.91
-57.36
-37.20
-14.25
8.36
28.02
43.17
53.29
58.64
59.88
57.75
53.02
46.52
39.20
32.03
25.90
21.40
18.79
17.93
18.39
19.66
21.24
22.73
23.74
23.88
22.78
20.11
15.81
10.13
3.61
-3.09
-9.46
-15.29
-20.77
-26.46
-33.06
-41.14
-50.75
-61.07
-70.38
-76.37
-76.77
-70.18
-56.67
-37.84
-16.42
4.61
22.82
36.78
46.10
51.06
52.22
50.19
45.57
39.09
31.66
24.40
18.33
14.26
12.47
12.74
14.43
16.71
18.76
19.93
19.84
18.37
15.55
11.61
6.80
1.41
-4.32
-10.20
-16.18
-22.39
-29.15
-36.88
-45.83
-55.83
-65.89
-74.19
-78.43
-76.52
-67.39
-51.50
-30.81
-8.29
13.04
30.87
43.96
52.16
55.96
56.12
53.37
48.41
41.98
34.95
28.27
22.82
19.18
17.50
17.49
18.59
20.10
21.41
22.05
21.65
19.93
16.71
12.01
6.13
-0.45
-7.14
-13.50
-19.38
-24.99
-30.88
-37.71
-46.08
-56.17
-67.39
-78.19
-86.19
-88.81
-84.09
-71.46
-52.15
-28.86
-4.96
16.57
33.80
46.03
53.53
57.02
57.26
54.90
50.64
45.23
39.55
34.44
30.51
28.02
26.93
26.93
27.64
28.67
29.68
30.31
30.11
28.64
25.55
20.72
14.44
7.24
-0.17
-7.21
-13.61
-19.53
-25.51
-32.31
-40.64
-50.76
-62.06
-72.94
-81.00
-83.66
-79.02
-66.63
-47.73
-24.96
-1.51
19.77
37.03
49.50
57.27
60.85
60.84
57.87
52.67
46.21
39.51
33.56
29.04
26.23
24.96
24.79
25.20
25.77
26.25
26.50
26.37
25.63
23.90
20.80
16.11
9.91
2.63
-5.07
-12.53
-19.34
-25.44
-31.30
-37.64
-45.21
-54.31
-64.36
-73.80
-80.28
-81.40
-75.52
-62.43
-43.52
-21.45
0.69
20.22
35.43
45.78
51.55
53.44
52.22
48.58
43.14
36.58
29.73
23.47
18.59
15.58
14.48
14.87
16.11
17.49
18.48
18.77
18.18
16.58
13.91
10.15
5.40
-0.13
-6.11
-12.25
-18.34
-24.46
-30.90
-38.10
-46.32
-55.30
-63.97
-70.47
-72.55
-68.42
-57.42
-40.50
-19.98
1.14
20.15
35.26
45.80
51.91
54.05
52.73
48.40
41.67
33.45
24.98
17.52
12.06
9.05
8.30
9.17
10.76
12.19
12.80
12.17
10.23
7.13
3.16
-1.34
-6.11
-11.04
-16.18
-21.72
-27.93
-35.16
-43.71
-53.63
-64.34
-74.47
-81.85
-84.10
-79.33
-66.96
-48.11
-25.33
-1.88
19.27
36.16
48.03
55.12
58.16
57.88
54.89
49.66
42.83
35.22
27.87
21.81
17.78
16.01
16.21
17.68
19.54
20.99
21.38
20.32
17.66
13.47
8.02
1.73
-4.92
-11.52
-17.84
-23.96
-30.28
-37.40
-45.91
-56.07
-67.31
-78.15
-86.26
-89.02
-84.40
-71.71
-52.05
-28.02
-3.04
19.66
37.82
50.47
57.83
60.76
60.37
57.65
53.41
48.32
42.97
37.93
33.62
30.34
28.16
26.98
26.61
26.77
27.11
27.16
26.37
24.27
20.58
15.32
8.85
1.76
-5.37
-12.10
-18.31
-24.24
-30.47
-37.78
-46.76
-57.42
-68.73
-78.59
-84.28
-83.31
-74.40
-58.06
-36.53
-13.02
9.23
27.86
41.74
50.81
55.64
56.94
55.33
51.35
45.58
38.80
31.99
26.17
22.10
20.13
20.04
21.14
22.56
23.52
23.54
22.47
20.38
17.44
13.77
9.45
4.56
-0.80
-6.52
-12.59
-19.13
-26.42
-34.79
-44.29
-54.42
-63.88
-70.68
-72.61
-67.98
-56.31
-38.68
-17.47
4.29
23.80
39.19
49.71
55.50
57.17
55.41
50.89
44.29
36.51
28.61
21.74
16.80
14.24
13.88
15.01
16.68
18.01
18.41
17.64
15.70
12.76
8.94
4.39
-0.76
-6.33
-12.23
-18.47
-25.24
-32.94
-41.95
-52.38
-63.61
-74.20
-81.90
-84.34
-79.68
-67.46
-48.87
-26.47
-3.45
17.32
33.97
45.82
53.06
56.29
56.14
53.12
47.80
40.94
33.53
26.65
21.23
17.86
16.62
17.14
18.73
20.57
21.86
21.97
20.55
17.56
13.21
7.88
1.97
-4.19
-10.42
-16.66
-23.03
-29.84
-37.54
-46.55
-56.93
-67.93
-77.89
-84.38
-84.92
-77.87
-63.15
-42.42
-18.60
4.97
25.47
41.23
51.74
57.38
59.01
57.56
53.88
48.79
43.06
37.47
32.68
29.20
27.22
26.64
27.05
27.91
28.65
28.80
28.03
26.15
23.10
18.89
13.65
7.62
1.07
-5.66
-12.33
-18.87
-25.51
-32.75
-41.18
-51.03
-61.76
-71.88
-79.04
-80.81
-75.49
-62.83
-44.23
-22.31
-0.07
19.87
35.88
47.29
54.19
57.03
56.40
53.00
47.62
41.25
34.90
29.43
25.43
23.08
22.21
22.44
23.29
24.35
25.24
25.61
25.12
23.48
20.49
16.16
10.73
4.62
-1.68
-7.77
-13.50
-19.00
-24.72
-31.33
-39.35
-48.84
-58.99
-68.13
-73.95
-74.21
-67.57
-54.15
-35.60
-14.67
5.69
23.10
36.21
44.73
49.03
49.75
47.52
42.91
36.58
29.39
22.38
16.58
12.75
11.17
11.60
13.34
15.49
17.19
17.80
17.03
14.89
11.61
7.52
2.92
-2.01
-7.23
-12.78
-18.77
-25.34
-32.69
-41.00
-50.23
-59.76
-68.24
-73.68
-73.90
-67.42
-54.05
-35.22
-13.57
7.85
26.45
40.68
50.07
54.92
55.83
53.47
48.46
41.53
33.58
25.73
18.99
14.15
11.57
11.04
11.99
13.56
14.93
15.41
14.55
12.22
8.52
3.79
-1.59
-7.23
-12.95
-18.74
-24.80
-31.49
-39.18
-48.19
-58.47
-69.43
-79.68
-87.18
-89.64
-85.22
-73.24
-54.61
-31.71
-7.68
14.40
32.30
45.02
52.70
56.13
56.26
53.99
50.04
45.07
39.80
34.93
31.04
28.44
27.07
26.64
26.73
27.02
27.27
27.27
26.77
25.38
22.71
18.55
12.99
6.42
-0.59
-7.56
-14.26
-20.81
-27.62
-35.27
-44.25
-54.63
-65.77
-76.17
-83.63
-85.81
-80.92
-68.52
-49.74
-27.04
-3.53
17.98
35.55
48.35
56.38
60.15
60.30
57.56
52.74
46.84
40.88
35.72
31.90
29.51
28.29
27.83
27.79
27.91
28.02
27.91
27.30
25.78
22.98
18.64
12.83
5.90
-1.58
-9.00
-15.86
-21.99
-27.64
-33.42
-40.14
-48.45
-58.43
-69.25
-79.09
-85.58
-86.41
-80.17
-66.86
-47.96
-26.00
-3.79
16.23
32.48
44.26
51.52
54.63
54.14
50.71
45.14
38.34
31.31
24.97
20.08
17.11
16.15
16.87
18.65
20.72
22.34
22.95
22.23
20.08
16.56
11.82
6.14
-0.11
-6.53
-12.78
-18.74
-24.68
-31.19
-38.98
-48.44
-59.18
-69.76
-77.91
-81.09
-77.37
-66.11
-48.33
-26.45
-3.54
17.48
34.56
46.70
53.81
56.40
55.19
51.01
44.72
37.33
29.86
23.29
18.36
15.46
14.53
15.12
16.51
17.88
18.49
17.79
15.61
12.07
7.50
2.30
-3.23
-8.95
-14.90
-21.20
-28.02
-35.65
-44.40
-54.53
-65.97
-77.94
-88.79
-96.14
-97.49
-91.09
-76.62
-55.54
-30.65
-5.31
17.51
35.92
49.26
57.77
62.11
62.99
61.02
56.81
51.07
44.69
38.57
33.46
29.79
27.63
26.77
26.80
27.25
27.59
27.28
25.84
22.91
18.41
12.51
5.61
-1.79
-9.26
-16.48
-23.45
-30.39
-37.83
-46.41
-56.57
-68.19
-80.16
-90.42
-96.30
-95.37
-86.25
-69.24
-46.30
-20.52
4.84
27.16
44.89
57.55
65.34
68.80
68.57
65.40
60.22
54.06
47.99
42.86
39.12
36.79
35.56
35.04
34.86
34.84
34.80
34.54
33.69
31.75
28.29
23.05
16.16
8.11
-0.33
-8.42
-15.68
-22.10
-28.22
-34.93
-43.24
-53.74
-66.20
-79.20
-90.32
-96.64
-95.69
-86.24
-68.84
-45.69
-19.95
5.15
27.11
44.50
56.89
64.48
67.68
67.04
63.23
57.14
49.91
42.72
36.59
32.11
29.39
28.22
28.20
28.96
30.19
31.58
32.69
33.00
31.92
29.06
24.34
18.09
10.86
3.32
-4.05
-11.05
-17.81
-24.72
-32.36
-41.27
-51.70
-63.29
-74.79
-84.14
-88.87
-86.79
-76.83
-59.53
-37.00
-12.33
11.29
31.39
46.64
56.75
62.08
63.24
60.79
55.33
47.65
38.81
30.09
22.76
17.71
15.28
15.18
16.63
18.70
20.51
21.42
21.06
19.33
16.32
12.24
7.39
2.06
-3.50
-9.16
-14.98
-21.22
-28.35
-36.84
-46.95
-58.34
-69.76
-79.10
-83.85
-81.79
-71.91
-54.81
-32.67
-8.59
14.31
33.66
48.23
57.80
62.75
63.60
60.86
55.04
46.87
37.46
28.15
20.28
14.82
12.09
11.77
12.99
14.66
15.83
15.83
14.36
11.44
7.30
2.21
-3.54
-9.72
-16.14
-22.75
-29.62
-37.11
-45.77
-56.14
-68.31
-81.40
-93.41
-101.51
-102.82
-95.42
-79.17
-55.86
-28.71
-1.40
22.94
42.31
56.00
64.17
67.51
66.79
62.81
56.39
48.49
40.19
32.60
26.68
22.97
21.52
21.89
23.33
24.98
26.09
26.12
24.77
21.95
17.69
12.19
5.72
-1.36
-8.74
-16.28
-24.09
-32.64
-42.55
-54.29
-67.62
-81.23
-92.69
-99.01
-97.51
-86.88
-67.76
-42.61
-15.03
11.36
33.81
50.84
62.18
68.31
70.03
68.18
63.60
57.11
49.65
42.16
35.57
30.55
27.46
26.26
26.46
27.37
28.21
28.32
27.26
24.89
21.23
16.43
10.70
4.24
-2.75
-10.12
-17.78
-25.77
-34.36
-43.96
-54.88
-66.91
-78.89
-88.67
-93.43
-90.66
-79.14
-59.52
-34.35
-7.30
18.04
39.03
54.44
64.25
69.07
69.71
66.85
61.22
53.71
45.45
37.74
31.63
27.79
26.29
26.69
28.23
30.07
31.42
31.69
30.49
27.64
23.14
17.25
10.37
3.05
-4.23
-11.21
-17.89
-24.68
-32.19
-41.08
-51.67
-63.59
-75.45
-85.00
-89.59
-86.97
-76.15
-57.89
-34.54
-9.43
14.12
33.63
47.85
56.67
60.58
60.29
56.49
49.87
41.38
32.27
23.94
17.62
14.02
13.16
14.42
16.78
19.17
20.74
20.98
19.75
17.13
13.39
8.87
3.86
-1.45
-7.04
-13.05
-19.75
-27.54
-36.73
-47.36
-58.93
-70.12
-78.81
-82.54
-79.18
-67.80
-49.20
-25.76
-0.86
22.19
40.95
54.28
62.11
65.03
63.79
59.13
51.83
42.93
33.67
25.38
19.15
15.49
14.29
14.84
16.17
17.32
17.57
16.57
14.24
10.72
6.24
1.03
-4.72
-10.82
-17.19
-23.84
-30.95
-38.95
-48.34
