1624612318.00
64.000000
-0.00
-0.00
-0.00
-0.00
-0.00
-0.00
-0.00
-0.00
-0.00
-0.00
0.00
0.01
0.01
-0.00
-0.03
-0.05
-0.05
0.00
0.13
0.36
0.66
1.01
1.37
1.72
2.06
2.40
2.79
3.24
3.80
4.42
5.06
5.66
6.20
6.68
7.15
7.68
8.31
9.14
10.09
11.04
11.88
12.56
13.14
13.76
14.65
15.96
17.91
20.32
22.90
25.38
27.58
29.57
31.68
34.32
37.81
42.54
48.15
54.10
59.83
64.97
69.58
74.14
79.34
85.71
93.76
103.00
112.62
121.73
129.77
136.75
143.30
150.75
157.77
166.64
177.95
191.79
206.97
220.57
228.25
225.36
208.53
176.87
132.76
80.05
23.07
-34.94
-92.44
-149.16
-205.23
-260.37
-313.74
-363.87
-409.83
-450.91
-486.50
-515.74
-537.23
-549.22
-549.96
-538.37
-514.21
-478.67
-433.88
-382.45
-327.02
-269.84
-212.63
-156.66
-102.95
-52.37
-5.90
35.58
71.43
101.35
125.50
144.38
158.69
169.15
176.37
180.75
182.57
182.07
179.51
175.23
169.65
163.18
156.15
148.81
141.30
133.69
126.02
118.33
110.69
103.16
95.80
88.68
81.83
75.25
68.95
62.95
57.25
51.86
46.78
42.03
37.59
33.45
29.61
26.07
22.81
19.83
17.11
14.67
12.48
10.54
8.83
7.35
6.07
4.97
4.05
3.27
2.62
2.09
1.65
1.30
1.01
0.79
0.61
0.48
0.37
0.29
0.22
0.18
0.14
0.11
0.09
0.08
0.07
0.06
0.05
0.05
0.05
0.04
0.05
0.05
0.05
0.06
0.07
0.08
0.09
0.11
0.13
0.15
0.18
0.20
0.23
0.27
0.30
0.34
0.39
0.44
0.49
0.54
0.60
0.67
0.74
0.81
0.90
0.99
1.08
1.19
1.30
1.43
1.57
1.72
1.89
2.07
2.27
2.49
2.74
3.01
3.30
3.62
3.98
4.36
4.77
5.21
5.70
6.21
6.77
7.37
8.02
8.70
9.44
10.22
11.06
11.96
12.90
13.91
14.96
16.05
17.16
18.24
19.25
20.10
20.73
21.05
21.05
20.69
19.99
18.99
17.73
16.24
14.51
12.55
10.28
7.76
5.02
2.13
-0.83
-3.80
-6.77
-9.75
-12.80
-15.94
-19.13
-22.27
-25.17
-27.65
-29.53
-30.80
-31.59
-32.09
-32.51
-32.94
-33.28
-33.34
-32.85
-31.66
-29.86
-27.78
-25.87
-24.57
-23.99
-23.88
-23.61
-22.55
-20.22
-16.67
-12.44
-8.40
-5.44
-4.00
-3.84
-4.30
-4.52
-3.87
-2.31
-0.46
0.61
-0.33
-4.49
-12.29
-23.18
-35.33
-45.70
-50.63
-46.77
-32.34
-8.13
22.37
54.12
81.81
101.78
112.81
115.92
113.50
108.18
102.10
95.62
89.86
86.08
85.46
88.78
96.08
106.69
118.93
130.45
137.87
138.68
132.04
118.96
101.51
81.98
62.18
42.79
23.84
3.53
-18.36
-39.62
-56.70
-66.87
-69.69
-66.95
-62.40
-59.87
-64.71
-78.82
-99.71
-122.40
-142.49
-157.86
-168.41
-175.79
-181.84
-191.76
-208.50
-231.08
-255.68
-277.85
-293.75
-300.06
-295.25
-257.01
-180.44
-81.39
14.58
89.43
138.08
161.83
169.25
165.91
155.89
139.30
117.36
96.20
81.92
77.55
82.00
91.55
100.80
105.19
99.13
80.60
52.45
20.59
-8.68
-30.71
-42.75
-44.62
-37.48
-25.05
-10.61
4.51
20.80
39.89
63.97
95.06
132.97
174.33
211.58
235.99
241.58
227.91
200.79
170.20
146.15
134.18
133.58
137.99
139.21
131.11
112.00
84.48
53.61
24.54
0.54
-17.59
-30.80
-40.60
-47.58
-51.02
-49.53
-42.34
-30.54
-17.09
-5.39
2.75
8.34
15.00
26.84
46.13
71.91
100.49
127.33
148.95
163.92
172.36
174.92
171.73
162.30
146.24
124.18
98.24
71.74
48.15
30.05
18.34
12.19
9.41
7.38
3.76
-2.89
-12.97
-25.93
-40.74
-56.32
-71.91
-86.79
-100.25
-111.35
-119.19
-123.59
-125.46
-126.72
-129.51
-135.07
-143.17
-152.27
-160.46
-166.36
-169.29
-168.69
-163.25
-150.86
-129.60
-99.38
-63.29
-27.27
1.68
17.82
18.67
5.27
-18.62
-48.10
-78.30
-105.01
-125.15
-137.26
-142.45
-144.73
-150.35
-165.53
-193.44
-231.98
-273.71
-308.37
-326.81
-324.48
-302.66
-267.09
-224.99
-182.21
-141.89
-104.98
-71.59
-42.09
-17.11
3.29
20.39
36.86
55.87
79.44
106.95
134.53
156.17
165.55
158.75
135.95
101.36
61.81
24.33
-5.91
-26.70
-38.72
-44.70
-48.21
-52.62
-60.17
-71.39
-85.03
-98.47
-108.77
-113.78
-112.83
-106.80
-97.26
-85.68
-73.00
-59.77
-46.61
-34.47
-24.54
-17.76
-14.51
-14.37
-16.48
-19.60
-22.74
-25.29
-27.08
-28.33
-29.44
-30.78
-32.50
-34.52
-36.75
-39.06
-41.39
-43.76
-46.22
-48.78
-51.20
-53.01
-53.55
-52.17
-48.38
-41.94
-32.85
-21.20
-7.22
8.71
25.83
42.95
58.52
71.05
79.54
83.82
84.50
82.62
79.16
74.78
69.82
64.44
58.84
53.27
47.94
43.13
38.94
35.41
32.38
29.58
26.56
22.72
17.44
10.15
0.48
-11.50
-24.89
-37.77
-47.35
-50.70
-45.83
-32.63
-13.20
8.84
29.68
46.59
58.64
66.38
71.00
73.43
73.97
72.51
69.09
64.14
58.47
52.81
47.50
42.37
37.13
31.68
26.41
22.03
19.43
19.06
20.75
23.25
24.19
20.53
9.43
-10.64
-39.00
-72.36
-105.37
-131.90
-146.63
-146.46
-131.24
-103.71
-68.66
-31.77
1.62
27.36
43.00
47.84
42.92
30.79
15.24
0.70
-8.64
-10.32
-4.77
4.65
12.96
15.83
11.61
1.89
-9.41
-18.19
-21.99
-20.48
-14.70
-5.73
6.14
21.32
39.88
60.72
81.40
98.98
111.25
117.61
119.09
117.64
115.07
112.30
109.29
105.50
100.66
95.25
90.29
86.83
85.27
85.06
85.01
83.95
81.41
77.81
74.08
71.15
69.34
68.23
66.90
64.33
59.83
53.27
44.92
35.32
25.01
14.55
4.48
-4.47
-11.35
-15.26
-15.60
-12.42
-6.40
1.33
9.75
18.33
27.14
36.34
45.69
54.31
60.78
63.91
63.43
60.25
56.07
52.43
49.88
47.83
45.03
40.46
34.07
26.82
20.06
14.76
11.01
8.10
5.09
1.30
-3.45
-9.05
-15.16
-21.53
-27.73
-32.96
-36.07
-35.86
-31.66
-23.66
-12.95
-1.20
9.84
18.86
25.19
28.78
30.05
29.70
28.52
27.19
26.09
25.26
24.41
23.16
21.19
18.39
14.83
10.67
6.01
1.05
-3.91
-8.39
-11.95
-14.34
-15.67
-16.47
-17.44
-19.17
-21.96
-25.67
-29.81
-33.56
-36.02
-36.30
-33.83
-28.55
-21.00
-12.23
-3.40
4.50
10.99
15.97
19.53
21.69
22.33
21.28
18.55
14.46
9.62
4.75
0.46
-2.94
-5.51
-7.50
-9.25
-10.94
-12.52
-13.80
-14.63
-15.10
-15.65
-16.95
-19.66
-24.13
-30.21
-37.23
-44.15
-49.78
-52.97
-52.89
-49.15
-42.02
-32.30
-21.26
-10.24
-0.28
8.11
14.92
20.37
24.69
27.85
29.61
29.58
27.55
23.54
17.98
11.63
5.50
0.54
-2.64
-4.04
-4.39
-4.90
-6.85
-11.11
-17.74
-26.04
-34.83
-42.78
-48.63
-51.36
-50.32
-45.75
-39.24
-33.65
-32.35
-37.64
-49.29
-64.02
-76.71
-82.43
-78.59
-65.75
-46.80
-25.00
-2.19
21.78
48.29
78.22
110.69
142.82
170.57
190.31
199.98
199.69
191.19
177.05
159.50
139.96
118.90
96.41
72.79
48.90
26.00
5.11
-13.44
-30.13
-45.64
-60.09
-72.53
-81.04
-83.63
-79.20
-68.36
-53.30
-37.02
-22.38
-11.20
-4.08
-0.58
0.17
-0.87
-2.85
-5.06
-6.94
-8.14
-8.65
-8.74
-8.84
-9.37
-10.47
-12.04
-13.77
-15.34
-16.56
-17.40
-18.05
-18.76
-19.84
-21.53
-23.97
-27.16
-30.96
-35.12
-39.21
-42.69
-44.86
-45.02
-42.66
-37.68
-30.44
-21.79
-12.70
-4.03
3.75
10.48
16.24
21.02
24.66
26.86
27.39
26.26
23.87
20.84
17.86
15.48
13.98
13.32
13.19
13.21
13.01
12.41
11.36
9.85
7.89
5.39
2.30
-1.34
-5.35
-9.36
-13.03
-16.17
-18.89
-21.61
-24.90
-29.19
-34.39
-39.72
-43.85
-45.25
-42.82
-36.37
-26.81
-15.84
-5.35
3.26
9.42
13.39
15.88
17.57
18.86
19.85
20.48
20.70
20.52
19.96
19.01
17.68
16.02
14.16
12.26
10.40
8.59
6.76
4.83
2.81
0.78
-1.21
-3.21
-5.34
-7.81
-10.78
-14.31
-18.34
-22.82
-27.65
-32.67
-37.47
-41.36
-43.41
-42.72
-38.76
-31.73
-22.51
-12.52
-3.23
4.28
9.61
12.99
15.02
16.35
17.37
18.20
18.65
18.56
17.80
16.43
14.63
12.70
10.90
9.44
8.38
7.59
6.85
5.86
4.41
2.43
0.02
-2.64
-5.41
-8.22
-11.12
-14.22
-17.66
-21.56
-25.96
-30.76
-35.69
-40.15
-43.33
-44.34
-42.48
-37.50
-29.79
-20.24
-10.07
-0.47
7.67
13.95
18.40
21.37
23.32
24.58
25.38
25.78
25.86
25.69
25.38
24.94
24.25
23.11
21.36
18.98
16.21
13.40
10.84
8.64
6.62
4.45
1.81
-1.48
-5.30
-9.41
-13.48
-17.32
-20.97
-24.69
-28.89
-33.93
-39.90
-46.44
-52.74
-57.64
-59.93
-58.68
-53.46
-44.59
-32.92
-19.76
-6.45
5.83
16.41
25.08
31.99
37.44
41.52
44.20
45.27
44.69
42.69
39.85
36.84
34.12
31.79
29.57
27.14
24.38
21.47
18.83
16.79
15.33
14.05
12.30
9.55
5.62
0.75
-4.50
-9.51
-13.89
-17.57
-20.86
-24.26
-28.34
-33.51
-39.82
-46.80
-53.45
-58.38
-60.15
-57.70
-50.83
-40.33
-27.82
-15.25
-4.25
4.32
10.42
14.63
17.65
19.97
21.77
23.03
23.68
23.77
23.38
22.60
21.39
19.75
17.74
15.56
13.51
11.79
10.47
9.39
8.30
6.97
5.21
2.91
0.03
-3.45
-7.52
-12.06
-16.87
-21.75
-26.64
-31.52
-36.42
-41.03
-44.61
-46.04
-44.23
-38.61
-29.57
-18.38
-6.82
3.48
11.59
17.42
21.43
24.22
26.06
26.91
26.59
25.08
22.64
19.75
16.95
14.60
12.87
11.63
10.66
9.68
8.41
6.72
4.54
1.97
-0.97
-4.18
-7.64
-11.26
-15.01
-18.92
-23.21
-28.21
-34.25
-41.29
-48.62
-54.91
-58.40
-57.60
-51.83
-41.46
-27.87
-12.98
1.27
13.26
21.96
27.00
28.60
27.56
24.98
22.00
19.45
17.70
16.67
16.05
15.55
15.00
14.26
13.18
11.42
8.68
4.88
0.31
-4.42
-8.68
-12.15
-15.03
-17.87
-21.43
-26.19
-32.29
-39.45
-47.07
-54.31
-60.18
-63.67
-63.89
-60.36
-53.15
-43.03
-31.16
-18.85
-7.15
3.33
12.45
20.27
26.90
32.31
36.34
38.82
39.73
39.28
37.90
36.16
34.57
33.40
32.56
31.68
30.28
28.06
25.02
21.57
18.28
15.59
13.60
12.04
10.28
7.69
3.78
-1.79
-9.11
-18.07
-28.05
-37.85
-45.78
-50.11
-49.73
-44.57
-35.68
-24.68
-13.13
-2.04
8.13
17.25
25.00
30.81
34.02
34.21
31.54
26.67
20.66
14.70
9.92
7.31
7.48
10.38
15.18
20.33
23.99
24.60
21.53
15.22
7.02
-1.37
-8.52
-13.62
-16.52
-17.61
-17.55
-17.04
-16.77
-17.20
-18.43
-20.10
-21.37
-21.14
-18.36
-12.48
-3.59
7.60
20.05
32.73
44.80
55.59
64.58
71.20
74.92
75.38
72.69
67.44
60.72
53.70
47.39
42.24
38.18
34.78
31.63
28.50
25.50
22.94
21.02
19.64
18.32
16.34
13.01
7.97
1.33
-6.37
-14.29
-21.58
-27.55
-31.72
-33.84
-33.80
-31.55
-27.18
-20.85
-12.96
-4.18
4.59
12.31
17.93
20.64
20.14
16.76
11.37
5.18
-0.65
-5.32
-8.47
-10.15
-10.56
-9.86
-8.09
-5.35
-1.96
1.34
3.50
3.40
0.20
-6.31
-15.67
-26.78
-38.10
-47.90
-54.55
-56.82
-54.16
-46.91
-36.27
-23.93
-11.62
-0.52
8.96
17.10
24.41
31.08
36.80
40.74
41.96
39.86
34.43
26.29
16.52
6.36
-2.94
-10.36
-15.13
-16.89
-15.77
-12.51
-8.49
-5.41
-5.02
-8.65
-16.88
-29.32
-44.58
-60.31
-73.53
-81.15
-80.78
-71.49
-54.27
-31.86
-7.86
14.30
32.34
45.43
53.89
58.46
59.80
58.34
54.48
48.94
42.79
37.16
32.87
30.14
28.66
27.88
27.36
26.78
25.86
24.18
21.10
15.93
8.17
-2.22
-14.74
-28.46
-42.05
-54.01
-62.71
-66.67
-64.87
-57.08
-44.09
-27.61
-9.86
6.89
20.88
31.17
37.57
40.53
40.84
39.37
36.95
34.24
31.63
29.34
27.38
25.71
24.26
23.00
21.91
20.94
19.85
18.21
15.48
11.16
4.95
-3.14
-12.74
-23.19
-33.65
-43.06
-50.30
-54.27
-54.19
-49.82
-41.65
-30.84
-19.00
-7.68
1.98
9.50
15.00
18.98
21.96
24.32
26.14
27.33
27.73
27.30
26.15
24.51
22.63
20.67
18.71
16.68
14.49
12.00
9.10
5.62
1.36
-3.90
-10.29
-17.73
-25.71
-33.27
-39.09
-41.82
-40.55
-35.11
-26.30
-15.53
-4.44
5.74
14.40
21.56
27.46
32.25
35.76
37.69
37.87
36.46
33.94
30.94
27.85
24.78
21.53
17.92
13.99
10.06
6.56
3.76
1.57
-0.54
-3.27
-7.30
-13.01
-20.24
-28.28
-35.90
-41.60
-44.01
-42.36
-36.72
-27.99
-17.55
-6.75
3.44
12.62
20.70
27.52
32.58
35.11
34.40
30.12
22.56
12.73
2.20
-7.22
-13.97
-17.02
-16.29
-12.40
-6.61
-0.48
4.66
7.98
9.28
8.74
6.67
3.18
-1.43
-6.97
-13.32
-20.10
-26.41
-30.80
-31.82
-28.64
-21.63
-11.40
0.70
12.99
23.96
32.96
40.28
46.48
51.86
55.73
58.26
59.51
59.42
58.03
55.78
53.58
51.95
50.88
49.11
47.48
47.56
51.16
59.71
74.01
93.77
117.22
141.95
155.15
149.31
125.62
93.15
61.69
36.75
20.59
14.87
24.06
47.73
84.16
127.25
167.10
193.49
200.87
191.03
167.16
138.55
113.24
96.00
85.75
77.57
66.21
49.19
27.59
4.15
-18.17
-38.60
-56.49
-71.28
-82.03
-87.55
-86.81
-79.58
-67.04
-51.36
-36.41
-25.82
-22.23
-26.37
-36.68
-49.81
-61.90
-70.27
-74.07
-74.86
-75.16
-77.08
-81.55
-88.25
-96.40
-105.38
-115.00
-124.81
-133.90
-140.64
-143.23
-140.57
-132.88
-121.61
-108.81
-96.40
-85.54
-76.73
-70.23
-66.33
-65.39
-67.50
-72.09
-77.80
-82.73
-85.02
-83.60
-78.63
-71.50
-64.39
-59.34
-57.41
-58.33
-60.77
-63.07
-64.25
-64.54
-65.32
-68.42
-75.35
-86.49
-101.06
-117.38
-133.58
-148.15
-160.11
-168.78
-173.45
-173.20
-167.09
-154.42
-135.05
-109.47
-78.69
-43.92
-6.52
31.86
69.07
102.54
129.86
149.55
161.73
167.88
169.97
169.28
165.62
157.82
144.91
127.64
109.19
94.58
88.67
93.98
109.32
130.03
149.84
163.18
167.15
161.89
149.82
134.22
117.84
102.59
89.73
80.23
74.63
72.24
70.48
65.04
51.50
27.62
-4.78
-39.80
-69.58
-87.62
-91.54
-83.77
-69.93
-55.83
-45.07
-38.32
-34.42
-32.21
-31.71
-33.98
-39.96
-49.29
-60.00
-69.27
-74.81
-75.90
-73.47
-69.41
-65.49
-62.51
-60.04
-56.92
-51.94
-44.58
-35.27
-25.18
-15.76
-8.16
-3.01
-0.42
-0.28
-2.56
-7.47
-15.38
-26.67
-41.35
-58.96
-78.40
-97.93
-115.25
-127.91
-133.83
-131.87
-122.26
-106.59
-87.31
-67.05
-47.92
-31.17
-17.18
-5.86
3.06
9.78
14.43
17.02
17.65
16.54
14.13
11.00
7.83
5.23
3.56
2.75
2.38
1.77
0.35
-2.20
-5.75
-9.87
-14.03
-17.85
-21.27
-24.41
-27.53
-30.86
-34.56
-38.69
-43.38
-48.81
-55.14
-62.20
-69.19
-74.60
-76.48
-73.04
-63.30
-47.70
-27.98
-6.72
13.55
30.95
44.65
54.66
61.44
65.45
67.00
66.30
63.58
59.30
54.08
48.64
43.58
39.26
35.62
32.34
28.92
24.98
20.48
15.73
11.15
6.97
3.02
-1.31
-6.58
-12.97
-19.95
-26.63
-32.36
-37.20
-41.94
-47.39
-53.56
-59.01
-61.15
-57.28
-45.83
-27.34
-4.38
19.44
40.81
57.90
70.76
80.85
90.16
100.27
111.75
124.10
136.11
146.41
154.01
158.65
160.88
162.14
164.62
170.83
182.97
201.90
226.36
252.68
275.83
291.18
296.55
293.11
284.80
276.16
269.87
265.41
259.39
247.56
227.15
198.29
163.90
128.40
96.00
69.51
49.78
35.99
26.21
17.84
8.37
-4.28
-21.21
-42.56
-67.65
-95.47
-124.90
-154.93
-184.53
-212.60
-238.10
-260.49
-280.14
-298.33
-317.02
-338.45
-364.59
-396.71
-434.88
-477.76
-522.64
-565.85
-603.39
-631.59
-647.74
-650.36
-639.35
-615.94
-582.61
-542.72
-500.05
-458.02
-419.10
-384.26
-353.23
-324.87
-297.81
-270.93
-243.60
-215.51
-186.61
-157.13
-127.48
-98.15
-69.72
-42.65
-17.18
6.78
29.67
52.13
74.79
97.93
121.33
144.19
165.66
185.37
204.02
223.20
244.50
268.18
292.41
313.39
326.67
328.95
319.23
298.86
270.61
237.46
202.21
167.59
136.68
112.48
96.98
89.75
87.80
86.84
83.75
78.87
76.77
84.71
109.31
152.89
211.35
274.87
330.90
368.35
380.89
368.00
333.55
283.22
222.54
156.31
89.41
27.56
-22.88
-56.36
-69.98
-64.67
-44.54
-15.24
17.80
50.41
79.38
101.85
115.01
116.33
104.46
79.87
44.86
2.99
-41.87
-86.32
-127.95
-165.52
-198.59
-226.92
-249.85
-266.26
-274.86
-274.88
-266.58
-251.27
-230.68
-206.24
-178.75
-148.71
-117.08
-85.97
-58.61
-38.51
-28.03
-27.19
-33.38
-42.05
-48.20
-48.00
-39.93
-24.97
-5.96
13.60
30.77
43.85
52.46
57.10
58.42
56.83
52.43
45.44
36.57
27.05
18.42
11.85
7.80
5.85
5.04
4.27
2.49
-1.16
-7.15
-15.44
-25.05
-33.93
-39.25
-38.17
-28.98
-11.86
10.95
35.95
59.62
79.69
95.77
108.96
120.91
132.68
144.16
154.12
161.03
163.92
163.02
159.62
155.34
151.29
147.59
143.59
138.58
132.51
126.18
120.85
117.44
115.89
114.95
112.77
107.63
98.67
86.18
71.53
56.46
42.54
30.62
20.60
11.64
2.42
-8.27
-21.16
-36.12
-52.07
-67.00
-78.42
-83.87
-81.60
-71.10
-53.28
-30.36
-5.30
18.96
40.18
57.23
70.10
79.47
86.23
91.01
94.11
95.66
95.83
95.04
93.83
92.62
91.49
90.17
88.25
85.54
82.20
78.73
75.54
72.74
69.85
66.02
60.38
52.53
42.75
31.95
21.31
11.84
4.02
-2.38
-8.21
-14.65
-22.82
-33.32
-45.79
-58.77
-69.84
-76.17
-75.41
-66.49
-50.13
-28.62
-5.16
17.18
36.23
51.07
61.82
69.14
73.77
76.20
76.69
75.46
72.78
69.07
64.81
60.38
56.01
51.83
47.98
44.64
41.95
39.86
38.00
35.73
32.38
27.51
21.12
13.59
5.52
-2.55
-10.36
-17.85
-25.25
-32.92
-41.34
-50.90
-61.51
-72.32
-81.63
-87.19
-86.97
-80.06
-67.04
-49.85
-31.07
-12.96
3.11
16.83
28.54
38.75
47.70
55.24
61.07
64.93
66.89
67.24
66.46
64.95
62.85
60.12
56.71
52.85
49.05
46.01
44.18
43.39
42.80
41.20
37.55
31.56
23.73
15.17
7.03
0.06
-5.59
-10.32
-14.80
-19.75
-25.71
-32.91
-41.02
-48.94
-54.88
-56.77
-52.94
-42.88
-27.55
-9.05
10.11
27.88
43.25
56.25
67.42
77.26
85.65
91.94
95.37
95.59
93.12
89.31
85.83
84.04
84.37
86.20
88.28
89.44
89.17
87.78
85.98
84.20
82.13
78.72
72.80
63.71
51.73
37.91
23.56
9.71
-3.18
-15.02
-25.80
-35.44
-44.07
-52.31
-61.40
-72.64
-86.54
-102.05
-116.55
-126.73
-130.08
-126.05
-116.37
-104.33
-93.41
-86.00
-82.84
-83.22
-85.73
-88.93
-91.79
-93.67
-94.21
-93.14
-90.41
-86.21
-81.04
-75.62
-70.70
-66.73
-63.81
-61.61
-59.62
-57.45
-55.00
-52.59
-50.70
-49.70
-49.70
-50.42
-51.35
-52.00
-52.06
-51.61
-51.07
-51.19
-52.91
-57.02
-63.79
-72.54
-81.55
-88.22
-89.89
-84.71
-72.42
-54.51
-33.76
-13.31
4.25
17.48
26.15
30.89
32.69
32.61
31.55
30.20
29.12
28.64
28.85
29.62
30.65
31.66
32.37
32.55
31.99
30.44
27.75
23.99
19.54
15.12
11.53
9.37
8.66
8.89
9.02
7.96
4.81
-0.86
-8.82
-18.20
-27.49
-34.86
-38.49
-37.15
-30.54
-19.57
-6.06
7.74
19.85
29.04
35.04
38.29
39.55
39.60
38.89
37.71
36.17
34.45
32.69
31.07
29.60
28.23
26.79
25.20
23.47
21.67
19.82
17.78
15.24
11.86
7.41
1.92
-4.28
-10.61
-16.47
-21.44
-25.47
-28.97
-32.64
-37.29
-43.33
-50.51
-57.69
-63.11
-64.83
-61.45
-52.69
-39.53
-23.98
-8.34
5.49
16.55
24.79
30.84
35.40
38.90
41.31
42.44
42.18
40.74
38.63
36.44
34.57
33.00
31.45
29.55
27.15
24.42
21.81
19.75
18.42
17.50
16.29
14.03
10.19
4.84
-1.44
-7.76
-13.32
-17.69
-20.96
-23.68
-26.60
-30.52
-35.99
-43.11
-51.39
-59.64
-66.15
-69.13
-67.25
-60.18
-48.74
-34.66
-19.96
-6.37
5.11
14.17
21.06
26.14
29.72
31.96
33.00
33.04
32.43
31.57
30.80
30.32
30.06
29.75
29.03
27.65
25.55
22.93
20.18
17.70
15.68
14.01
12.29
10.03
6.88
2.78
-1.94
-6.78
-11.27
-15.21
-18.75
-22.29
-26.34
-31.27
-37.23
-44.02
-51.04
-57.26
-61.35
-61.91
-57.95
-49.35
-37.03
-22.82
-8.86
3.08
12.06
18.13
21.94
24.27
25.63
26.18
25.87
24.70
22.93
20.99
19.31
18.13
17.40
16.86
16.20
15.19
13.73
11.82
9.50
6.75
3.55
-0.14
-4.23
-8.50
-12.61
-16.28
-19.45
-22.36
-25.56
-29.68
-35.11
-41.70
-48.54
-54.19
-56.96
-55.54
-49.39
-39.09
-26.04
-12.15
0.77
11.44
19.31
24.54
27.63
29.19
29.72
29.56
28.92
28.00
27.01
26.12
25.39
24.74
23.98
22.92
21.47
19.73
17.88
16.15
14.61
13.06
11.08
8.21
4.15
-1.03
-6.91
-12.86
-18.26
-22.81
-26.60
-30.09
-33.95
-38.80
-44.82
-51.56
-57.95
-62.42
-63.41
-59.87
-51.73
-39.90
-26.12
-12.31
0.00
9.97
17.54
23.14
27.30
30.38
32.46
33.40
33.18
31.98
30.20
28.44
27.15
26.49
26.21
25.83
24.85
23.07
20.65
18.04
15.66
13.76
12.25
10.86
9.21
6.99
3.96
0.07
-4.65
-9.94
-15.45
-20.78
-25.62
-29.90
-33.87
-37.93
-42.54
-48.04
-54.34
-60.89
-66.64
-70.18
-70.21
-65.92
-57.43
-45.81
-32.88
-20.51
-10.14
-2.38
2.91
6.35
8.59
10.05
10.82
10.78
9.86
8.04
5.54
2.70
-0.08
-2.42
-4.06
-4.87
-4.80
-3.75
-1.65
1.51
5.49
9.69
13.26
15.29
15.25
13.23
9.99
6.61
4.00
2.54
1.89
1.24
-0.29
-3.32
-8.02
-14.18
-21.28
-28.53
-34.84
-38.85
-39.15
-34.68
-25.31
-12.09
2.79
16.59
26.90
32.50
33.70
32.10
29.85
28.67
29.28
31.25
33.48
34.90
35.00
34.00
32.56
31.33
30.51
29.85
28.82
27.04
24.48
21.43
18.20
14.84
11.15
6.72
1.40
-4.58
-10.58
-15.86
-20.06
-23.40
-26.67
-30.69
-35.84
-41.52
-46.27
-48.22
-45.91
-38.87
-27.92
-14.87
-1.88
9.34
17.94
23.94
27.86
30.27
31.50
31.61
30.66
28.83
26.45
23.84
21.17
18.41
15.43
12.16
8.78
5.66
3.20
1.58
0.63
-0.13
-1.36
-3.57
-7.00
-11.52
-16.71
-22.01
-26.94
-31.19
-34.70
-37.71
-40.70
-44.24
-48.69
-53.88
-58.99
-62.62
-63.16
-59.45
-51.24
-39.43
-25.70
-11.99
0.21
10.16
17.83
23.58
27.69
30.26
31.26
30.79
29.21
27.16
25.25
23.86
23.02
22.54
22.20
21.89
21.60
21.28
20.74
19.66
17.71
14.72
10.83
6.37
1.81
-2.46
-6.15
-9.27
-12.04
-14.94
-18.62
-23.69
-30.43
-38.50
-46.85
-53.86
-57.75
-57.15
-51.54
-41.48
-28.49
-14.57
-1.66
8.86
16.39
21.10
23.72
25.14
26.07
26.86
27.43
27.46
26.62
24.78
22.19
19.31
16.67
14.55
12.99
11.72
10.40
8.86
7.17
5.57
4.27
3.28
2.29
0.84
-1.56
-5.20
-10.09
-16.09
-22.99
-30.52
-38.18
-45.10
-49.98
-51.39
-48.24
-40.37
-28.70
-15.08
-1.68
9.73
18.19
23.69
26.77
28.13
28.30
27.48
25.77
23.30
20.42
17.62
15.38
13.98
13.40
13.36
13.44
13.26
12.52
11.10
8.91
5.96
2.36
-1.68
-5.91
-10.09
-14.10
-18.02
-22.13
-26.79
-32.20
-38.22
-44.16
-48.91
-51.20
-49.97
-44.83
-36.11
-24.89
-12.53
-0.47
10.25
18.97
25.52
29.96
32.55
33.54
33.18
31.68
29.22
26.10
22.66
19.41
16.79
15.10
14.35
14.21
14.14
13.55
11.97
9.21
5.38
0.90
-3.65
-7.73
-10.99
-13.37
-15.20
-17.01
-19.45
-22.98
-27.68
-33.05
-37.97
-40.96
-40.52
-35.75
-26.71
-14.53
-1.07
11.63
22.04
29.46
34.09
36.69
38.10
38.96
39.56
39.85
39.62
38.63
36.78
34.12
30.98
27.74
24.82
22.39
20.36
18.42
16.18
13.42
10.17
6.60
2.88
-0.94
-5.02
-9.55
-14.66
-20.29
-26.26
-32.37
-38.35
-43.79
-47.93
-49.76
-48.23
-42.78
-33.70
-22.13
-9.75
1.88
11.79
19.80
26.24
31.55
35.89
39.02
40.57
40.24
38.16
34.88
31.21
27.86
25.21
23.19
21.39
19.33
16.74
13.74
10.71
8.07
5.99
4.23
2.23
-0.59
-4.66
-10.14
-16.83
-24.40
-32.29
-39.66
-45.36
-48.09
-46.77
-41.05
-31.54
-19.71
-7.47
3.52
12.40
19.06
23.98
27.74
30.68
32.81
33.99
34.09
33.12
31.31
28.97
26.50
24.32
22.71
21.81
21.46
21.23
20.58
19.11
16.66
13.40
9.63
5.61
1.47
-2.74
-7.07
-11.64
-16.62
-22.25
-28.67
-35.60
-42.20
-47.09
-48.79
-46.29
-39.57
-29.61
-18.08
-6.67
3.38
11.54
17.76
22.21
25.03
26.30
26.20
25.05
23.33
21.59
20.25
19.57
19.52
19.91
20.41
20.64
20.22
18.93
16.80
14.11
11.35
8.99
7.25
6.00
4.81
3.20
0.84
-2.32
-6.20
-10.74
-15.97
-21.82
-27.85
-33.02
-35.83
-34.87
-29.54
-20.41
-9.19
1.95
11.17
17.62
21.40
23.25
23.93
23.87
23.07
21.33
18.56
15.03
11.30
8.05
5.86
4.95
5.15
5.97
6.74
6.98
6.42
5.09
3.21
0.96
-1.59
-4.51
-7.90
-11.86
-16.45
-21.71
-27.66
-34.06
-40.26
-45.09
-47.13
-45.18
-38.90
-29.06
-17.40
-6.01
3.44
10.19
14.52
17.27
19.34
21.17
22.68
23.52
23.33
22.11
20.15
17.89
15.64
13.54
11.49
9.41
7.29
5.22
3.34
1.71
0.30
-1.03
-2.38
-3.82
-5.38
-7.09
-9.14
-11.83
-15.55
-20.61
-26.95
-33.97
-40.48
-44.93
-45.86
-42.40
-34.66
-23.75
-11.38
0.67
11.02
19.00
24.56
28.08
30.04
30.87
30.89
30.27
29.10
27.48
25.52
23.38
21.21
19.06
16.89
14.65
12.33
10.03
7.94
6.13
4.52
2.71
0.28
-3.02
-7.07
-11.43
-15.57
-19.14
-22.18
-25.13
-28.61
-33.17
-38.93
-45.43
-51.59
-55.83
-56.60
-52.88
-44.64
-32.99
-19.89
-7.45
2.73
10.01
14.70
17.67
19.80
21.68
23.43
24.83
25.52
25.22
23.83
21.48
18.53
15.40
12.55
10.31
8.75
7.79
7.15
6.55
5.65
4.27
2.32
-0.07
-2.66
-5.12
-7.27
-9.22
-11.31
-14.07
-17.81
-22.51
-27.54
-31.83
-34.13
-33.47
-29.44
-22.39
-13.39
-3.84
4.87
11.80
16.64
19.62
21.20
21.83
21.69
20.80
19.22
17.18
15.10
13.46
12.53
12.29
12.47
12.64
12.43
11.63
10.22
8.28
5.98
3.48
0.90
-1.71
-4.40
-7.23
-10.20
-13.30
-16.46
-19.63
-22.95
-26.65
-30.97
-35.78
-40.40
-43.60
-43.96
-40.39
-32.69
-21.77
-9.37
2.55
12.48
19.77
24.59
27.54
29.24
30.07
30.14
29.55
28.53
27.38
26.36
25.52
24.67
23.54
21.89
19.74
17.33
15.10
13.41
12.52
12.46
12.97
13.60
13.81
13.10
11.21
8.19
4.36
0.19
-3.97
-8.00
-12.04
-16.30
-20.92
-25.86
-30.96
-36.03
-40.92
-45.33
-48.75
-50.35
-49.18
-44.61
-36.63
-26.09
-14.46
-3.42
5.76
12.49
16.88
19.46
20.81
21.38
21.41
21.04
20.40
19.59
18.62
17.34
15.54
13.05
9.95
6.66
3.81
2.04
1.69
2.63
4.28
5.79
6.32
5.38
2.90
-0.67
-4.55
-8.01
-10.55
-12.19
-13.30
-14.54
-16.48
-19.49
-23.50
-28.10
-32.47
-35.55
-36.25
-33.81
-28.07
-19.61
-9.64
0.30
8.90
15.33
19.42
21.46
21.96
21.36
19.98
18.03
15.70
13.20
10.72
8.46
6.58
5.20
4.38
4.00
3.85
3.63
3.11
2.18
0.89
-0.71
-2.63
-5.00
-8.01
-11.66
-15.77
-19.94
-23.86
-27.42
-30.77
-34.03
-37.06
-39.20
-39.49
-37.02
-31.41
-23.07
-13.11
-2.98
6.03
13.15
18.21
21.56
23.72
25.10
25.89
26.03
25.32
23.72
21.32
18.42
15.45
12.78
10.66
9.16
8.17
7.51
6.89
6.01
4.60
2.54
-0.14
-3.28
-6.63
-9.99
-13.22
-16.32
-19.33
-22.45
-25.85
-29.76
-34.18
-38.82
-42.95
-45.51
-45.40
-41.87
-34.91
-25.29
-14.40
-3.77
5.39
12.51
17.64
21.25
23.87
25.78
27.04
27.47
26.98
25.65
23.71
21.49
19.25
17.10
15.12
13.39
12.08
11.35
11.17
11.26
11.14
10.24
8.18
4.88
0.63
-4.09
-8.80
-13.13
-16.96
-20.43
-23.86
-27.68
-32.27
-37.69
-43.47
-48.54
-51.47
-50.98
-46.40
-38.03
-27.10
-15.39
-4.58
4.17
10.46
14.57
17.09
18.64
19.67
20.36
20.66
20.39
19.39
17.63
15.28
12.77
10.56
9.07
8.43
8.50
8.92
9.30
9.37
8.96
7.97
6.28
3.78
0.44
-3.60
-8.05
-12.60
-17.10
-21.65
-26.46
-31.48
-36.22
-39.62
-40.43
-37.72
-31.31
-21.98
-11.14
-0.42
8.92
16.23
21.47
24.95
27.07
28.11
28.21
27.44
25.91
23.83
21.45
19.02
16.76
14.89
13.63
13.19
13.61
14.67
15.77
16.07
14.88
11.96
7.62
2.62
-2.19
-6.32
-9.74
-12.77
-15.92
-19.61
-24.05
-29.22
-34.81
-40.16
-44.24
-45.85
-43.97
-38.19
-28.99
-17.57
-5.62
5.37
14.40
21.19
25.97
29.21
31.35
32.72
33.48
33.74
33.60
33.18
32.53
31.63
30.37
28.71
26.71
24.57
22.56
20.89
19.56
18.34
16.86
14.76
11.91
8.39
4.47
0.44
-3.52
-7.41
-11.35
-15.50
-20.02
-25.02
-30.50
-36.17
-41.38
-45.07
-46.07
-43.48
-37.12
-27.69
-16.61
-5.54
4.21
11.98
17.83
22.22
25.57
28.06
29.68
30.34
30.11
29.20
27.90
26.42
24.87
23.22
21.47
19.68
18.01
16.65
15.72
15.21
14.93
14.63
13.94
12.57
10.31
7.13
3.19
-1.17
-5.53
-9.61
-13.34
-17.01
-21.06
-25.85
-31.30
-36.70
-40.79
-42.20
-39.97
-33.95
-24.93
-14.33
-3.81
5.36
12.48
17.53
20.90
23.13
24.62
25.52
25.81
25.45
24.47
23.04
21.49
20.05
18.85
17.81
16.76
15.52
14.04
12.42
10.80
9.35
8.12
7.06
5.94
4.43
2.19
-1.01
-5.26
-10.43
-16.23
-22.22
-27.85
-32.34
-34.84
-34.56
-31.08
-24.55
-15.89
-6.41
2.50
9.87
15.34
19.08
21.50
23.00
23.80
23.95
23.48
22.45
20.97
19.19
17.18
15.04
12.87
10.89
9.32
8.46
8.36
8.81
9.29
9.18
7.94
5.39
1.80
-2.30
-6.32
-9.95
-13.22
-16.40
-19.90
-23.99
-28.73
-33.92
-39.07
-43.37
-45.75
-45.10
-40.65
-32.38
-21.27
-9.07
2.23
11.08
16.93
20.21
21.92
23.08
24.21
25.32
26.13
26.39
26.08
25.44
24.71
23.89
22.77
21.06
18.69
15.90
13.19
11.05
9.72
9.06
8.66
8.05
6.93
5.23
3.00
0.33
-2.74
-6.16
-9.83
-13.60
-17.41
-21.34
-25.57
-30.25
-35.16
-39.58
-42.36
-42.32
-38.79
-31.95
-22.84
-12.94
-3.67
4.04
9.91
14.19
17.32
19.70
21.51
22.77
23.42
23.40
22.79
21.69
20.24
18.55
16.72
14.85
13.07
11.58
10.52
9.99
9.87
9.85
9.50
8.42
6.38
3.40
-0.20
-3.93
-7.26
-9.84
-11.64
-13.03
-14.63
-17.06
-20.59
-24.79
-28.64
-30.81
-30.20
-26.45
-20.04
-12.05
-3.69
4.07
10.78
16.30
20.60
23.67
25.45
26.01
25.49
24.14
22.16
19.70
16.86
13.87
11.11
8.98
7.78
7.47
7.73
8.06
8.03
7.36
5.98
3.92
1.27
-1.88
-5.32
-8.77
-11.99
-14.78
-17.22
-19.61
-22.36
-25.84
-30.02
-34.23
-37.31
-37.84
-34.84
-28.19
-18.80
-8.39
1.23
8.81
14.00
17.26
19.50
21.36
23.07
24.35
24.76
24.08
22.52
20.56
18.77
17.52
16.81
16.36
15.85
15.09
14.18
13.40
12.99
12.96
13.00
12.59
11.20
8.50
4.56
-0.20
-5.16
-9.66
-13.28
-15.96
-17.93
-19.63
-21.53
-24.04
-27.42
-31.69
-36.51
-41.05
-44.14
-44.43
-41.04
-33.93
-24.14
-13.44
-3.70
3.82
8.81
11.81
13.72
15.24
16.66
17.87
18.71
19.10
19.24
19.34
19.53
19.75
19.87
19.74
19.34
18.70
17.86
16.83
15.60
14.19
12.68
11.15
9.51
7.62
5.29
2.44
-0.72
-3.88
-6.69
-9.04
-11.06
-13.15
-15.67
-18.87
-22.78
-27.34
-32.33
-37.37
-41.76
-44.59
-44.87
-41.85
-35.41
-26.22
-15.54
-4.90
4.35
11.41
16.12
18.83
20.11
20.47
20.22
19.50
18.32
16.73
14.91
13.11
11.55
10.40
9.63
9.08
8.59
7.94
7.01
5.70
3.98
1.81
-0.80
-3.67
-6.56
-9.07
-10.88
-11.90
-12.34
-12.83
-14.15
-16.99
-21.50
-27.21
-33.02
-37.47
-39.26
-37.57
-32.40
-24.46
-14.98
-5.31
3.33
10.19
14.91
17.57
18.52
18.21
17.14
15.74
14.35
13.21
12.45
12.03
11.86
11.77
11.62
11.27
10.64
9.72
8.58
7.34
6.11
4.95
3.77
2.37
0.49
-2.02
-5.08
-8.41
-11.61
-14.38
-16.72
-18.90
-21.43
-24.79
-29.21
-34.56
-40.19
-45.05
-47.87
-47.54
-43.45
-35.80
-25.56
-14.24
-3.38
5.85
12.95
17.94
21.17
23.06
23.91
23.93
23.33
22.38
21.40
20.65
20.22
19.96
19.57
18.63
16.94
14.53
11.78
9.18
7.22
6.05
5.47
4.98
4.03
2.26
-0.45
-4.01
-8.25
-12.89
-17.56
-21.86
-25.46
-28.31
-30.78
-33.48
-36.95
-41.08
-45.00
-47.32
-46.70
-42.47
-34.93
-25.20
-14.78
-5.01
3.25
9.66
14.34
17.58
19.82
21.34
22.35
22.95
23.14
22.92
22.40
21.64
20.74
19.67
18.45
17.17
16.02
15.12
14.47
13.83
12.84
11.19
8.80
5.86
2.63
-0.64
-3.88
-7.19
-10.69
-14.61
-19.16
-24.58
-30.82
-37.50
-43.58
-47.62
-48.21
-44.48
-36.64
-25.83
-13.87
-2.56
6.78
13.65
18.27
21.25
23.25
24.70
25.81
26.58
26.99
27.04
26.76
26.08
24.90
23.14
20.88
18.41
16.13
14.33
13.00
11.73
9.98
7.30
3.62
-0.90
-5.86
-10.99
-16.12
-21.27
-26.47
-31.80
-37.38
-43.28
-49.43
-55.30
-59.93
-62.07
-60.54
-54.78
-45.08
-32.63
-19.04
-5.96
5.42
14.54
21.44
26.46
30.05
32.46
33.82
34.20
33.78
32.84
31.80
30.97
30.40
29.90
29.20
28.12
26.73
25.28
24.00
22.92
21.82
20.29
17.95
14.61
10.31
5.32
-0.01
-5.33
-10.42
-15.35
-20.49
-26.35
-33.39
-41.63
-50.35
-58.21
-63.46
-64.53
-60.48
-51.30
-37.84
-21.63
-4.50
11.77
25.75
36.48
43.72
47.83
49.50
49.68
49.07
48.10
46.85
45.10
42.61
39.31
35.48
31.64
28.45
26.41
25.60
25.62
25.67
24.92
22.85
19.36
14.83
9.87
5.12
0.95
-2.53
-5.56
-8.69
-12.56
-17.66
-24.16
-31.59
-38.93
-44.71
-47.39
-45.83
-39.61
-29.27
-16.21
-2.28
10.68
21.43
29.41
34.86
38.25
40.02
40.41
39.50
37.42
34.54
31.42
28.57
26.38
24.88
23.91
23.19
22.35
21.04
18.98
16.06
12.37
8.28
4.23
0.57
-2.64
-5.66
-9.00
-13.16
-18.59
-25.43
-33.42
-41.81
-49.35
-54.47
-55.72
-52.23
-44.03
-32.19
-18.46
-4.82
7.04
16.05
21.97
25.25
26.77
27.53
28.31
29.53
31.18
32.95
34.41
35.21
35.08
33.90
31.73
28.78
25.50
22.49
20.28
19.12
18.79
18.66
17.89
15.81
12.09
6.92
0.90
-5.17
-10.64
-15.22
-19.10
-22.92
-27.44
-33.25
-40.31
-47.87
-54.57
-58.85
-59.41
-55.63
-47.79
-36.90
-24.46
-12.00
-0.73
8.71
16.27
22.32
27.33
31.59
35.16
37.91
39.70
40.64
40.98
41.06
41.03
40.79
40.05
38.52
36.19
33.38
30.64
28.43
26.87
25.54
23.70
20.54
15.69
9.34
2.22
-4.75
-10.94
-16.15
-20.68
-25.02
-29.72
-35.12
-41.37
-48.38
-55.65
-62.27
-66.89
-68.08
-64.80
-56.86
-45.05
-30.94
-16.27
-2.43
9.89
20.69
30.26
38.76
45.90
50.99
53.30
52.51
49.00
43.84
38.36
33.74
30.56
28.78
27.94
27.56
27.32
27.13
26.85
26.21
24.79
22.17
18.18
13.02
7.18
1.24
-4.22
-8.89
-12.72
-16.05
-19.50
-23.82
-29.51
-36.45
-43.70
-49.55
-52.08
-49.93
-42.84
-31.83
-18.86
-6.01
5.10
13.77
20.07
24.50
27.52
29.39
30.17
29.87
28.71
27.01
25.17
23.51
22.13
20.91
19.71
18.44
17.22
16.25
15.75
15.63
15.49
14.70
12.67
9.15
4.31
-1.31
-7.07
-12.47
-17.30
-21.58
-25.62
-29.82
-34.64
-40.28
-46.50
-52.40
-56.53
-57.30
-53.61
-45.37
-33.67
-20.38
-7.46
3.65
12.41
19.03
24.06
28.04
31.24
33.69
35.33
36.11
36.11
35.50
34.46
33.13
31.57
29.76
27.74
25.58
23.40
21.42
19.75
18.42
17.22
15.74
13.49
10.07
5.39
-0.25
-6.15
-11.55
-15.90
-19.13
-21.70
-24.46
-28.25
-33.62
-40.53
-48.28
-55.58
-60.80
-62.40
-59.36
-51.58
-40.02
-26.46
-12.96
-1.25
7.73
13.96
18.03
20.74
22.67
24.05
24.89
25.11
24.77
24.09
23.30
22.59
21.97
21.34
20.61
19.77
18.88
18.03
17.18
16.12
14.53
12.19
9.10
5.49
1.73
-1.92
-5.36
-8.74
-12.35
-16.50
-21.40
-27.06
-33.20
-39.17
-43.90
-46.08
-44.54
-38.68
-28.84
-16.33
-3.12
8.82
18.10
24.22
27.53
28.79
28.82
28.14
27.00
25.51
23.84
22.26
21.00
20.16
19.56
18.91
17.98
16.71
15.28
13.88
12.57
11.15
9.19
6.34
2.46
-2.18
-7.08
-11.75
-15.92
-19.72
-23.57
-28.03
-33.55
-40.25
-47.75
-55.11
-60.96
-63.76
-62.27
-56.00
-45.53
-32.42
-18.76
-6.45
3.46
10.98
16.96
22.41
27.93
33.37
37.94
40.75
41.27
39.65
36.68
33.41
30.70
28.92
27.99
27.50
27.00
26.21
25.09
23.70
22.11
20.27
18.07
15.26
11.73
7.52
2.90
-1.76
-6.03
-9.68
-12.72
-15.48
-18.50
-22.29
-27.19
-33.22
-40.02
-46.94
-53.10
-57.44
-58.93
-56.78
-50.69
-41.10
-29.13
-16.36
-4.36
5.76
13.55
19.17
23.17
26.04
28.11
29.48
30.21
30.32
29.98
29.35
28.58
27.70
26.67
25.40
23.81
21.96
20.01
18.22
16.81
15.83
15.08
14.14
12.48
9.75
5.96
1.51
-3.00
-7.04
-10.33
-13.04
-15.52
-18.30
-21.77
-26.21
-31.54
-37.34
-42.74
-46.56
-47.58
-45.00
-38.78
-29.69
-19.06
-8.31
1.45
9.65
16.11
20.91
24.10
25.82
26.26
25.78
24.84
23.84
22.98
22.18
21.22
19.87
18.11
16.12
14.29
12.99
12.41
12.44
12.65
12.46
11.32
8.91
5.30
0.78
-4.13
-8.93
-13.25
-16.91
-19.98
-22.83
-25.95
-29.83
-34.67
-40.18
-45.47
-49.25
-50.15
-47.21
-40.27
-30.09
-18.15
-6.19
4.32
12.49
18.14
21.59
23.43
24.20
24.23
23.64
22.47
20.87
19.08
17.50
16.40
15.90
15.81
15.77
15.44
14.78
13.97
13.33
12.99
12.65
11.64
9.25
5.17
-0.23
-6.04
-11.21
-15.02
-17.42
-18.96
-20.54
-23.00
-26.82
-32.05
-38.21
-44.39
-49.31
-51.59
-50.12
-44.47
-35.14
-23.48
-11.30
-0.24
8.66
15.13
19.49
22.32
24.16
25.35
26.00
26.14
25.81
25.06
23.98
22.63
21.04
19.23
17.27
15.30
13.56
12.25
11.41
10.88
10.28
9.15
7.16
4.23
0.62
-3.24
-6.86
-9.98
-12.55
-14.75
-16.93
-19.55
-23.06
-27.78
-33.68
-40.12
-45.85
-49.26
-48.94
-44.19
-35.43
-24.06
-12.04
-1.15
7.46
13.49
17.34
19.67
21.04
21.73
21.76
21.09
19.79
18.08
16.26
14.60
13.26
12.25
11.50
10.90
10.31
9.58
8.55
7.12
5.28
3.13
0.82
-1.57
-4.05
-6.69
-9.56
-12.60
-15.73
-18.93
-22.39
-26.32
-30.72
-35.06
-38.22
-38.86
-35.93
-29.21
-19.50
-8.41
2.34
11.39
18.10
22.52
25.06
26.18
26.16
25.21
23.45
21.18
18.77
16.67
15.21
14.49
14.34
14.42
14.34
13.80
12.64
10.82
8.39
5.41
1.97
-1.82
-5.81
-9.81
-13.64
-17.19
-20.46
-23.63
-27.02
-31.05
-35.92
-41.46
-46.86
-50.84
-51.97
-49.21
-42.36
-32.20
-20.23
-8.18
2.53
11.08
17.29
21.43
24.02
25.55
26.41
26.85
26.98
26.81
26.31
25.44
24.19
22.61
20.83
19.10
17.66
16.73
16.28
16.04
15.54
14.28
11.96
8.58
4.42
-0.11
-4.59
-8.78
-12.51
-15.81
-18.84
-21.89
-25.39
-29.57
-34.32
-38.96
-42.32
-43.09
-40.32
-33.83
-24.33
-13.19
-1.97
8.03
16.01
21.79
25.52
27.60
28.40
28.30
27.54
26.37
24.97
23.60
22.41
21.61
21.19
21.03
20.82
20.18
18.77
16.49
13.48
10.09
6.70
3.61
0.98
-1.22
-3.16
-5.07
-7.23
-9.88
-13.30
-17.64
-22.77
-28.17
-32.84
-35.41
-34.69
-30.07
-21.94
-11.60
-0.89
8.54
15.73
20.62
23.72
25.66
26.80
27.11
26.42
24.59
21.86
18.73
15.82
13.65
12.46
12.12
12.24
12.31
11.90
10.79
8.99
6.72
4.20
1.57
-1.18
-4.16
-7.49
-11.22
-15.38
-19.91
-24.75
-29.60
-33.97
-37.05
-37.95
-35.93
-30.74
-22.88
-13.42
-3.79
4.76
11.43
16.10
19.12
21.02
22.28
23.15
23.67
23.74
23.27
22.25
20.70
18.78
16.67
14.65
12.96
11.76
11.05
10.62
10.09
9.06
7.25
4.56
1.14
-2.72
-6.67
-10.41
-13.81
-16.91
-19.94
-23.19
-26.97
-31.30
-35.81
-39.70
-41.87
-41.32
-37.49
-30.60
-21.52
-11.62
-2.20
5.81
12.06
16.70
20.07
22.48
24.06
24.81
24.76
24.08
23.09
22.17
21.55
21.19
20.83
20.12
18.83
16.98
14.88
12.94
11.49
10.56
9.85
8.85
7.10
4.38
0.87
-3.03
-6.83
-10.26
-13.33
-16.31
-19.55
-23.32
-27.61
-32.24
-36.73
-40.46
-42.66
-42.52
-39.42
-33.24
-24.53
-14.46
-4.50
4.06
10.56
15.03
18.02
20.14
21.80
23.04
23.67
23.49
22.51
20.91
18.97
16.97
15.14
13.61
12.51
11.94
11.89
12.25
12.71
12.84
12.23
10.58
7.88
4.36
0.46
-3.31
-6.59
-9.27
-11.49
-13.55
-15.84
-18.68
-22.24
-26.42
-30.82
-34.68
-36.98
-36.77
-33.49
-27.21
-18.76
-9.45
-0.63
6.71
12.16
15.86
18.21
19.53
19.99
19.63
18.53
17.00
15.46
14.35
13.88
14.01
14.49
15.02
15.37
15.41
14.99
13.90
11.89
8.83
4.81
0.23
-4.32
-8.31
-11.48
-13.88
-15.82
-17.71
-19.94
-22.80
-26.49
-31.00
-36.02
-40.84
-44.33
-45.20
-42.51
-35.99
-26.40
-15.23
-4.30
4.93
11.75
16.19
18.84
20.29
20.92
20.86
20.08
18.78
17.32
16.19
15.76
16.14
17.06
18.02
18.60
18.54
17.92
17.00
16.03
15.06
13.89
12.20
9.74
6.54
2.86
-0.83
-4.13
-6.88
-9.20
-11.49
-14.19
-17.63
-21.98
-27.20
-32.98
-38.77
-43.73
-46.87
-47.25
-44.27
-37.97
-29.05
-18.78
-8.60
0.32
7.30
12.31
15.74
18.15
19.98
21.46
22.57
23.16
23.12
22.39
21.12
19.55
17.99
16.70
15.87
15.48
15.36
15.23
14.79
13.83
12.25
10.09
7.44
4.50
1.38
-1.84
-5.12
-8.53
-12.19
-16.30
-21.06
-26.51
-32.32
-37.76
-41.67
-42.86
-40.43
-34.26
-25.10
-14.45
-4.05
4.73
11.19
15.44
18.03
19.59
20.52
20.92
20.79
20.13
19.08
17.82
16.50
15.18
13.88
12.60
11.39
10.24
9.11
7.82
6.21
4.19
1.83
-0.73
-3.33
-5.97
-8.70
-11.65
-14.91
-18.53
-22.61
-27.31
-32.71
-38.59
-44.20
-48.25
-49.29
-46.25
-38.94
-28.28
-15.98
-3.97
6.23
13.89
19.02
22.13
23.85
24.70
25.06
25.17
25.24
25.36
25.54
25.59
25.29
24.42
22.93
20.97
18.87
16.98
15.50
14.45
13.57
12.48
10.76
8.14
4.54
0.15
-4.66
-9.46
-13.89
-17.86
-21.57
-25.46
-29.95
-35.27
-41.17
-46.89
-51.32
-53.29
-51.93
-46.88
-38.52
-27.81
-16.08
-4.75
5.07
12.77
18.28
21.98
24.39
26.04
27.24
28.12
28.69
28.98
28.96
28.57
27.65
26.04
23.73
20.93
18.11
15.81
14.39
13.86
13.84
13.76
13.05
11.42
8.82
5.48
1.70
-2.21
-6.09
-9.92
-13.85
-18.19
-23.28
-29.30
-35.93
-42.30
-47.03
-48.69
-46.31
-39.79
-30.00
-18.49
-6.97
3.27
11.54
17.80
22.37
25.66
28.01
29.55
30.33
30.32
29.54
28.05
26.08
23.91
21.89
20.27
19.14
18.38
17.69
16.75
15.32
13.35
10.98
8.41
5.78
3.09
0.14
-3.37
-7.68
-12.93
-19.01
-25.66
-32.32
-38.27
-42.54
-44.12
-42.12
-36.22
-26.88
-15.38
-3.53
6.97
15.02
20.48
23.94
26.28
28.16
29.75
30.80
31.03
30.38
29.08
27.53
26.03
24.61
23.15
21.47
19.49
17.30
15.05
12.85
10.69
8.52
6.24
3.79
1.13
-1.80
-5.07
-8.77
-12.99
-17.88
-23.55
-29.94
-36.63
-42.71
-46.87
-47.70
-44.25
-36.44
-25.18
-12.23
0.41
11.08
18.86
23.68
26.12
27.07
27.33
27.47
27.75
28.15
28.49
28.52
27.99
26.79
24.98
22.80
20.60
18.68
17.17
15.93
14.59
12.75
10.17
6.84
3.04
-0.89
-4.66
-8.12
-11.40
-14.79
-18.76
-23.73
-29.91
-36.93
-43.80
-48.98
-50.82
-48.20
-40.96
-30.10
-17.40
-4.86
5.95
14.30
20.26
24.42
27.41
29.67
31.30
32.26
32.50
32.15
31.47
30.70
29.96
29.09
27.84
26.01
23.68
21.20
19.07
17.63
16.82
16.17
14.92
12.43
8.41
3.15
-2.63
-8.12
-12.68
-16.21
-19.08
-21.99
-25.63
-30.52
-36.77
-44.02
-51.44
-57.81
-61.74
-61.95
-57.72
-49.14
-37.21
-23.61
-10.13
1.73
11.18
18.06
22.70
25.67
27.50
28.62
29.32
29.71
29.82
29.57
28.89
27.74
26.13
24.19
22.05
19.96
18.14
16.80
15.97
15.45
14.80
13.44
10.98
7.33
2.85
-1.82
-6.12
-9.79
-13.00
-16.30
-20.30
-25.45
-31.77
-38.75
-45.36
-50.21
-51.89
-49.38
-42.51
-32.12
-19.86
-7.72
2.66
10.40
15.56
18.77
20.89
22.47
23.75
24.62
24.91
24.51
23.48
21.99
20.25
18.46
16.71
14.99
13.24
11.40
9.47
7.54
5.68
3.89
2.01
-0.27
-3.20
-6.94
-11.42
-16.50
-22.00
-27.90
-34.14
-40.47
-46.22
-50.30
-51.40
-48.52
-41.39
-30.73
-18.10
-5.36
5.82
14.48
20.48
24.27
26.55
27.94
28.81
29.31
29.48
29.36
28.99
28.36
27.34
25.82
23.74
21.21
18.53
16.04
13.93
12.17
10.49
8.46
5.78
2.32
-1.77
-6.14
-10.45
-14.49
-18.28
-22.12
-26.44
-31.63
-37.81
-44.62
-51.18
-56.15
-58.15
-56.16
-49.91
-40.05
-27.93
-15.21
-3.37
6.70
14.76
20.99
25.80
29.45
32.06
33.63
34.25
34.15
33.66
33.12
32.64
32.11
31.21
29.70
27.53
25.01
22.61
20.76
19.56
18.74
17.77
16.08
13.35
9.58
5.05
0.17
-4.65
-9.20
-13.41
-17.40
-21.36
-25.59
-30.38
-35.98
-42.34
-49.00
-54.98
-58.93
-59.52
-55.89
-48.04
-36.90
-24.11
-11.46
-0.37
8.49
15.19
20.24
24.23
27.55
30.24
32.15
33.09
33.00
32.00
30.36
28.36
26.27
24.27
22.52
21.13
20.16
19.57
19.17
18.68
17.76
16.13
13.65
10.35
6.43
2.20
-2.04
-6.11
-10.06
-14.23
-19.00
-24.62
-30.76
-36.48
-40.33
-40.91
-37.39
-29.92
-19.61
-8.13
2.84
12.07
18.99
23.63
26.37
27.69
28.05
27.77
27.06
26.00
24.66
23.12
21.56
20.21
19.21
18.57
18.07
17.42
16.29
14.54
12.18
9.32
6.15
2.79
-0.68
-4.20
-7.76
-11.41
-15.30
-19.67
-24.87
-31.04
-37.93
-44.76
-50.19
-52.69
-51.06
-44.87
-34.71
-22.07
-8.86
3.19
13.01
20.28
25.33
28.74
31.09
32.74
33.88
34.55
34.70
34.25
33.09
31.20
28.62
25.57
22.37
19.44
17.15
15.68
14.94
14.58
13.99
12.56
9.91
5.99
1.16
-3.99
-8.84
-13.05
-16.56
-19.67
-22.84
-26.54
-31.02
-36.22
-41.65
-46.46
-49.56
-49.89
-46.67
-39.78
-29.77
-17.83
-5.47
5.87
15.20
22.17
26.97
30.12
32.12
33.32
33.83
33.69
33.03
32.05
30.98
29.97
28.94
27.68
26.01
23.82
21.31
18.83
16.75
15.21
14.02
12.64
10.51
7.23
2.83
-2.20
-7.09
-11.19
-14.25
-16.49
-18.56
-21.23
-25.09
-30.31
-36.45
-42.51
-47.09
-48.74
-46.45
-40.06
-30.33
-18.78
-7.15
3.10
11.21
17.08
21.16
23.99
25.95
27.19
27.62
27.13
25.67
23.38
20.55
17.57
14.82
12.55
10.86
9.66
8.78
7.92
6.82
5.22
3.04
0.31
-2.76
-5.94
-9.02
-11.96
-14.88
-18.08
-21.87
-26.45
-31.64
-36.84
-41.02
-42.96
-41.65
-36.64
-28.24
-17.54
-6.12
4.46
13.04
19.05
22.60
24.15
24.31
23.58
22.26
20.53
18.57
16.61
14.88
13.56
12.67
12.08
11.58
10.92
9.96
8.64
6.91
4.78
2.19
-0.87
-4.33
-8.13
-12.14
-16.29
-20.58
-25.12
-30.10
-35.65
-41.59
-47.31
-51.72
-53.51
-51.58
-45.51
-35.81
-23.76
-11.10
0.54
9.99
16.81
21.17
23.65
25.02
25.89
26.59
27.15
27.37
27.03
26.02
24.41
22.36
20.08
17.76
15.55
13.60
12.00
10.67
9.42
7.85
5.57
2.34
-1.84
-6.74
-12.01
-17.28
-22.32
-27.01
-31.45
-35.85
-40.50
-45.49
-50.51
-54.75
-57.04
-56.23
-51.63
-43.30
-32.11
-19.47
-6.90
4.34
13.54
20.53
25.50
28.87
30.93
31.89
31.85
30.94
29.43
27.73
26.15
24.90
23.85
22.75
21.38
19.79
18.22
16.98
16.12
15.27
13.82
11.20
7.20
2.12
-3.41
-8.68
-13.28
-17.16
-20.67
-24.33
-28.63
-33.90
-40.10
-46.75
-52.86
-57.06
-57.96
-54.58
-46.81
-35.54
-22.41
-9.32
2.19
11.33
18.05
22.82
26.17
28.48
29.83
30.07
29.10
26.98
24.08
20.96
18.26
16.41
15.51
15.29
15.30
15.07
14.33
12.98
11.03
8.48
5.25
1.33
-3.21
-8.12
-13.11
-17.99
-22.82
-27.84
-33.24
-38.87
-44.00
-47.44
-47.91
-44.52
-37.21
-26.82
-14.82
-2.81
7.95
16.78
23.59
28.63
32.19
34.41
35.28
34.73
32.76
29.65
25.92
22.35
19.66
18.36
18.43
19.39
20.43
20.75
19.80
17.40
13.63
8.74
3.00
-3.28
-9.72
-15.92
-21.57
-26.61
-31.33
-36.34
-42.21
-49.16
-56.65
-63.26
-67.13
-66.41
-60.06
-48.26
-32.41
-14.71
2.59
17.85
30.30
39.98
47.27
52.54
55.93
57.46
57.18
55.33
52.40
48.97
45.56
42.47
39.70
37.11
34.63
32.30
30.30
28.75
27.50
26.01
23.59
19.61
13.92
6.99
-0.38
-7.23
-13.01
-17.67
-21.72
-25.99
-31.26
-37.90
-45.61
-53.27
-59.23
-61.70
-59.46
-52.27
-41.01
-27.36
-13.18
0.04
11.51
21.03
28.74
34.83
39.44
42.59
44.26
44.52
43.48
41.38
38.64
35.77
33.31
31.65
30.81
30.49
30.17
29.37
27.80
25.42
22.36
18.76
14.73
10.33
5.70
1.06
-3.32
-7.29
-10.94
-14.61
-18.90
-24.35
-31.20
-39.07
-46.86
-52.88
-55.33
-52.91
-45.34
-33.62
-19.68
-5.76
6.25
15.38
21.63
25.70
28.39
30.27
31.47
31.79
31.07
29.42
27.23
25.01
23.19
21.85
20.80
19.74
18.47
17.00
15.45
13.90
12.21
10.10
7.22
3.46
-1.10
-6.15
-11.37
-16.55
-21.74
-27.07
-32.63
-38.24
-43.21
-46.50
-46.92
-43.53
-36.25
-25.87
-13.95
-2.24
7.85
15.78
21.74
26.30
29.99
32.94
34.98
35.86
35.49
34.01
31.78
29.20
26.57
24.13
21.98
20.18
18.73
17.61
16.68
15.80
14.62
12.73
9.73
5.35
-0.27
-6.59
-12.69
-17.74
-21.29
-23.58
-25.49
-28.14
-32.48
-38.84
-46.72
-54.82
-61.41
-64.73
-63.49
-57.28
-46.71
-33.21
-18.66
-4.84
6.94
16.09
22.60
26.86
29.43
30.85
31.55
31.81
31.80
31.52
30.97
30.02
28.63
26.82
24.72
22.54
20.56
19.04
18.07
17.46
16.74
15.33
12.70
8.62
3.34
-2.59
-8.44
-13.52
-17.42
-20.04
-21.69
-22.97
-24.69
-27.64
-32.30
-38.49
-45.26
-51.01
-53.92
-52.52
-46.25
-35.70
-22.40
-8.46
4.12
13.95
20.52
24.09
25.41
25.30
24.45
23.22
21.79
20.26
18.75
17.41
16.35
15.60
15.09
14.69
14.23
13.53
12.43
10.78
8.50
5.62
2.26
-1.36
-5.01
-8.55
-11.94
-15.30
-18.87
-22.95
-27.79
-33.40
-39.41
-44.90
-48.56
-49.01
-45.34
-37.45
-26.23
-13.28
-0.51
10.50
18.81
24.26
27.25
28.48
28.60
28.07
27.15
25.96
24.59
23.15
21.72
20.28
18.78
17.14
15.40
13.74
12.39
11.47
10.83
10.06
8.56
5.86
1.80
-3.37
-9.11
-14.70
-19.60
-23.48
-26.39
-28.75
-31.27
-34.78
-39.87
-46.54
-53.91
-60.32
-63.77
-62.62
-56.16
-45.00
-30.77
-15.68
-1.75
9.72
18.24
24.08
27.80
29.99
31.07
31.28
30.83
30.00
29.09
28.39
28.00
27.77
27.33
26.36
24.71
22.55
20.24
18.16
16.40
14.77
12.86
10.21
6.59
2.11
-2.84
-7.81
-12.37
-16.36
-19.79
-22.92
-26.18
-30.05
-35.02
-41.29
-48.67
-56.36
-62.98
-66.91
-66.70
-61.64
-52.02
-39.12
-24.81
-11.01
0.81
9.90
16.21
20.21
22.57
23.89
24.62
24.99
25.07
24.81
24.20
23.30
22.29
21.35
20.64
20.13
19.63
18.84
17.46
15.37
12.62
9.45
6.06
2.65
-0.68
-3.94
-7.21
-10.68
-14.67
-19.61
-25.86
-33.46
-41.80
-49.57
-55.01
-56.36
-52.49
-43.41
-30.32
-15.34
-0.79
11.41
20.26
25.70
28.36
29.12
28.72
27.59
25.93
23.87
21.61
19.46
17.74
16.61
16.03
15.66
15.08
13.90
11.93
9.20
5.94
2.38
-1.31
-5.12
-9.16
-13.48
-18.15
-23.20
-28.70
-34.88
-41.98
-50.01
-58.44
-66.09
-71.30
-72.41
-68.33
-59.00
-45.45
-29.60
-13.60
0.69
12.10
20.30
25.63
28.80
30.61
31.72
32.51
33.11
33.48
33.46
32.89
31.67
29.85
27.65
25.38
23.37
21.76
20.39
18.84
16.59
13.24
8.64
2.94
-3.43
-9.96
-16.19
-21.86
-27.06
-32.24
-38.09
-45.30
-54.09
-63.84
-73.09
-79.71
-81.63
-77.58
-67.45
-52.48
-34.80
-16.75
-0.35
13.19
23.47
30.78
35.66
38.76
40.61
41.64
42.22
42.64
43.08
43.43
43.42
42.67
40.97
38.40
35.37
32.39
29.77
27.42
24.94
21.79
17.66
12.61
6.99
1.25
-4.24
-9.41
-14.45
-19.73
-25.69
-32.74
-41.09
-50.44
-59.86
-67.70
-71.96
-70.86
-63.57
-50.65
-33.98
-16.18
0.28
13.74
23.75
30.79
35.73
39.31
41.83
43.21
43.25
41.94
39.55
36.67
33.97
31.99
30.92
30.60
30.51
30.02
28.58
25.89
22.02
17.26
12.01
6.58
1.10
-4.49
-10.27
-16.43
-23.15
-30.67
-39.15
-48.34
-57.45
-65.00
-69.21
-68.45
-61.95
-50.09
-34.31
-16.70
0.67
16.29
29.41
39.88
47.87
53.67
57.53
59.78
60.83
61.18
61.21
61.04
60.44
58.98
56.37
52.68
48.39
44.13
40.35
37.00
33.61
29.56
24.45
18.36
11.70
5.03
-1.26
-7.10
-12.72
-18.55
-25.18
-33.19
-43.00
-54.52
-66.81
-78.05
-85.83
-87.86
-82.77
-70.69
-53.27
-33.17
-13.17
4.61
19.13
30.40
39.13
46.12
51.89
56.57
59.99
62.01
62.67
62.30
61.31
59.98
58.37
56.34
53.80
50.85
47.85
45.28
43.40
42.04
40.56
38.05
33.75
27.36
19.28
10.37
1.74
-5.78
-11.87
-16.86
-21.60
-27.17
-34.51
-44.05
-55.40
-67.18
-77.27
-83.22
-82.98
-75.63
-61.74
-43.30
-23.10
-3.89
12.33
24.70
33.37
39.06
42.67
44.95
46.40
47.25
47.63
47.55
46.99
45.89
44.21
41.96
39.23
36.25
33.28
30.57
28.29
26.40
24.64
22.61
19.89
16.20
11.53
6.08
0.18
-5.89
-12.11
-18.68
-25.93
-34.07
-42.81
-51.25
-57.82
-60.75
-58.55
-50.66
-37.74
-21.62
-4.67
10.80
23.30
32.31
38.21
41.72
43.55
44.10
43.50
41.78
39.10
35.83
32.47
29.51
27.25
25.74
24.75
23.87
22.67
20.72
17.77
13.76
8.84
3.26
-2.65
-8.61
-14.41
-19.97
-25.38
-30.88
-36.87
-43.84
-52.07
-61.34
-70.73
-78.51
-82.60
-81.20
-73.44
-59.80
-42.12
-22.95
-4.88
10.27
21.67
29.52
34.60
37.87
40.04
41.51
42.50
43.12
43.51
43.72
43.68
43.05
41.43
38.58
34.67
30.31
26.24
23.09
20.91
19.22
17.16
13.96
9.21
3.05
-3.92
-10.97
-17.52
-23.35
-28.65
-33.93
-39.80
-46.77
-54.97
-63.93
-72.49
-78.93
-81.38
-78.41
-69.59
-55.70
-38.59
-20.65
-4.00
9.94
20.70
28.49
33.88
37.46
39.62
40.65
40.77
40.25
39.33
38.19
36.89
35.40
33.62
31.55
29.33
27.18
25.38
23.98
22.72
21.08
18.45
14.42
9.11
3.06
-2.97
-8.33
-12.78
-16.57
-20.30
-24.71
-30.42
-37.71
-46.32
-55.32
-63.08
-67.60
-67.16
-60.92
-49.33
-34.06
-17.41
-1.61
11.80
22.16
29.60
34.59
37.76
39.56
40.32
40.23
39.38
37.82
35.64
33.02
30.23
27.61
25.41
23.75
22.58
21.70
20.81
19.53
17.46
14.29
9.90
4.46
-1.63
-7.87
-13.83
-19.35
-24.57
-29.92
-35.92
-42.87
-50.55
-58.02
-63.67
-65.67
-62.57
-53.91
-40.56
-24.45
-7.95
6.87
18.83
27.78
34.20
38.79
42.07
44.21
45.19
45.04
43.98
42.38
40.72
39.28
38.09
36.92
35.40
33.28
30.59
27.63
24.81
22.41
20.40
18.36
15.75
12.10
7.27
1.48
-4.79
-10.98
-16.63
-21.50
-25.67
-29.39
-33.20
-37.65
-43.22
-50.04
-57.66
-64.99
-70.41
-72.19
-69.03
-60.52
-47.39
-31.34
-14.56
0.90
13.72
23.44
30.41
35.36
38.93
41.44
42.94
43.38
42.77
41.35
39.50
37.58
35.87
34.44
33.24
32.13
30.94
29.58
27.96
26.01
23.68
20.87
17.46
13.33
8.49
3.13
-2.37
-7.60
-12.22
-16.10
-19.36
-22.31
-25.33
-28.79
-33.02
-38.21
-44.40
-51.30
-58.23
-64.07
-67.44
-67.04
-62.08
-52.63
-39.70
-25.02
-10.61
1.86
11.42
18.01
22.17
24.72
26.31
27.31
27.78
27.73
27.23
26.47
25.66
24.90
24.10
23.03
21.52
19.55
17.33
15.20
13.39
11.95
10.54
8.67
5.83
1.85
-3.05
-8.26
-13.09
-17.07
-20.12
-22.65
-25.34
-28.87
-33.63
-39.55
-45.95
-51.74
-55.47
-55.78
-51.74
-43.26
-31.16
-17.11
-3.13
8.98
18.04
23.80
26.69
27.57
27.27
26.45
25.44
24.42
23.38
22.26
20.97
19.37
17.42
15.16
12.79
10.51
8.51
6.80
5.24
3.54
1.44
-1.23
-4.48
-8.19
-12.19
-16.37
-20.71
-25.33
-30.43
-36.15
-42.37
-48.62
-53.97
-57.18
-57.04
-52.78
-44.39
-32.76
-19.41
-6.17
5.40
14.35
20.38
23.81
25.22
25.25
24.44
23.19
21.79
20.41
19.17
18.06
17.08
16.23
15.52
14.94
14.39
13.69
12.63
10.99
8.58
5.33
1.28
-3.41
-8.45
-13.47
-18.09
-22.09
-25.54
-28.84
-32.62
-37.47
-43.67
-50.85
-57.89
-63.12
-64.70
-61.31
-52.64
-39.65
-24.26
-8.84
4.63
14.97
21.96
26.13
28.23
29.01
29.05
28.72
28.31
28.04
27.97
28.00
27.92
27.42
26.23
24.29
21.75
19.00
16.51
14.59
13.22
11.93
10.06
6.94
2.33
-3.47
-9.71
-15.55
-20.36
-24.00
-26.77
-29.32
-32.42
-36.74
-42.61
-49.77
-57.17
-63.12
-65.64
-63.20
-55.31
-42.83
-27.70
-12.29
1.33
12.00
19.49
24.25
27.02
28.44
29.01
29.04
28.79
28.42
28.03
27.58
26.92
25.86
24.31
22.34
20.26
18.48
17.28
16.70
16.39
15.78
14.30
11.61
7.80
3.32
-1.23
-5.35
-8.86
-11.97
-15.29
-19.63
-25.63
-33.37
-42.08
-50.15
-55.49
-56.27
-51.54
-41.72
-28.39
-13.82
-0.19
10.99
19.12
24.42
27.53
29.22
30.06
30.36
30.16
29.39
27.97
25.96
23.65
21.39
19.53
18.17
17.18
16.26
15.08
13.38
11.09
8.25
4.97
1.36
-2.44
-6.32
-10.15
-13.90
-17.62
-21.58
-26.19
-31.86
-38.67
-46.09
-52.87
-57.26
-57.54
-52.65
-42.70
-28.97
-13.57
1.31
14.00
23.66
30.25
34.21
36.10
36.42
35.63
34.14
32.40
30.79
29.61
28.95
28.66
28.44
27.92
26.85
25.19
23.03
20.58
17.93
15.00
11.55
7.34
2.30
-3.34
-9.09
-14.40
-18.82
-22.24
-24.93
-27.52
-30.80
-35.50
-41.94
-49.75
-57.72
-63.95
-66.42
-63.64
-55.24
-42.18
-26.49
-10.58
3.50
14.62
22.67
28.29
32.38
35.61
38.23
40.13
41.07
40.97
40.02
38.63
37.22
36.05
35.08
34.12
32.91
31.33
29.45
27.46
25.56
23.77
21.88
19.49
16.21
11.78
6.30
0.20
-5.86
-11.27
-15.72
-19.31
-22.53
-26.03
-30.39
-35.94
-42.68
-50.25
-57.89
-64.46
-68.53
-68.73
-64.17
-54.81
-41.67
-26.57
-11.60
1.49
11.75
19.14
24.22
27.77
30.37
32.30
33.51
33.92
33.52
32.50
31.17
29.81
28.50
27.13
25.61
23.94
22.30
20.93
19.94
19.13
18.03
16.12
13.09
9.02
4.32
-0.51
-5.07
-9.25
-13.23
-17.34
-22.00
-27.50
-33.89
-40.77
-47.26
-52.00
-53.49
-50.59
-42.95
-31.34
-17.38
-3.15
9.51
19.44
26.37
30.66
33.00
34.04
34.15
33.50
32.15
30.21
27.87
25.39
22.95
20.72
18.74
17.09
15.83
14.96
14.35
13.67
12.41
10.10
6.45
1.50
-4.40
-10.71
-16.90
-22.55
-27.48
-31.83
-35.99
-40.55
-46.05
-52.66
-59.87
-66.35
-70.26
-69.77
-63.85
-52.72
-37.88
-21.61
-6.20
6.74
16.63
23.77
28.88
32.66
35.46
37.33
38.21
38.23
37.67
36.90
36.13
35.30
34.19
32.45
30.01
27.06
24.09
21.65
20.05
19.14
18.38
16.99
14.29
9.96
4.20
-2.33
-8.77
-14.41
-19.02
-22.92
-26.94
-31.99
-38.76
-47.24
-56.63
-65.35
-71.40
-72.99
-69.02
-59.53
-45.77
-29.78
-13.79
0.35
11.68
20.10
26.08
30.26
33.14
35.07
36.27
37.00
37.53
37.99
38.32
38.25
37.43
35.65
33.00
29.88
26.81
24.28
22.52
21.38
20.34
18.69
15.76
11.24
5.30
-1.41
-7.97
-13.64
-18.12
-21.68
-25.07
-29.19
-34.74
-41.78
-49.72
-57.23
-62.64
-64.34
-61.28
-53.38
-41.52
-27.35
-12.80
0.46
11.38
19.66
25.55
29.58
32.23
33.74
34.15
33.41
31.57
28.94
26.01
23.34
21.39
20.28
19.85
19.72
19.36
18.32
16.32
13.32
9.46
5.10
0.57
-3.87
-8.16
-12.47
-17.16
-22.60
-29.11
-36.68
-44.78
-52.35
-57.87
-59.77
-56.86
-48.83
-36.39
-21.24
-5.53
8.69
20.05
28.04
32.97
35.64
36.95
37.65
38.12
38.45
38.51
38.08
37.02
35.35
33.20
30.83
28.53
26.53
24.88
23.46
21.99
20.08
17.37
13.64
8.83
3.12
-3.16
-9.64
-15.97
-22.03
-27.94
-34.07
-40.90
-48.68
-57.14
-65.22
-71.26
-73.39
-70.21
-61.40
-47.91
-31.67
-14.97
0.26
12.91
22.76
30.12
35.53
39.44
42.13
43.79
44.58
44.69
44.31
43.58
42.56
41.25
39.61
37.65
35.47
33.20
31.02
28.96
26.90
24.50
21.27
16.91
11.34
4.88
-1.87
-8.30
-13.97
-18.83
-23.24
-27.84
-33.37
-40.39
-48.90
-58.20
-66.78
-72.70
-74.07
-69.77
-59.81
-45.45
-28.72
-11.78
3.65
16.66
27.07
35.25
41.73
46.93
51.06
54.09
55.86
56.19
55.11
52.84
49.85
46.62
43.57
40.90
38.63
36.71
35.01
33.35
31.40
28.63
24.53
18.76
11.43
3.14
-5.25
-12.94
-19.46
-24.86
-29.64
-34.55
-40.41
-47.69
-56.33
-65.41
-73.16
-77.36
-76.00
-68.05
-53.96
-35.62
-15.64
3.48
20.05
33.36
43.29
49.95
53.35
53.55
50.91
46.26
40.81
35.78
31.95
29.57
28.44
28.11
28.18
28.29
28.12
27.26
25.36
22.22
17.91
12.78
7.31
1.84
-3.50
-8.83
-14.41
-20.55
-27.51
-35.28
-43.48
-51.14
-56.81
-58.85
-55.98
-47.82
-35.12
-19.64
-3.60
11.01
22.88
31.65
37.61
41.38
43.50
44.32
43.99
42.64
40.45
37.78
35.01
32.48
30.36
28.63
27.11
25.61
23.98
22.18
20.19
17.91
15.11
11.46
6.72
0.83
-5.87
-12.74
-19.09
-24.43
-28.83
-32.96
-37.78
-44.12
-52.16
-61.10
-69.19
-74.27
-74.38
-68.54
-57.05
-41.45
-24.07
-7.27
7.18
18.52
26.89
32.99
37.58
41.09
43.58
44.96
45.19
44.51
43.31
41.99
40.74
39.47
37.94
35.99
33.67
31.23
29.00
27.13
25.47
23.55
20.73
16.44
10.49
3.21
-4.55
-11.73
-17.39
-21.13
-23.24
-24.63
-26.52
-30.00
-35.79
-43.87
-53.42
-62.85
-70.08
-72.98
-70.07
-61.01
-46.79
-29.58
-11.95
3.80
16.20
24.81
30.05
32.83
34.12
34.69
34.96
35.05
34.94
34.59
34.12
33.68
33.31
32.81
31.84
30.06
27.47
24.43
21.56
19.38
18.01
17.04
15.71
13.35
9.59
4.66
-0.85
-6.18
-10.80
-14.58
-17.82
-21.12
-25.11
-30.22
-36.56
-43.76
-51.04
-57.20
-60.79
-60.40
-55.13
-44.98
-31.05
-15.36
-0.21
12.47
21.71
27.58
30.76
32.14
32.34
31.67
30.28
28.40
26.35
24.48
23.01
21.87
20.87
19.79
18.50
16.97
15.26
13.43
11.41
9.14
6.51
3.49
0.05
-3.78
-7.94
-12.31
-16.86
-21.62
-26.79
-32.66
-39.42
-46.83
-54.06
-59.72
-62.14
-59.96
-52.67
-40.89
-26.30
-11.16
2.50
13.39
21.25
26.64
30.44
33.31
35.52
36.93
37.35
36.78
35.39
33.46
31.23
28.81
26.23
23.58
21.00
18.71
16.94
15.85
15.41
15.40
15.23
14.08
11.21
6.18
-0.79
-8.78
-16.53
-22.91
-27.32
-30.03
-31.92
-34.20
-37.94
-43.70
-51.25
-59.51
-66.69
-70.70
-69.81
-63.26
-51.58
-36.40
-20.05
-4.67
8.18
17.87
24.60
29.10
32.18
34.43
36.04
36.88
36.77
35.70
34.01
32.35
31.25
30.89
30.96
30.87
30.15
28.75
27.05
25.53
24.39
23.35
21.73
18.80
14.15
7.94
0.76
-6.52
-13.11
-18.52
-22.67
-25.81
-28.43
-31.08
-34.28
-38.52
-44.08
-50.96
-58.56
-65.65
-70.45
-71.11
-66.43
-56.31
-41.96
-25.50
-9.25
4.87
15.78
23.21
27.48
29.18
29.00
27.68
25.96
24.47
23.60
23.41
23.61
23.74
23.36
22.29
20.64
18.76
17.04
15.65
14.44
13.01
10.91
7.84
3.85
-0.75
-5.54
-10.22
-14.70
-19.12
-23.73
-28.83
-34.59
-40.93
-47.43
-53.15
-56.82
-56.99
-52.68
-43.72
-31.00
-16.24
-1.51
11.49
21.76
29.12
33.94
36.74
37.94
37.78
36.44
34.17
31.40
28.70
26.50
25.02
24.09
23.37
22.45
21.14
19.47
17.67
15.90
14.04
11.77
8.68
4.49
-0.70
-6.53
-12.44
-17.93
-22.70
-26.77
-30.46
-34.39
-39.26
-45.66
-53.73
-62.79
-71.32
-77.22
-78.47
-73.77
-63.10
-47.76
-29.91
-11.96
4.14
17.25
27.10
34.03
38.68
41.67
43.48
44.39
44.61
44.39
44.07
43.94
44.12
44.40
44.28
43.07
40.32
36.01
30.56
24.69
19.01
13.76
8.75
3.53
-2.28
-8.66
-15.10
-20.84
-25.17
-27.79
-28.99
-29.57
-30.49
-32.66
-36.71
-42.92
-51.14
-60.71
-70.28
-78.00
-81.77
-80.01
-72.24
-59.43
-43.77
-27.98
-14.35
-4.19
2.38
6.15
8.22
9.49
10.55
11.58
12.64
13.78
15.03
16.30
17.33
17.70
17.05
15.36
13.12
11.10
10.07
10.36
11.52
12.64
12.64
10.80
7.08
1.96
-3.76
-9.28
-14.13
-18.24
-21.89
-25.74
-30.49
-36.49
-43.44
-50.05
-54.38
-54.41
-48.90
-37.94
-22.96
-6.26
9.91
23.91
35.05
43.31
49.01
52.43
53.84
53.43
51.49
48.46
44.83
41.02
37.34
34.04
31.34
29.42
28.34
27.97
27.90
27.45
25.90
22.71
17.77
11.42
4.34
-2.73
-9.22
-14.90
-19.87
-24.56
-29.61
-35.87
-43.97
-53.97
-64.91
-74.80
-80.97
-81.03
-73.76
-59.67
-40.92
-20.45
-1.08
15.31
27.96
37.05
43.21
47.12
49.33
50.31
50.47
50.20
49.73
49.11
48.20
46.74
44.54
41.62
38.31
35.12
32.50
30.61
29.21
27.66
25.22
21.29
15.65
8.46
0.22
-8.36
-16.59
-24.01
-30.54
-36.58
-42.94
-50.54
-59.86
-70.52
-81.08
-89.29
-92.75
-89.73
-79.77
-63.94
-44.40
-23.82
-4.57
11.78
24.65
34.22
41.09
45.83
48.80
50.21
50.21
49.02
47.01
44.60
42.12
39.78
37.61
35.59
33.72
31.91
30.06
27.94
25.26
21.73
17.23
11.78
5.62
-0.92
-7.40
-13.54
-19.20
-24.69
-30.62
-37.75
-46.61
-57.02
-67.79
-76.82
-81.62
-80.12
-71.48
-56.45
-37.25
-16.89
1.82
17.01
28.17
35.85
41.09
44.71
46.99
47.75
46.71
43.92
39.90
35.44
31.35
28.14
25.91
24.43
23.35
22.28
20.89
18.92
16.12
12.42
7.81
2.43
-3.56
-10.04
-17.00
-24.63
-33.16
-42.79
-53.34
-64.07
-73.50
-79.74
-80.91
-75.87
-64.66
-48.61
-29.94
-11.12
5.83
19.79
30.57
38.55
44.28
48.11
50.12
50.19
48.28
44.71
40.17
35.62
31.96
29.72
28.80
28.58
28.10
26.54
23.51
19.07
13.65
7.66
1.21
-5.91
-14.05
-23.47
-34.12
-45.86
-58.51
-71.89
-85.39
-97.61
-106.26
-108.71
-103.03
-88.97
-68.31
-44.29
-20.48
0.44
17.30
30.23
40.08
47.68
53.56
57.97
61.12
63.21
64.37
64.61
63.74
61.59
58.19
53.85
49.08
44.41
40.23
36.56
33.24
29.88
26.13
21.68
16.40
10.26
3.34
-4.25
-12.47
-21.40
-31.31
-42.59
-55.46
-69.54
-83.49
-94.98
-101.17
-99.61
-89.22
-70.87
-47.21
-21.82
1.88
21.68
36.89
48.03
56.20
62.41
67.23
70.84
73.25
74.46
74.62
73.81
72.03
69.20
65.31
60.58
55.58
51.00
47.40
44.85
42.81
40.26
36.09
29.59
20.73
10.20
-0.83
-11.26
-20.36
-28.11
-35.13
-42.52
-51.46
-62.66
-75.94
-89.89
-101.87
-108.61
-107.09
-95.73
-75.18
-48.34
-19.53
6.87
27.84
42.47
51.72
57.49
61.52
64.65
66.82
67.56
66.62
64.26
61.21
58.23
55.82
54.01
52.50
50.87
48.76
45.95
42.39
38.13
33.27
27.88
22.05
15.77
9.01
1.70
-6.21
-14.84
-24.34
-34.90
-46.54
-58.74
-70.24
-78.94
-82.47
-78.91
-67.59
-49.55
-27.28
-4.05
17.23
34.65
47.68
56.76
62.77
66.48
68.34
68.61
67.59
65.75
63.64
61.67
59.85
57.89
55.35
52.04
48.15
44.21
40.72
37.80
35.04
31.64
26.77
19.98
11.47
1.96
-7.56
-16.25
-23.77
-30.29
-36.51
-43.33
-51.62
-61.88
-73.87
-86.41
-97.33
-103.91
-103.57
-94.87
-78.16
-55.61
-30.67
-6.87
13.25
28.69
39.90
48.10
54.42
59.47
63.29
65.72
66.77
66.84
66.52
66.25
66.02
65.34
63.52
60.14
55.37
49.96
44.98
41.22
38.76
36.92
34.51
30.40
24.05
15.67
6.12
-3.52
-12.39
-20.08
-26.65
-32.54
-38.39
-44.85
-52.54
-61.72
-71.96
-81.95
-89.57
-92.47
-88.85
-78.20
-61.57
-41.28
-20.18
-0.81
15.24
27.44
36.13
42.06
46.04
48.63
50.12
50.56
49.95
48.35
46.00
43.20
40.26
37.37
34.57
31.78
28.94
26.01
22.94
19.67
16.06
11.91
7.15
1.85
-3.72
-9.24
-14.53
-19.70
-25.19
-31.67
-39.68
-49.20
-59.33
-68.30
-73.84
-73.81
-67.09
-54.00
-36.39
-17.08
1.02
15.71
26.06
32.39
35.79
37.49
38.32
38.58
38.14
36.81
34.60
31.83
29.00
26.53
24.62
23.12
21.77
20.22
18.29
15.85
12.85
9.22
4.88
-0.22
-5.99
-12.25
-18.79
-25.50
-32.44
-39.83
-47.95
-56.87
-66.30
-75.31
-82.42
-85.86
-84.15
-76.61
-63.70
-47.04
-28.89
-11.55
3.30
14.90
23.37
29.32
33.48
36.40
38.37
39.46
39.72
39.23
38.16
36.67
34.86
32.77
30.37
27.71
24.99
22.50
20.55
19.16
17.97
16.29
13.38
8.79
2.62
-4.50
-11.65
-18.07
-23.38
-27.83
-32.02
-36.81
-42.93
-50.73
-59.85
-69.15
-76.75
-80.46
-78.57
-70.41
-56.79
-39.73
-21.82
-5.40
8.09
18.25
25.48
30.50
33.97
36.27
37.61
38.14
38.07
37.64
37.03
36.29
35.20
33.52
31.09
28.03
24.77
21.88
19.82
18.66
18.00
17.06
15.08
11.55
6.45
0.24
-6.35
-12.61
-18.02
-22.50
-26.31
-29.98
-34.19
-39.48
-46.07
-53.66
-61.28
-67.36
-70.12
-68.12
-60.76
-48.69
-33.60
-17.74
-3.19
8.65
17.37
23.30
27.16
29.59
30.89
31.10
30.08
27.84
24.67
21.12
17.89
15.50
14.18
13.75
13.75
13.69
13.16
11.96
10.06
7.48
4.23
0.34
-4.10
-8.92
-13.89
-18.88
-23.97
-29.46
-35.71
-42.81
-50.28
-56.91
-61.10
-61.27
-56.49
-46.95
-33.89
-19.28
-5.12
7.04
16.48
23.19
27.67
30.52
32.22
33.08
33.22
32.74
31.68
30.10
28.00
25.41
22.46
19.35
16.46
14.18
12.77
12.20
12.09
11.66
10.11
6.78
1.53
-5.22
-12.60
-19.59
-25.44
-29.93
-33.41
-36.69
-40.67
-45.99
-52.71
-60.18
-67.08
-71.77
-72.62
-68.61
-59.59
-46.48
-31.00
-15.14
-0.68
11.27
20.40
27.00
31.61
34.73
36.63
37.41
37.20
36.27
35.02
33.89
33.08
32.50
31.79
30.50
28.41
25.71
22.95
20.79
19.61
19.22
18.87
17.51
14.30
9.01
2.16
-5.25
-12.11
-17.77
-22.12
-25.65
-29.01
-32.86
-37.66
-43.69
-50.93
-58.85
-66.35
-71.74
-73.16
-69.20
-59.56
-45.28
-28.46
-11.57
3.34
15.11
23.59
29.29
32.90
34.98
35.85
35.71
34.80
33.46
32.07
30.88
29.92
28.96
27.77
26.22
24.47
22.84
21.56
20.61
19.58
17.87
14.98
10.79
5.67
0.29
-4.68
-8.86
-12.27
-15.34
-18.66
-22.79
-28.14
-34.78
-42.32
-49.77
-55.67
-58.27
-56.19
-48.88
-37.01
-22.29
-6.98
6.84
17.84
25.58
30.33
32.68
33.22
32.43
30.69
28.45
26.09
23.94
22.13
20.61
19.27
18.05
16.98
16.17
15.56
14.90
13.75
11.65
8.29
3.73
-1.71
-7.56
-13.36
-18.80
-23.67
-27.96
-31.85
-35.78
-40.38
-46.20
-53.24
-60.57
-66.45
-68.66
-65.50
-56.46
-42.53
-25.84
-8.91
6.15
18.23
27.12
33.27
37.27
39.64
40.69
40.67
39.90
38.80
37.73
36.86
36.13
35.22
33.74
31.47
28.52
25.27
22.25
19.90
18.32
17.28
16.22
14.47
11.52
7.12
1.47
-4.92
-11.35
-17.20
-22.07
-25.91
-29.06
-32.12
-35.83
-40.84
-47.50
-55.45
-63.61
-70.19
-73.18
-70.95
-62.89
-49.71
-33.32
-16.15
-0.53
12.00
20.98
26.79
30.40
32.79
34.65
36.19
37.29
37.69
37.27
36.18
34.74
33.28
31.94
30.61
29.08
27.24
25.22
23.30
21.77
20.66
19.66
18.23
15.78
11.98
6.92
1.10
-4.73
-9.86
-13.93
-17.02
-19.62
-22.47
-26.19
-31.24
-37.67
-45.18
-53.04
-60.15
-65.04
-66.21
-62.53
-53.70
-40.52
-24.76
-8.68
5.68
17.01
24.95
29.88
32.57
33.75
34.02
33.69
32.95
31.83
30.37
28.62
26.68
24.68
22.79
21.13
19.72
18.41
16.99
15.22
12.96
10.18
6.92
3.29
-0.59
-4.56
-8.46
-12.18
-15.80
-19.65
-24.25
-30.19
-37.65
-46.20
-54.56
-60.81
-62.91
-59.38
-49.91
-35.57
-18.54
-1.44
13.46
24.87
32.56
37.17
39.58
40.55
40.54
39.78
38.49
36.99
35.59
34.47
33.54
32.48
30.89
28.55
25.56
22.32
19.42
17.28
16.04
15.32
14.43
12.53
9.00
3.78
-2.64
-9.34
-15.36
-20.15
-23.75
-26.79
-30.22
-35.03
-41.86
-50.67
-60.59
-69.92
-76.53
-78.39
-74.32
-64.36
-49.83
-32.85
-15.71
-0.24
12.52
22.30
29.39
34.29
37.53
39.51
40.50
40.65
40.08
39.02
37.73
36.46
35.33
34.21
32.86
31.06
28.81
26.36
24.09
22.28
20.95
19.80
18.38
16.26
13.13
8.92
3.71
-2.17
-8.28
-14.14
-19.32
-23.70
-27.44
-31.03
-35.17
-40.51
-47.39
-55.62
-64.29
-71.84
-76.42
-76.36
-70.79
-59.95
-45.17
-28.48
-12.01
2.57
14.35
23.12
29.16
32.91
34.87
35.51
35.35
34.90
34.57
34.52
34.60
34.41
33.54
31.80
29.41
26.87
24.81
23.57
23.09
22.86
22.11
20.16
16.61
11.51
5.32
-1.23
-7.42
-12.73
-17.09
-20.81
-24.56
-29.07
-34.81
-41.76
-49.28
-56.16
-60.79
-61.63
-57.60
-48.54
-35.37
-19.82
-4.04
10.09
21.43
29.69
35.21
38.52
40.09
40.15
38.88
36.52
33.51
30.33
27.39
24.88
22.84
21.24
20.02
19.18
18.59
17.98
16.91
14.90
11.57
6.82
0.79
-6.15
-13.40
-20.38
-26.57
-31.76
-36.15
-40.45
-45.55
-52.07
-59.91
-67.93
-74.15
-76.35
-72.87
-63.24
-48.44
-30.54
-12.04
4.86
18.80
29.35
36.77
41.64
44.47
45.67
45.57
44.56
43.13
41.66
40.32
38.98
37.35
35.15
32.47
29.69
27.32
25.72
24.81
24.09
22.83
20.38
16.33
10.70
3.87
-3.55
-10.87
-17.49
-23.06
-27.67
-31.80
-36.27
-41.92
-49.29
-58.21
-67.66
-75.80
-80.46
-79.75
-72.72
-59.74
-42.49
-23.41
-5.03
10.72
22.89
31.49
37.16
40.73
42.89
44.05
44.40
44.05
43.18
42.01
40.74
39.45
38.05
36.36
34.34
32.07
29.81
27.74
25.81
23.63
20.69
16.61
11.36
5.36
-0.81
-6.59
-11.79
-16.53
-21.23
-26.42
-32.63
-40.21
-49.14
-58.69
-67.39
-73.16
-73.94
-68.48
-56.87
-40.67
-22.35
-4.51
10.97
23.18
32.12
38.26
42.07
43.92
44.02
42.67
40.24
37.23
34.13
31.31
28.93
27.00
25.43
24.12
22.92
21.68
20.17
18.12
15.30
11.58
6.97
1.71
-3.85
-9.37
-14.65
-19.74
-25.04
-31.14
-38.54
-47.34
-56.84
-65.47
-71.10
-71.71
-66.11
-54.48
-38.36
-20.13
-2.26
13.41
25.97
35.37
42.00
46.30
48.58
49.02
47.89
45.67
43.04
40.64
38.89
37.79
37.01
36.09
34.72
32.93
30.99
29.24
27.74
26.18
23.95
20.40
15.16
8.34
0.54
-7.37
-14.58
-20.56
-25.29
-29.20
-33.09
-37.89
-44.39
-52.94
-63.16
-73.80
-82.86
-88.02
-87.27
-79.65
-65.65
-47.18
-26.95
-7.72
8.52
21.01
30.01
36.43
41.18
44.84
47.56
49.30
50.02
49.89
49.28
48.59
48.08
47.78
47.49
46.92
45.82
44.12
41.92
39.44
36.94
34.51
32.06
29.30
25.86
21.44
15.95
9.60
2.76
-4.11
-10.60
-16.54
-21.98
-27.17
-32.52
-38.50
-45.55
-53.82
-63.02
-72.14
-79.59
-83.40
-81.87
-74.20
-60.85
-43.52
-24.63
-6.63
8.79
20.90
30.00
36.82
42.11
46.27
49.30
51.05
51.48
50.83
49.58
48.18
46.91
45.77
44.54
43.05
41.24
39.25
37.32
35.59
34.04
32.48
30.59
28.03
24.50
19.80
13.95
7.24
0.22
-6.49
-12.38
-17.26
-21.30
-24.96
-28.85
-33.52
-39.34
-46.35
-54.11
-61.64
-67.44
-69.83
-67.41
-59.57
-46.83
-30.73
-13.39
3.06
17.08
27.95
35.63
40.49
42.95
43.44
42.32
40.04
37.21
34.44
32.20
30.68
29.73
29.01
28.14
26.91
25.25
23.27
21.00
18.36
15.12
11.04
5.98
0.03
-6.41
-12.84
-18.75
-23.93
-28.52
-33.09
-38.32
-44.76
-52.44
-60.55
-67.58
-71.56
-70.77
-64.31
-52.54
-37.01
-19.91
-3.46
10.75
21.95
30.16
35.79
39.41
41.53
42.51
42.71
42.39
41.78
40.96
39.89
38.48
36.62
34.26
31.48
28.47
25.54
23.00
21.00
19.41
17.75
15.29
11.40
5.80
-1.29
-9.12
-16.77
-23.47
-28.89
-33.21
-37.04
-41.20
-46.51
-53.46
-61.92
-70.92
-78.67
-82.98
-81.89
-74.47
-61.19
-43.89
-25.06
-7.13
8.26
20.47
29.70
36.58
41.71
45.48
48.04
49.43
49.68
48.97
47.61
46.02
44.55
43.35
42.33
41.18
39.56
37.31
34.51
31.47
28.48
25.60
22.64
19.14
14.65
8.96
2.29
-4.80
-11.59
-17.50
-22.33
-26.31
-30.07
-34.35
-39.84
-46.92
-55.46
-64.72
-73.33
-79.51
-81.50
-78.09
-69.06
-55.27
-38.51
-20.93
-4.46
9.55
20.47
28.27
33.32
36.19
37.57
38.08
38.22
38.23
38.09
37.60
36.60
35.04
33.11
31.08
29.23
27.71
26.45
25.23
23.71
21.59
18.64
14.86
10.40
5.62
0.88
-3.58
-7.77
-12.01
-16.85
-22.89
-30.45
-39.35
-48.68
-56.95
-62.32
-63.15
-58.46
-48.36
-34.02
-17.47
-1.01
13.36
24.40
31.78
35.98
37.95
38.60
38.63
38.24
37.33
35.66
33.16
30.05
26.81
23.95
21.73
20.09
18.71
17.16
15.16
12.64
9.68
6.42
2.89
-0.97
-5.19
-9.82
-14.77
-20.03
-25.69
-32.01
-39.29
-47.56
-56.28
-64.13
-69.31
-70.03
-65.16
-54.75
-40.10
-23.32
-6.68
8.10
20.15
29.37
36.11
40.75
43.54
44.64
44.26
42.81
40.82
38.78
36.93
35.27
33.61
31.76
29.70
27.50
25.29
23.05
20.54
17.38
13.25
8.01
1.85
-4.73
-11.11
-16.73
-21.34
-25.10
-28.53
-32.48
-37.81
-45.02
-53.89
-63.27
-71.22
-75.41
-73.99
-66.18
-52.73
-35.64
-17.55
-0.86
12.91
23.29
30.60
35.53
38.73
40.60
41.42
41.39
40.86
40.18
39.60
39.13
38.51
37.33
35.26
32.30
28.82
25.47
22.83
21.14
20.09
18.97
16.94
13.45
8.45
2.40
-3.95
-9.86
-14.89
-18.98
-22.54
-26.29
-31.01
-37.33
-45.34
-54.46
-63.31
-70.02
-72.62
-69.78
-61.23
-47.91
-31.77
-15.09
0.08
12.43
21.54
27.68
31.55
33.91
35.40
36.38
36.97
37.04
36.36
34.77
32.35
29.43
26.51
24.07
22.28
21.11
20.32
19.63
18.76
17.42
15.33
12.26
8.20
3.38
-1.65
-6.23
-9.94
-12.75
-15.14
-17.97
-22.08
-28.04
-35.73
-44.18
-51.71
-56.26
-56.08
-50.30
-39.38
-24.99
-9.50
4.84
16.47
24.80
30.06
32.87
33.88
33.56
32.21
30.09
27.54
24.96
22.69
20.97
19.82
19.02
18.29
17.38
16.18
14.78
13.27
11.68
9.87
7.54
4.46
0.58
-3.85
-8.43
-12.76
-16.69
-20.45
-24.56
-29.70
-36.24
-43.94
-51.76
-58.03
-60.86
-58.81
-51.45
-39.58
-25.03
-9.98
3.59
14.49
22.40
27.65
30.88
32.74
33.68
34.05
34.04
33.79
33.29
32.48
31.23
29.46
27.23
24.74
22.26
20.08
18.35
17.10
16.17
15.21
13.78
11.42
7.80
2.92
-2.89
-9.04
-14.83
-19.77
-23.81
-27.32
-31.01
-35.70
-41.83
-49.26
-57.09
-63.74
-67.35
-66.34
-59.99
-48.76
-34.23
-18.61
-4.00
8.19
17.46
24.12
28.83
32.20
34.64
36.29
37.23
37.57
37.45
36.90
35.83
33.99
31.24
27.68
23.73
20.01
17.07
15.10
13.87
12.82
11.34
9.00
5.68
1.55
-3.08
-7.88
-12.60
-17.10
-21.42
-25.80
-30.66
-36.39
-43.07
-50.18
-56.53
-60.45
-60.32
-55.20
-45.28
-31.88
-17.13
-3.23
8.18
16.38
21.59
24.62
26.36
27.42
27.99
27.94
27.12
25.56
23.57
21.62
20.12
19.18
18.55
17.81
16.48
14.32
11.37
7.90
4.24
0.68
-2.66
-5.79
-8.81
-11.91
-15.30
-19.36
-24.52
-31.09
-38.99
-47.49
-55.17
-60.19
-60.85
-56.19
-46.39
-32.76
-17.38
-2.46
10.20
19.61
25.62
28.74
29.81
29.75
29.30
28.90
28.66
28.52
28.25
27.71
26.79
25.46
23.79
21.85
19.72
17.42
14.97
12.24
9.13
5.56
1.54
-2.79
-7.26
-11.79
-16.39
-21.26
-26.71
-33.06
-40.51
-48.90
-57.51
-65.02
-69.71
-69.87
-64.50
-53.75
-38.97
-22.36
-6.31
7.40
17.87
25.18
29.99
33.18
35.44
37.21
38.55
39.32
39.32
38.41
36.64
34.25
31.56
28.90
26.46
24.33
22.52
20.94
19.34
17.42
14.81
11.36
7.13
2.54
-1.96
-6.02
-9.64
-13.16
-17.15
-22.19
-28.69
-36.65
-45.56
-54.22
-60.93
-63.84
-61.51
-53.53
-40.81
-25.33
-9.51
4.50
15.48
23.15
28.03
30.99
32.79
33.93
34.59
34.75
34.38
33.56
32.46
31.33
30.28
29.25
28.00
26.33
24.10
21.42
18.53
15.67
12.96
10.34
7.64
4.71
1.42
-2.35
-6.61
-11.45
-16.94
-23.14
-29.92
-36.87
-43.09
-47.28
-48.05
-44.37
-36.17
-24.42
-10.97
2.10
13.12
21.31
26.71
29.90
31.54
32.07
31.72
30.61
28.83
26.57
24.05
21.50
19.18
17.37
16.29
16.00
16.28
16.67
16.61
15.63
13.51
10.38
6.50
2.19
-2.34
-6.96
-11.60
-16.17
-20.66
-25.25
-30.31
-36.23
-43.13
-50.48
-56.99
-60.85
-60.34
-54.51
-43.68
-29.41
-13.97
0.41
12.32
21.35
27.92
32.75
36.38
38.91
40.21
40.19
39.09
37.45
35.91
34.87
34.35
34.05
33.53
32.47
30.80
28.69
26.41
24.23
22.29
20.54
18.76
16.64
13.85
10.20
5.68
0.49
-5.00
-10.37
-15.33
-19.73
-23.61
-27.24
-31.06
-35.61
-41.29
-48.08
-55.31
-61.64
-65.31
-64.73
-59.09
-48.68
-34.90
-19.78
-5.27
7.25
17.24
24.85
30.49
34.51
37.12
38.42
38.63
38.17
37.55
37.15
37.11
37.22
37.11
36.51
35.23
33.35
31.11
28.79
26.61
24.72
23.14
21.75
20.33
18.53
15.99
12.47
7.88
2.43
-3.44
-9.19
-14.33
-18.59
-22.02
-24.98
-28.02
-31.73
-36.52
-42.48
-49.20
-55.68
-60.48
-62.06
-59.26
-51.73
-40.15
-26.01
-11.19
2.63
14.25
23.15
29.19
32.55
33.52
32.58
30.37
27.66
25.19
23.36
22.19
21.38
20.53
19.41
18.12
16.95
16.22
16.01
16.03
15.69
14.38
11.70
7.65
2.61
-2.83
-8.04
-12.61
-16.36
-19.46
-22.30
-25.49
-29.59
-34.98
-41.49
-48.33
-54.08
-57.07
-55.93
-50.11
-40.10
-27.31
-13.59
-0.64
10.38
19.04
25.39
29.74
32.36
33.43
33.07
31.49
29.09
26.36
23.88
21.98
20.81
20.21
19.87
19.53
19.05
18.52
18.03
17.54
16.66
14.84
11.59
6.78
0.82
-5.48
-11.29
-16.05
-19.71
-22.64
-25.47
-28.84
-33.31
-39.18
-46.43
-54.53
-62.35
-68.30
-70.68
-68.25
-60.73
-48.89
-34.32
-19.01
-4.70
7.39
16.80
23.61
28.29
31.42
33.46
34.67
35.19
35.00
34.15
32.67
30.67
28.27
25.58
22.78
20.09
17.83
16.28
15.58
15.61
15.89
15.72
14.35
11.32
6.62
0.76
-5.44
-11.10
-15.66
-19.00
-21.51
-23.87
-26.83
-31.00
-36.72
-43.88
-51.75
-59.00
-63.84
-64.55
-59.98
-50.10
-36.08
-20.00
-4.13
9.68
20.43
27.97
32.68
35.11
35.72
34.81
32.71
29.86
26.82
24.11
22.05
20.64
19.63
18.62
17.30
15.56
13.44
11.06
8.48
5.64
2.42
-1.27
-5.34
-9.62
-13.78
-17.61
-21.07
-24.44
-28.22
-32.95
-38.82
-45.44
-51.71
-56.07
-56.96
-53.38
-45.27
-33.56
-19.85
-5.96
6.54
16.71
24.25
29.35
32.43
33.87
33.86
32.48
29.83
26.14
21.95
17.92
14.72
12.75
12.10
12.46
13.34
14.11
14.19
13.13
10.64
6.69
1.51
-4.42
-10.56
-16.40
-21.68
-26.48
-31.25
-36.60
-43.03
-50.50
-58.24
-64.67
-67.90
-66.30
-59.19
-47.16
-31.89
-15.64
-0.46
12.23
21.91
28.71
33.11
35.65
36.81
36.99
36.58
35.89
35.11
34.22
33.05
31.42
29.21
26.53
23.61
20.81
18.39
16.47
14.88
13.27
11.27
8.58
5.10
0.88
-3.92
-9.18
-14.85
-20.96
-27.57
-34.78
-42.54
-50.60
-58.30
-64.56
-67.99
-67.22
-61.44
-50.77
-36.44
-20.44
-4.90
8.54
19.14
26.99
32.70
36.91
39.98
41.99
42.92
42.80
41.88
40.50
38.99
37.48
35.93
34.21
32.22
30.05
27.90
25.98
24.40
23.01
21.48
19.36
16.32
12.23
7.26
1.72
-3.97
-9.44
-14.53
-19.27
-23.99
-29.14
-35.27
-42.64
-51.02
-59.41
-66.18
-69.44
-67.70
-60.42
-48.28
-33.02
-16.83
-1.69
11.11
21.14
28.59
33.90
37.49
39.71
40.80
40.98
40.50
39.54
38.18
36.43
34.31
31.90
29.44
27.24
25.58
24.59
24.11
23.81
23.18
21.74
19.20
15.54
10.98
5.93
0.78
-4.18
-8.95
-13.73
-18.93
-25.02
-32.19
-40.22
-48.15
-54.42
-57.23
-55.15
-47.67
-35.53
-20.48
-4.74
9.70
21.59
30.55
36.84
41.00
43.52
44.66
44.57
43.37
41.29
38.64
35.81
33.12
30.76
28.79
27.18
25.87
24.77
23.76
22.64
21.13
18.90
15.64
11.30
6.01
0.12
-5.94
-11.81
-17.26
-22.30
-27.18
-32.40
-38.55
-45.94
-54.32
-62.50
-68.57
-70.35
-66.28
-56.09
-41.02
-23.43
-6.02
9.08
20.82
29.21
34.95
38.89
41.67
43.61
44.83
45.41
45.48
45.19
44.57
43.52
41.78
39.19
35.80
32.04
28.60
26.09
24.73
24.20
23.67
22.19
19.07
14.15
7.82
0.81
-6.09
-12.27
-17.44
-21.67
-25.41
-29.38
-34.39
-41.01
-49.19
-57.95
-65.48
-69.57
-68.47
-61.42
-49.15
-33.53
-16.98
-1.67
11.08
20.89
28.07
33.19
36.70
38.89
39.90
40.03
39.68
39.27
39.07
39.02
38.80
38.02
36.40
33.98
31.04
28.04
25.36
23.18
21.46
19.88
18.03
15.39
11.62
6.59
0.52
-6.10
-12.61
-18.46
-23.43
-27.69
-31.81
-36.49
-42.32
-49.31
-56.69
-62.95
-66.28
-65.12
-58.83
-47.92
-33.94
-18.97
-4.89
7.06
16.52
23.73
29.21
33.32
36.11
37.44
37.13
35.27
32.24
28.67
25.18
22.23
20.01
18.46
17.43
16.73
16.15
15.42
14.12
11.80
8.19
3.25
-2.66
-8.97
-15.09
-20.57
-25.36
-29.71
-34.15
-39.17
-44.85
-50.67
-55.37
-57.37
-55.29
-48.52
-37.59
-24.00
-9.72
3.47
14.43
22.84
28.90
33.01
35.51
36.60
36.44
35.31
33.61
31.81
30.25
28.97
27.78
26.30
24.27
21.73
19.02
16.71
15.31
14.91
15.07
14.94
13.57
10.36
5.31
-1.00
-7.70
-13.99
-19.41
-23.92
-27.84
-31.73
-36.26
-41.93
-48.90
-56.60
-63.70
-68.26
-68.36
-62.89
-52.09
-37.52
-21.50
-6.30
6.63
16.81
24.51
30.23
34.39
37.12
38.53
38.77
38.18
37.17
36.09
35.10
34.21
33.30
32.19
30.76
28.92
26.71
24.30
21.96
19.95
18.39
17.09
15.56
13.19
9.46
4.24
-2.11
-8.87
-15.24
-20.66
-25.05
-28.78
-32.54
-37.08
-42.90
-49.98
-57.66
-64.65
-69.30
-70.06
-66.00
-57.10
-44.41
-29.72
-14.90
-1.49
9.69
18.51
25.33
30.55
34.50
37.28
38.87
39.33
38.81
37.60
36.03
34.40
32.82
31.28
29.63
27.75
25.66
23.55
21.69
20.26
19.22
18.22
16.73
14.23
10.48
5.66
0.28
-4.98
-9.58
-13.30
-16.28
-18.96
-21.88
-25.55
-30.34
-36.38
-43.44
-50.80
-57.20
-61.03
-60.79
-55.58
-45.62
-32.26
-17.56
-3.68
7.87
16.52
22.56
26.66
29.41
31.05
31.45
30.50
28.30
25.29
22.18
19.63
18.04
17.42
17.51
17.94
18.44
18.80
18.85
18.31
16.76
13.82
9.32
3.52
-2.87
-8.92
-13.83
-17.25
-19.50
-21.47
-24.27
-28.84
-35.44
-43.51
-51.63
-57.89
-60.37
-57.76
-49.82
-37.45
-22.43
-6.92
7.22
18.75
27.19
32.68
35.69
36.76
36.48
35.34
33.73
31.93
30.03
28.02
25.84
23.52
21.20
19.05
17.28
15.95
15.05
14.44
13.83
12.78
10.83
7.58
2.92
-2.91
-9.29
-15.45
-20.78
-25.09
-28.66
-32.20
-36.55
-42.32
-49.51
-57.30
-64.16
-68.21
-67.81
-62.19
-51.69
-37.75
-22.33
-7.34
5.84
16.56
24.70
30.46
34.10
35.88
36.11
35.23
33.78
32.24
30.94
29.93
29.04
27.97
26.56
24.80
22.93
21.20
19.82
18.72
17.56
15.82
13.00
8.86
3.57
-2.34
-8.13
-13.14
-17.07
-20.11
-22.92
-26.36
-31.23
-37.89
-46.02
-54.58
-61.94
-66.25
-65.93
-60.20
-49.37
-34.93
-19.08
-4.09
8.31
17.38
23.30
26.84
28.88
30.05
30.62
30.62
30.00
28.79
27.15
25.32
23.55
22.08
21.08
20.53
20.27
19.96
19.12
17.37
14.54
10.75
6.34
1.71
-2.80
-6.99
-10.77
-14.21
-17.61
-21.49
-26.42
-32.76
-40.15
-47.39
-52.62
-53.89
-49.96
-40.79
-27.64
-12.61
2.01
14.45
23.75
29.80
33.07
34.28
34.07
32.89
30.95
28.37
25.39
22.35
19.69
17.78
16.72
16.41
16.50
16.58
16.25
15.20
13.23
10.28
6.49
2.09
-2.60
-7.36
-12.15
-17.06
-22.32
-28.16
-34.78
-42.19
-50.16
-57.97
-64.30
-67.50
-66.02
-59.10
-47.16
-31.81
-15.34
0.02
12.80
22.49
29.40
34.13
37.27
39.21
40.11
40.11
39.31
37.89
35.99
33.75
31.32
28.81
26.40
24.28
22.61
21.41
20.48
19.39
17.61
14.65
10.34
4.90
-1.17
-7.23
-12.80
-17.75
-22.30
-26.89
-32.06
-38.25
-45.50
-53.31
-60.51
-65.37
-66.11
-61.54
-51.57
-37.39
-21.12
-5.08
8.89
19.89
27.92
33.47
37.18
39.53
40.80
41.23
41.09
40.65
40.10
39.45
38.50
37.01
34.79
31.95
28.85
26.02
23.94
22.78
22.31
21.91
20.83
18.47
14.59
9.34
3.26
-2.96
-8.73
-13.68
-17.90
-21.81
-26.17
-31.71
-38.77
-46.95
-55.02
-61.07
-63.15
-59.92
-51.26
-38.38
-23.45
-8.92
3.33
12.36
18.28
21.84
24.03
25.58
26.83
27.79
28.22
27.93
26.83
25.02
22.78
20.48
18.49
17.13
16.50
16.45
16.61
16.51
15.69
13.90
11.09
7.43
3.21
-1.22
-5.54
-9.58
-13.36
-17.17
-21.52
-26.94
-33.62
-41.12
-48.18
-52.95
-53.55
-48.86
-38.90
-25.04
-9.50
5.38
17.77
26.86
32.80
36.26
38.06
38.79
38.71
37.87
36.32
34.17
31.61
28.85
26.06
23.37
20.93
18.78
16.92
15.23
13.52
11.52
9.09
6.15
2.75
-0.98
-4.94
-9.07
-13.32
-17.75
-22.53
-27.99
-34.54
-42.42
-51.35
-60.31
-67.55
-71.03
-69.14
-61.24
-48.11
-31.64
-14.32
1.60
14.65
24.35
31.03
35.41
38.19
39.93
40.93
41.42
41.52
41.33
40.90
40.23
39.25
37.88
36.10
33.97
31.67
29.47
27.61
26.18
24.93
23.36
20.78
16.65
10.87
3.89
-3.43
-10.23
-15.97
-20.73
-25.15
-30.13
-36.45
-44.40
-53.58
-62.87
-70.53
-74.68
-73.78
-67.17
-55.43
-40.25
-23.92
-8.60
4.24
14.22
21.70
27.35
31.70
34.95
37.10
38.23
38.58
38.56
38.51
38.55
38.45
37.82
36.37
34.04
31.18
28.35
26.13
24.85
24.42
24.26
23.62
21.73
18.20
13.07
6.81
0.10
-6.40
-12.23
-17.26
-21.61
-25.68
-29.98
-35.09
-41.41
-48.98
-57.15
-64.64
-69.74
-70.73
-66.53
-57.11
-43.62
-28.02
-12.50
1.18
12.05
19.97
25.45
29.16
31.65
33.25
34.03
34.00
33.21
31.82
30.05
28.17
26.39
24.82
23.52
22.47
21.59
20.76
19.79
18.43
16.42
13.55
9.79
5.25
0.25
-4.88
-9.86
-14.69
-19.65
-25.22
-31.84
-39.52
-47.65
-54.91
-59.57
-59.94
-55.06
-45.04
-31.12
-15.36
0.06
13.35
23.56
30.54
34.73
36.79
37.35
36.88
35.73
34.25
32.74
31.37
30.13
28.80
27.10
24.86
22.16
19.35
16.83
14.83
13.26
11.72
9.64
6.55
2.27
-3.01
-8.83
-14.64
-19.99
-24.81
-29.37
-34.33
-40.42
-48.11
-57.16
-66.47
-74.19
-78.18
-76.75
-69.21
-56.23
-39.60
-21.73
-4.95
9.02
19.42
26.35
30.49
32.78
34.03
34.80
35.38
35.77
35.91
35.62
34.79
33.37
31.38
29.01
26.54
24.28
22.40
20.88
19.39
17.51
14.81
11.08
6.36
0.95
-4.70
-10.23
-15.37
-20.15
-24.84
-29.98
-36.14
-43.62
-52.16
-60.72
-67.58
-70.80
-68.85
-61.17
-48.48
-32.56
-15.73
-0.20
12.55
21.95
28.24
32.15
34.48
35.87
36.72
37.21
37.34
37.08
36.33
35.04
33.26
31.11
28.88
26.83
25.13
23.71
22.27
20.41
17.81
14.35
10.15
5.50
0.71
-4.00
-8.59
-13.15
-18.03
-23.67
-30.51
-38.64
-47.58
-56.05
-62.27
-64.38
-61.19
-52.58
-39.68
-24.48
-9.21
4.33
15.17
23.14
28.66
32.31
34.47
35.31
34.84
33.09
30.36
27.16
24.16
21.88
20.53
19.96
19.65
19.07
17.72
15.41
12.25
8.50
4.45
0.28
-4.01
-8.54
-13.49
-19.03
-25.31
-32.46
-40.43
-48.84
-56.80
-62.95
-65.67
-63.66
-56.42
-44.47
-29.31
-12.88
2.99
16.99
28.58
37.79
45.02
50.65
54.91
57.71
58.77
57.89
55.12
50.92
46.05
41.39
37.58
34.90
33.22
32.23
31.42
30.26
28.08
24.27
18.40
10.47
1.13
-8.60
-17.57
-25.07
-31.05
-36.23
-41.71
-48.54
-57.10
-66.76
-75.86
-82.06
-82.98
-77.00
-63.91
-45.14
-23.45
-2.06
16.26
29.98
38.95
44.17
47.06
48.85
50.18
51.14
51.57
51.34
50.52
49.32
47.91
46.27
44.25
41.71
38.72
35.55
32.62
30.14
28.05
25.89
23.01
18.91
13.38
6.65
-0.70
-7.96
-14.58
-20.36
-25.58
-30.85
-36.98
-44.49
-53.36
-62.72
-70.90
-75.83
-75.64
-69.38
-57.42
-41.37
-23.61
-6.49
8.34
20.18
29.16
35.76
40.44
43.42
44.81
44.81
43.84
42.49
41.26
40.34
39.57
38.57
37.03
34.96
32.70
30.74
29.39
28.58
27.80
26.38
23.74
19.71
14.56
8.83
3.12
-2.17
-6.94
-11.34
-15.69
-20.46
-26.08
-32.78
-40.33
-47.87
-53.92
-56.71
-54.85
-47.86
-36.47
-22.41
-7.85
5.31
15.94
23.78
29.23
32.92
35.34
36.69
36.99
36.24
34.53
32.11
29.29
26.37
23.51
20.85
18.49
16.50
14.94
13.66
12.38
10.64
8.07
4.50
0.12
-4.65
-9.33
-13.68
-17.81
-22.10
-27.09
-33.13
-40.18
-47.61
-54.28
-58.68
-59.39
-55.51
-46.95
-34.61
-20.09
-5.33
7.96
18.64
26.41
31.55
34.79
36.84
38.22
39.08
39.32
38.68
36.96
34.15
30.46
26.25
21.96
18.00
14.64
12.04
10.16
8.85
7.75
6.46
4.56
1.75
-2.05
-6.73
-12.09
-17.87
-23.86
-30.01
-36.36
-43.08
-50.22
-57.50
-64.07
-68.57
-69.38
-65.27
-55.87
-42.09
-25.84
-9.55
4.69
15.64
23.07
27.52
29.79
30.64
30.54
29.81
28.66
27.28
25.80
24.34
22.94
21.68
20.62
19.89
19.52
19.42
19.42
19.26
18.75
17.74
16.16
13.87
10.76
6.70
1.71
-4.04
-10.26
-16.63
-23.06
-29.70
-36.93
-45.07
-54.09
-63.24
-71.11
-75.83
-75.75
-70.03
-59.10
-44.59
-28.74
-13.72
-0.98
8.90
16.11
21.16
24.56
26.69
27.81
28.14
27.88
27.18
26.14
24.72
22.88
20.62
18.09
15.55
13.27
11.48
10.20
9.30
8.42
7.20
5.32
2.60
-0.97
-5.27
-10.05
-14.98
-19.80
-24.41
-29.02
-34.00
-39.68
-45.92
-51.91
-56.18
-57.12
-53.58
-45.35
-33.31
-19.13
-4.74
8.18
18.60
26.12
30.94
33.54
34.55
34.45
33.57
32.06
30.01
27.62
25.21
23.14
21.64
20.65
19.79
18.53
16.36
13.12
8.98
4.43
0.09
-3.56
-6.33
-8.39
-10.16
-12.23
-15.10
-19.10
-24.31
-30.56
-37.34
-43.79
-48.67
-50.66
-48.68
-42.31
-32.07
-19.30
-5.83
6.58
16.75
24.16
28.89
31.35
32.01
31.28
29.46
26.84
23.68
20.29
17.00
14.12
11.93
10.54
9.91
9.79
9.84
9.63
8.76
6.95
4.04
0.12
-4.49
-9.24
-13.52
-16.89
-19.33
-21.32
-23.68
-27.29
-32.56
-39.21
-46.16
-51.82
-54.47
-52.87
-46.57
-36.08
-22.69
-8.11
5.95
18.15
27.71
34.42
38.58
40.75
41.63
41.82
41.72
41.36
40.53
38.91
36.41
33.22
29.86
26.92
24.82
23.68
23.29
23.21
22.94
21.92
19.68
15.93
10.70
4.39
-2.27
-8.50
-13.71
-17.73
-20.79
-23.45
-26.45
-30.51
-36.16
-43.46
-51.65
-59.18
-63.93
-63.95
-58.19
-46.96
-31.88
-15.29
0.55
13.96
24.15
31.04
35.05
36.87
37.22
36.74
35.87
34.85
33.69
32.36
30.88
29.35
27.83
26.33
24.76
23.01
21.03
18.91
16.70
14.37
11.73
8.54
4.73
0.46
-3.94
-8.10
-11.84
-15.27
-18.77
-22.81
-27.78
-33.67
-40.01
-45.76
-49.55
-50.05
-46.42
-38.59
-27.44
-14.47
-1.43
10.27
19.79
26.88
31.64
34.33
35.23
34.67
33.13
31.27
29.72
28.87
28.78
29.06
29.19
28.73
27.54
25.78
23.80
21.84
19.94
17.90
15.45
12.31
8.40
3.80
-1.32
-6.62
-11.80
-16.53
-20.65
-24.18
-27.48
-31.07
-35.53
-41.18
-47.74
-54.27
-59.27
-61.13
-58.64
-51.48
-40.34
-26.72
-12.45
0.85
12.13
21.01
27.67
32.55
36.05
38.41
39.74
40.08
39.48
38.05
36.02
33.71
31.46
29.56
28.21
27.40
26.94
26.59
26.09
25.33
24.23
22.72
20.67
17.82
13.91
8.86
2.90
-3.42
-9.43
-14.58
-18.61
-21.68
-24.17
-26.65
-29.62
-33.49
-38.44
-44.40
-50.93
-57.12
-61.67
-63.14
-60.43
-53.17
-42.01
-28.51
-14.61
-2.08
8.09
15.73
21.32
25.45
28.51
30.54
31.41
31.13
29.95
28.24
26.39
24.54
22.65
20.60
18.43
16.38
14.88
14.19
14.33
14.93
15.40
15.04
13.40
10.34
6.14
1.42
-3.09
-6.74
-9.24
-10.66
-11.51
-12.52
-14.51
-18.12
-23.61
-30.68
-38.41
-45.31
-49.65
-49.97
-45.55
-36.74
-24.86
-11.74
0.84
11.62
20.01
25.89
29.41
30.67
29.90
27.49
24.15
20.75
18.10
16.55
15.93
15.73
15.37
14.56
13.45
12.36
11.57
11.05
10.40
9.09
6.67
3.02
-1.62
-6.81
-12.07
-17.01
-21.32
-24.87
-27.64
-29.83
-31.93
-34.61
-38.44
-43.54
-49.23
-54.13
-56.49
-54.83
-48.57
-38.25
-25.34
-11.72
0.89
11.38
19.31
24.76
28.06
29.50
29.32
27.80
25.38
22.68
20.38
18.93
18.40
18.43
18.49
18.11
17.12
15.67
14.02
12.40
10.86
9.17
7.08
4.36
0.96
-2.98
-7.16
-11.17
-14.66
-17.45
-19.71
-21.80
-24.24
-27.49
-31.82
-37.21
-43.33
-49.38
-54.23
-56.57
-55.22
-49.73
-40.48
-28.73
-16.09
-4.06
6.42
14.98
21.62
26.40
29.34
30.43
29.89
28.11
25.63
23.03
20.74
19.01
17.89
17.33
17.13
17.05
16.85
16.34
15.45
14.17
12.56
10.59
8.17
5.15
1.50
-2.69
-7.07
-11.19
-14.63
-17.24
-19.29
-21.48
-24.75
-29.83
-36.87
-45.12
-53.05
-58.78
-60.62
-57.64
-49.98
-38.65
-25.26
-11.53
1.09
11.62
19.54
24.79
27.58
28.34
27.59
25.91
23.81
21.68
19.78
18.20
16.98
16.01
15.22
14.50
13.81
13.08
12.18
10.90
9.03
6.39
3.01
-0.89
-4.99
-8.99
-12.81
-16.57
-20.56
-25.11
-30.42
-36.40
-42.66
-48.47
-52.75
-54.36
-52.25
-45.91
-35.59
-22.49
-8.36
4.87
15.70
23.43
28.20
30.65
31.51
31.31
30.27
28.45
25.98
23.14
20.35
17.98
16.26
15.18
14.66
14.56
14.81
15.22
15.47
15.06
13.45
10.31
5.70
0.07
-5.86
-11.42
-16.16
-20.08
-23.46
-26.88
-30.98
-36.30
-43.04
-50.84
-58.66
-64.92
-67.85
-65.97
-58.73
-46.66
-31.33
-14.87
0.63
13.67
23.56
30.37
34.65
37.05
38.11
38.19
37.53
36.39
35.04
33.79
32.77
31.91
30.98
29.74
28.18
26.52
25.11
24.17
23.63
22.95
21.39
18.31
13.47
7.21
0.30
-6.30
-11.86
-16.13
-19.36
-22.27
-25.72
-30.45
-36.78
-44.37
-52.17
-58.60
-61.89
-60.65
-54.21
-42.98
-28.30
-12.12
3.52
16.92
27.12
33.89
37.65
39.18
39.35
38.81
37.99
37.00
35.81
34.39
32.77
31.13
29.64
28.36
27.20
25.97
24.49
22.69
20.61
18.34
15.86
13.03
9.68
5.66
1.01
-4.12
-9.55
-15.22
-21.29
-28.00
-35.34
-42.81
-49.34
-53.49
-53.87
-49.66
-40.86
-28.38
-13.79
1.14
14.80
26.07
34.47
40.02
43.10
44.17
43.68
41.97
39.38
36.18
32.72
29.34
26.35
23.97
22.33
21.42
21.08
21.00
20.78
19.94
18.10
15.02
10.71
5.39
-0.57
-6.73
-12.70
-18.24
-23.34
-28.25
-33.56
-39.92
-47.67
-56.46
-65.02
-71.34
-73.31
-69.47
-59.61
-44.97
-27.74
-10.35
5.25
17.98
27.62
34.46
38.98
41.62
42.80
42.94
42.46
41.72
40.87
39.85
38.48
36.57
34.13
31.33
28.49
25.98
24.00
22.54
21.36
20.02
17.99
14.80
10.18
4.21
-2.68
-9.83
-16.62
-22.72
-28.30
-33.98
-40.55
-48.49
-57.47
-66.25
-72.89
-75.42
-72.50
-64.00
-50.97
-35.24
-18.88
-3.53
9.76
20.60
29.01
35.26
39.67
42.65
44.58
45.74
46.28
46.13
45.24
43.59
41.44
39.15
37.14
35.63
34.57
33.65
32.44
30.49
27.48
23.23
17.80
11.41
4.50
-2.44
-8.98
-14.99
-20.75
-26.92
-34.38
-43.76
-55.02
-67.03
-77.55
-83.73
-83.10
-74.53
-58.90
-38.89
-18.07
0.38
14.68
24.65
31.25
35.69
38.76
40.60
41.05
40.10
38.08
35.58
33.15
31.03
29.17
27.30
25.12
22.47
19.33
15.87
12.33
8.99
6.00
3.33
0.76
-2.08
-5.52
-9.77
-14.95
-21.19
-28.59
-37.09
-46.11
-54.38
-60.00
-61.01
-56.11
-45.29
-29.87
-12.17
5.32
20.63
32.65
41.15
46.49
49.27
50.12
49.58
48.13
46.11
43.80
41.39
39.01
36.79
34.88
33.38
32.34
31.57
30.70
29.20
26.63
22.75
17.61
11.43
4.55
-2.79
-10.45
-18.40
-26.62
-35.11
-43.90
-53.01
-62.22
-70.84
-77.60
-80.86
-79.11
-71.65
-58.98
-42.78
-25.32
-8.75
5.49
16.90
25.67
32.27
37.13
40.45
42.37
43.01
42.61
41.46
39.84
38.00
36.09
34.19
32.34
30.58
28.89
27.16
25.17
22.67
19.46
15.47
10.83
5.76
0.48
-4.95
-10.60
-16.60
-23.17
-30.44
-38.45
-47.04
-55.66
-63.27
-68.35
-69.31
-65.03
-55.37
-41.43
-25.26
-9.15
5.06
16.57
25.54
32.72
38.85
44.27
48.80
51.90
53.04
52.05
49.22
45.24
41.05
37.43
34.84
33.23
32.15
31.04
29.43
27.08
24.02
20.39
16.32
11.86
6.92
1.45
-4.56
-11.05
-17.96
-25.26
-32.91
-40.69
-47.87
-53.22
-55.18
-52.40
-44.42
-32.01
-17.04
-1.94
11.19
21.21
28.11
32.66
35.84
38.27
40.03
40.85
40.45
38.80
36.25
33.35
30.64
28.46
26.81
25.39
23.77
21.55
18.56
14.95
11.04
7.18
3.50
-0.17
-4.19
-8.92
-14.58
-21.21
-28.67
-36.72
-44.91
-52.43
-58.11
-60.57
-58.58
-51.62
-40.14
-25.56
-9.88
4.90
17.28
26.60
32.96
36.92
39.17
40.23
40.37
39.64
38.07
35.86
33.33
30.91
28.91
27.47
26.51
25.81
25.08
24.05
22.43
20.01
16.66
12.42
7.49
2.22
-3.06
-8.17
-13.16
-18.31
-24.07
-30.83
-38.73
-47.42
-55.99
-62.96
-66.67
-65.72
-59.55
-48.60
-34.37
-18.82
-3.95
8.85
18.96
26.45
31.82
35.61
38.20
39.77
40.35
39.99
38.84
37.10
35.02
32.77
30.47
28.19
25.98
23.97
22.27
20.83
19.47
17.85
15.55
12.26
7.92
2.75
-2.82
-8.25
-13.19
-17.52
-21.50
-25.72
-30.87
-37.32
-44.84
-52.38
-58.29
-60.81
-58.70
-51.71
-40.72
-27.41
-13.72
-1.25
9.04
16.89
22.52
26.32
28.66
29.81
29.91
29.12
27.56
25.43
22.98
20.49
18.19
16.25
14.70
13.45
12.36
11.24
9.92
8.27
6.22
3.73
0.80
-2.52
-6.22
-10.21
-14.55
-19.38
-24.90
-31.16
-37.86
-44.22
-48.99
-50.76
-48.48
-41.85
-31.57
-19.09
-6.24
5.41
14.82
21.65
26.03
28.33
28.96
28.30
26.73
24.63
22.41
20.35
18.56
17.00
15.50
13.87
12.07
10.15
8.21
6.33
4.52
2.68
0.61
-1.88
-4.95
-8.62
-12.84
-17.46
-22.31
-27.32
-32.51
-37.99
-43.88
-50.09
-56.12
-60.98
-63.40
-62.14
-56.57
-46.93
-34.42
-20.79
-7.82
3.25
11.96
18.53
23.42
27.04
29.54
30.94
31.33
30.98
30.34
29.81
29.57
29.52
29.36
28.78
27.67
26.12
24.40
22.73
21.10
19.28
16.90
13.73
9.79
5.43
1.19
-2.51
-5.54
-8.20
-11.07
-14.82
-20.00
-26.78
-34.84
-43.27
-50.59
-55.04
-55.09
-49.97
-40.08
-26.95
-12.77
0.35
10.96
18.62
23.64
26.76
28.69
29.89
30.50
30.53
29.94
28.73
26.98
24.86
22.60
20.46
18.60
17.04
15.66
14.26
12.68
10.83
8.76
6.52
4.15
1.59
-1.23
-4.39
-7.93
-11.83
-16.13
-20.88
-26.17
-31.95
-37.87
-43.15
-46.65
-47.17
-43.85
-36.60
-26.16
-13.95
-1.70
9.16
17.73
23.77
27.49
29.29
29.54
28.51
26.41
23.50
20.15
16.79
13.86
11.71
10.53
10.27
10.67
11.23
11.38
10.64
8.75
5.77
1.97
-2.25
-6.55
-10.74
-14.77
-18.73
-22.83
-27.33
-32.44
-38.20
-44.25
-49.69
-53.25
-53.63
-50.01
-42.41
-31.74
-19.52
-7.31
3.67
12.76
19.80
24.93
28.31
30.15
30.63
30.07
28.87
27.50
26.24
25.15
24.12
22.92
21.41
19.63
17.69
15.71
13.72
11.59
9.19
6.46
3.36
-0.08
-3.84
-7.92
-12.28
-16.84
-21.49
-26.15
-30.96
-36.20
-42.07
-48.37
-54.31
-58.51
-59.50
-56.21
-48.49
-37.24
-24.11
-10.95
0.72
10.08
17.12
22.23
26.00
28.80
30.77
31.88
32.06
31.34
29.88
27.97
25.84
23.66
21.53
19.48
17.57
15.85
14.37
13.08
11.82
10.27
8.10
4.99
0.88
-3.99
-9.13
-13.90
-17.95
-21.32
-24.56
-28.45
-33.62
-40.11
-47.11
-53.19
-56.65
-56.15
-51.07
-41.74
-29.37
-15.69
-2.54
8.57
16.73
21.84
24.37
25.12
24.85
24.07
23.00
21.73
20.26
18.72
17.27
16.02
14.95
13.89
12.59
10.84
8.57
5.88
3.01
0.26
-2.19
-4.35
-6.49
-8.95
-12.11
-16.20
-21.29
-27.31
-34.01
-40.85
-46.88
-50.76
-51.16
-47.24
-39.07
-27.71
-14.89
-2.40
8.40
16.91
23.08
27.17
29.52
30.40
30.12
29.02
27.47
25.73
23.92
22.01
19.96
17.87
15.91
14.34
13.30
12.74
12.33
11.60
10.09
7.47
3.63
-1.24
-6.75
-12.38
-17.73
-22.56
-26.98
-31.40
-36.41
-42.42
-49.31
-56.19
-61.50
-63.48
-60.76
-53.00
-41.03
-26.57
-11.65
2.00
13.40
22.27
28.79
33.34
36.21
37.60
37.70
36.77
35.16
33.27
31.45
29.93
28.69
27.57
26.35
24.88
23.21
21.48
19.84
18.17
16.10
13.15
9.00
3.76
-2.08
-7.86
-13.05
-17.55
-21.61
-25.75
-30.46
-36.08
-42.63
-49.77
-56.65
-61.97
-64.22
-62.09
-55.02
-43.51
-29.10
-13.81
0.37
12.16
21.05
27.24
31.29
33.76
35.07
35.41
34.96
33.82
32.14
30.11
27.92
25.73
23.73
22.03
20.79
20.06
19.80
19.74
19.47
18.46
16.29
12.83
8.24
2.94
-2.59
-7.93
-12.86
-17.37
-21.71
-26.26
-31.49
-37.58
-44.23
-50.44
-54.65
-55.26
-51.22
-42.48
-30.11
-15.89
-1.73
10.82
20.92
28.39
33.43
36.39
37.62
37.35
35.82
33.25
29.97
26.41
23.02
20.22
18.28
17.24
16.87
16.73
16.33
15.28
13.35
10.51
6.95
2.92
-1.34
-5.69
-10.15
-14.90
-20.27
-26.53
-33.78
-41.70
-49.43
-55.70
-59.04
-58.27
-52.85
-43.11
-30.20
-15.79
-1.57
11.07
21.31
28.91
34.05
37.13
38.60
38.86
38.23
36.99
35.38
33.61
31.80
29.98
28.16
26.38
24.74
23.38
22.42
21.78
21.15
19.97
17.70
13.94
8.65
2.20
-4.80
-11.68
-17.96
-23.47
-28.40
-33.26
-38.68
-45.09
-52.42
-59.87
-65.93
-68.78
-66.86
-59.49
-47.21
-31.66
-15.11
0.36
13.31
23.21
30.22
34.86
37.71
39.20
39.76
39.73
39.43
39.05
38.64
38.05
37.10
35.66
33.77
31.59
29.40
27.41
25.70
24.17
22.51
20.34
17.33
13.32
8.42
2.93
-2.73
-8.20
-13.32
-18.15
-22.96
-28.22
-34.36
-41.60
-49.62
-57.40
-63.34
-65.63
-62.95
-54.94
-42.49
-27.43
-12.00
1.93
13.17
21.40
26.89
30.20
31.87
32.38
32.07
31.27
30.23
29.16
28.14
27.19
26.28
25.35
24.36
23.30
22.16
20.89
19.42
17.66
15.56
13.09
10.28
7.18
3.80
0.09
-4.08
-8.87
-14.43
-20.90
-28.22
-36.04
-43.54
-49.48
-52.42
-51.13
-45.08
-34.72
-21.39
-6.93
6.84
18.56
27.58
33.77
37.36
38.73
38.29
36.44
33.70
30.58
27.56
25.02
23.11
21.82
20.97
20.28
19.42
18.14
16.22
13.60
10.31
6.50
2.39
-1.80
-5.90
-9.88
-13.81
-17.91
-22.44
-27.72
-34.08
-41.62
-50.07
-58.51
-65.38
-68.86
-67.42
-60.44
-48.48
-33.18
-16.64
-0.83
12.85
23.71
31.56
36.52
38.92
39.29
38.29
36.62
34.88
33.36
32.07
30.84
29.48
27.94
26.36
24.92
23.83
23.09
22.47
21.53
19.69
16.51
11.86
6.04
-0.34
-6.60
-12.24
-17.19
-21.70
-26.33
-31.64
-38.08
-45.74
-54.16
-62.23
-68.32
-70.64
-67.83
-59.48
-46.38
-30.33
-13.51
2.11
15.28
25.52
32.88
37.71
40.40
41.39
41.17
40.27
39.17
38.17
37.33
36.46
35.31
33.70
31.62
29.28
26.95
24.87
23.06
21.35
19.36
16.68
13.08
8.62
3.57
-1.61
-6.48
-10.82
-14.69
-18.51
-22.91
-28.54
-35.77
-44.37
-53.30
-60.90
-65.23
-64.72
-58.75
-47.92
-33.85
-18.69
-4.42
7.65
17.01
23.84
28.65
31.89
33.83
34.47
33.76
31.81
28.95
25.78
22.96
20.99
20.05
19.90
20.06
19.98
19.21
17.55
15.01
11.75
8.00
3.99
-0.08
-4.09
-8.02
-12.01
-16.38
-21.51
-27.72
-34.93
-42.52
-49.28
-53.66
-54.22
-50.09
-41.40
-29.19
-15.19
-1.21
11.24
21.28
28.60
33.30
35.72
36.25
35.35
33.51
31.24
29.05
27.29
26.11
25.43
25.01
24.59
23.95
23.02
21.84
20.40
18.56
16.06
12.55
7.86
2.11
-4.23
-10.53
-16.26
-21.21
-25.63
-30.08
-35.31
-41.90
-49.94
-58.78
-67.02
-72.76
-74.14
-69.98
-60.27
-46.25
-29.99
-13.74
0.76
12.61
21.72
28.51
33.46
36.92
39.09
40.14
40.34
40.02
39.50
38.88
38.06
36.83
35.00
32.70
30.27
28.19
26.76
25.90
25.09
23.56
20.67
16.14
10.26
3.72
-2.68
-8.33
-12.97
-16.79
-20.23
-23.93
-28.51
-34.43
-41.74
-49.96
-57.87
-63.78
-65.90
-62.96
-54.66
-41.85
-26.35
-10.29
4.40
16.54
25.76
32.31
36.71
39.45
40.88
41.16
40.45
39.01
37.13
35.16
33.32
31.65
30.10
28.54
26.96
25.47
24.22
23.26
22.38
21.14
19.01
15.58
10.84
5.12
-0.94
-6.71
-11.74
-15.93
-19.57
-23.19
-27.48
-32.94
-39.70
-47.25
-54.39
-59.44
-60.71
-57.05
-48.37
-35.70
-20.86
-5.91
7.46
18.22
26.11
31.33
34.34
35.54
35.27
33.83
31.52
28.69
25.70
22.91
20.56
18.78
17.55
16.68
15.86
14.78
13.25
11.17
8.62
5.67
2.39
-1.22
-5.21
-9.57
-14.30
-19.42
-25.02
-31.30
-38.33
-45.79
-52.74
-57.69
-59.02
-55.57
-47.15
-34.75
-20.21
-5.61
7.23
17.35
24.53
29.17
31.92
33.42
34.13
34.31
34.02
33.25
31.96
30.15
27.96
25.63
23.40
21.49
19.96
18.76
17.69
16.45
14.70
12.14
8.58
4.07
-1.10
-6.46
-11.54
-16.10
-20.20
-24.26
-28.85
-34.55
-41.71
-50.12
-58.88
-66.37
-70.61
-69.81
-63.11
-50.95
-35.08
-17.98
-2.11
10.82
20.13
26.10
29.55
31.45
32.59
33.53
34.53
35.58
36.49
36.97
36.83
36.00
34.52
32.54
30.25
27.83
25.44
23.19
21.01
18.71
15.95
12.50
8.27
3.49
-1.54
-6.46
-11.12
-15.64
-20.36
-25.75
-32.21
-39.81
-48.02
-55.69
-61.14
-62.69
-59.29
-51.00
-39.01
-25.20
-11.55
0.53
10.42
18.18
24.18
28.76
32.05
34.02
34.58
33.80
31.91
29.38
26.70
24.41
22.82
21.93
21.44
20.84
19.67
17.70
14.96
11.69
8.16
4.54
0.86
-2.93
-6.86
-10.94
-15.22
-19.89
-25.25
-31.47
-38.37
-45.09
-50.21
-52.06
-49.37
-41.72
-29.85
-15.42
-0.47
13.20
24.42
32.79
38.47
41.81
43.21
42.99
41.53
39.23
36.58
34.00
31.76
29.92
28.37
26.95
25.54
24.00
22.19
19.95
17.08
13.44
9.01
3.91
-1.60
-7.17
-12.46
-17.24
-21.45
-25.34
-29.39
-34.18
-40.17
-47.31
-54.94
-61.76
-66.10
-66.43
-61.88
-52.56
-39.59
-24.78
-10.05
3.05
13.72
21.87
27.94
32.51
36.05
38.80
40.79
41.98
42.30
41.77
40.51
38.64
36.34
33.80
31.25
28.95
27.14
25.87
24.99
24.05
22.46
19.63
15.26
9.46
2.74
-4.09
-10.26
-15.27
-19.06
-22.08
-25.10
-29.02
-34.45
-41.42
-49.12
-56.02
-60.22
-60.11
-54.89
-44.84
-31.30
-16.19
-1.47
11.35
21.39
28.48
32.96
35.46
36.65
37.11
37.18
36.99
36.56
35.88
34.96
33.85
32.52
30.85
28.78
26.35
23.81
21.53
19.75
18.42
17.10
15.17
12.12
7.80
2.51
-3.15
-8.55
-13.23
-17.14
-20.58
-24.07
-28.21
-33.31
-39.27
-45.30
-50.09
-52.19
-50.46
-44.57
-35.08
-23.27
-10.72
1.17
11.45
19.64
25.65
29.59
31.67
32.08
31.09
28.95
26.03
22.73
19.52
16.83
14.99
14.04
13.83
13.92
13.86
13.22
11.80
9.53
6.57
3.14
-0.57
-4.36
-8.14
-11.86
-15.55
-19.31
-23.38
-28.10
-33.80
-40.49
-47.64
-54.06
-58.06
-58.07
-53.22
-43.75
-30.99
-16.90
-3.37
8.24
17.37
24.09
28.77
31.78
33.40
33.87
33.45
32.51
31.43
30.45
29.64
28.80
27.64
25.89
23.57
20.99
18.59
16.78
15.60
14.74
13.61
11.65
8.54
4.23
-1.04
-6.89
-12.85
-18.56
-23.66
-28.08
-31.98
-35.83
-40.13
-45.12
-50.42
-55.04
-57.60
-56.79
-51.94
-43.26
-31.78
-19.04
-6.55
4.55
13.67
20.75
25.99
29.64
31.81
32.60
32.17
30.82
29.01
27.22
25.75
24.66
23.76
22.79
21.56
20.05
18.39
16.80
15.46
14.36
13.30
11.92
9.83
6.74
2.64
-2.17
-7.18
-11.96
-16.30
-20.25
-24.13
-28.32
-33.12
-38.60
-44.53
-50.23
-54.67
-56.63
-55.04
-49.45
-40.32
-28.90
-16.86
-5.74
3.58
10.95
16.73
21.33
24.94
27.43
28.55
28.11
26.16
23.09
19.47
15.93
13.04
11.13
10.27
10.28
10.77
11.30
11.46
10.88
9.37
6.90
3.59
-0.32
-4.46
-8.55
-12.45
-16.29
-20.34
-24.94
-30.23
-35.98
-41.53
-45.79
-47.55
-45.79
-40.02
-30.56
-18.58
-5.70
6.36
16.37
23.70
28.39
30.81
31.45
30.80
29.27
27.33
25.39
23.79
22.61
21.75
20.94
19.97
18.71
17.20
15.57
13.96
12.39
10.79
8.96
6.66
3.68
-0.05
-4.39
-9.06
-13.78
-18.36
-22.79
-27.21
-31.85
-36.94
-42.55
-48.49
-54.16
-58.50
-60.24
-58.22
-51.98
-42.01
-29.66
-16.70
-4.69
5.50
13.77
20.47
26.02
30.56
33.94
35.97
36.58
36.00
34.73
33.26
31.93
30.78
29.64
28.22
26.43
24.39
22.40
20.77
19.57
18.53
17.18
15.04
11.80
7.51
2.46
-2.91
-8.15
-12.90
-16.95
-20.26
-23.10
-26.01
-29.63
-34.50
-40.69
-47.63
-54.08
-58.53
-59.56
-56.34
-48.88
-37.98
-25.11
-11.96
-0.04
9.65
16.79
21.68
24.94
27.20
28.87
30.00
30.42
30.00
28.74
26.92
24.93
23.15
21.77
20.82
20.22
19.86
19.62
19.35
18.88
17.89
16.05
13.08
8.94
3.88
-1.57
-6.75
-11.17
-14.61
-17.31
-19.82
-22.83
-26.85
-31.93
-37.46
-42.29
-44.89
-43.99
-38.89
-29.89
-18.19
-5.57
6.17
15.69
22.44
26.58
28.65
29.30
28.94
27.80
25.93
23.49
20.75
18.14
16.07
14.79
14.28
14.29
14.43
14.36
13.85
12.75
11.01
8.57
5.36
1.42
-3.09
-7.85
-12.49
-16.76
-20.60
-24.30
-28.29
-33.06
-38.76
-45.05
-50.96
-55.10
-56.05
-52.89
-45.51
-34.79
-22.23
-9.50
2.02
11.63
19.20
24.94
29.12
31.88
33.25
33.35
32.39
30.78
28.95
27.25
25.86
24.72
23.70
22.61
21.37
20.02
18.72
17.63
16.73
15.80
14.39
12.05
8.50
3.89
-1.33
-6.50
-11.09
-14.89
-18.05
-21.03
-24.43
-28.81
-34.50
-41.41
-48.86
-55.57
-59.87
-60.26
-55.94
-47.13
-35.03
-21.48
-8.25
3.32
12.64
19.69
24.80
28.39
30.80
32.28
33.00
33.10
32.74
32.10
31.36
30.64
29.91
29.02
27.78
26.17
24.37
22.74
21.61
21.02
20.62
19.77
17.78
14.24
9.19
3.11
-3.23
-9.08
-13.85
-17.35
-19.76
-21.65
-23.82
-27.09
-32.00
-38.57
-46.09
-53.24
-58.33
-59.78
-56.61
-48.78
-37.25
-23.64
-9.80
2.68
12.79
20.19
25.01
27.68
28.69
28.49
27.49
26.06
24.49
23.03
21.84
20.99
20.52
20.33
20.26
20.05
19.43
18.20
16.26
13.69
10.65
7.35
3.94
0.48
-3.00
-6.51
-10.08
-13.77
-17.75
-22.31
-27.71
-33.99
-40.66
-46.68
-50.60
-50.98
-46.94
-38.54
-26.83
-13.54
-0.57
10.64
19.39
25.68
29.94
32.69
34.20
34.58
33.85
32.14
29.77
27.24
25.00
23.32
22.17
21.34
20.53
19.60
18.53
17.41
16.27
14.96
13.15
10.46
6.66
1.86
-3.53
-8.87
-13.62
-17.51
-20.71
-23.72
-27.23
-31.85
-37.89
-45.14
-52.75
-59.31
-63.10
-62.66
-57.31
-47.36
-34.18
-19.68
-5.81
6.01
15.12
21.57
25.84
28.56
30.29
31.38
32.04
32.32
32.23
31.78
31.05
30.13
29.04
27.79
26.37
24.82
23.30
22.00
21.01
20.23
19.26
17.60
14.82
10.75
5.61
-0.11
-5.78
-10.90
-15.26
-19.00
-22.58
-26.64
-31.75
-38.11
-45.29
-52.17
-57.18
-58.71
-55.68
-47.97
-36.46
-22.75
-8.71
4.08
14.62
22.53
27.91
31.08
32.47
32.47
31.47
29.84
27.90
25.91
24.03
22.36
20.95
19.76
18.75
17.78
16.69
15.30
13.48
11.21
8.55
5.70
2.83
0.04
-2.68
-5.50
-8.66
-12.46
-17.17
-22.92
-29.60
-36.68
-43.13
-47.59
-48.65
-45.39
-37.75
-26.67
-13.89
-1.35
9.39
17.53
23.12
26.66
28.80
29.91
30.09
29.30
27.60
25.23
22.65
20.33
18.54
17.30
16.41
15.53
14.37
12.75
10.61
8.02
5.05
1.79
-1.74
-5.57
-9.74
-14.26
-19.16
-24.48
-30.31
-36.71
-43.55
-50.26
-55.71
-58.51
-57.34
-51.59
-41.67
-28.90
-15.12
-2.11
8.95
17.59
23.92
28.34
31.24
32.93
33.62
33.50
32.75
31.58
30.20
28.78
27.42
26.20
25.09
24.02
22.92
21.68
20.20
18.31
15.83
12.61
8.61
3.96
-1.05
-6.06
-10.79
-15.21
-19.54
-24.25
-29.85
-36.58
-44.20
-51.80
-57.97
-61.06
-59.79
-53.61
-43.04
-29.46
-14.76
-0.75
11.25
20.61
27.35
31.85
34.69
36.39
37.35
37.81
37.88
37.56
36.81
35.66
34.18
32.48
30.68
28.88
27.13
25.47
23.85
22.11
19.99
17.18
13.42
8.69
3.23
-2.49
-8.00
-12.96
-17.37
-21.59
-26.16
-31.66
-38.23
-45.46
-52.17
-56.72
-57.53
-53.66
-45.20
-33.34
-19.90
-6.67
5.05
14.71
22.32
28.12
32.32
35.03
36.29
36.25
35.13
33.27
31.01
28.64
26.42
24.57
23.21
22.35
21.87
21.50
20.90
19.65
17.46
14.22
10.01
5.16
0.07
-4.87
-9.45
-13.77
-18.10
-22.84
-28.26
-34.28
-40.34
-45.41
-48.22
-47.62
-42.99
-34.46
-23.02
-10.16
2.46
13.54
22.34
28.72
32.92
35.33
36.33
36.23
35.40
34.15
32.82
31.56
30.31
28.86
26.97
24.58
21.91
19.34
17.26
15.77
14.66
13.44
11.52
8.50
4.33
-0.74
-6.26
-11.76
-16.93
-21.73
-26.33
-31.10
-36.38
-42.38
-48.90
-55.28
-60.35
-62.78
-61.41
-55.74
-46.10
-33.66
-20.00
-6.68
5.23
15.21
23.29
29.71
34.70
38.36
40.68
41.63
41.29
39.98
38.15
36.27
34.71
33.61
32.83
32.10
31.17
29.93
28.44
26.84
25.14
23.18
20.60
16.97
12.11
6.23
-0.09
-6.06
-11.05
-14.74
-17.34
-19.44
-21.83
-25.26
-30.21
-36.83
-44.74
-53.09
-60.52
-65.42
-66.32
-62.29
-53.34
-40.52
-25.66
-10.80
2.32
12.74
20.37
25.68
29.34
31.90
33.56
34.37
34.40
33.86
33.16
32.66
32.57
32.76
32.90
32.60
31.71
30.37
28.94
27.77
26.97
26.20
24.86
22.34
18.33
13.07
7.19
1.55
-3.25
-7.00
-10.01
-12.88
-16.28
-20.72
-26.43
-33.30
-40.80
-47.85
-52.99
-54.64
-51.64
-43.73
-31.82
-17.68
-3.47
9.00
18.68
25.32
29.17
30.72
30.48
28.96
26.69
24.24
22.05
20.36
19.11
18.06
16.95
15.68
14.28
12.88
11.60
10.42
9.19
7.68
5.64
2.85
-0.75
-5.09
-9.95
-15.01
-19.98
-24.74
-29.34
-34.06
-39.25
-44.99
-50.98
-56.29
-59.57
-59.44
-55.01
-46.20
-33.91
-19.70
-5.32
7.70
18.40
26.38
31.69
34.68
35.83
35.60
34.42
32.62
30.45
28.08
25.65
23.24
20.88
18.60
16.41
14.48
13.03
12.28
12.16
12.30
11.99
10.54
7.62
3.45
-1.27
-5.72
-9.37
-12.20
-14.66
-17.50
-21.38
-26.73
-33.66
-41.80
-50.26
-57.62
-62.13
-62.23
-57.10
-47.08
-33.67
-19.01
-5.22
6.35
15.26
21.88
26.91
30.92
34.16
36.57
37.97
38.34
37.83
36.68
35.12
33.26
31.10
28.68
26.16
23.84
22.10
21.14
20.86
20.79
20.24
18.54
15.33
10.68
5.08
-0.75
-6.11
-10.63
-14.33
-17.64
-21.24
-25.75
-31.57
-38.53
-45.90
-52.39
-56.45
-56.72
-52.44
-43.79
-31.88
-18.45
-5.32
6.06
14.94
21.19
25.13
27.23
27.89
27.47
26.25
24.52
22.51
20.43
18.39
16.48
14.75
13.25
12.01
10.92
9.78
8.35
6.43
4.05
1.35
-1.43
-4.19
-7.03
-10.24
-14.20
-19.16
-25.21
-32.08
-39.20
-45.57
-50.05
-51.44
-48.95
-42.44
-32.58
-20.71
-8.43
2.87
12.32
19.65
25.03
28.80
31.21
32.39
32.37
31.18
29.04
26.27
23.32
20.57
18.25
16.34
14.60
12.70
10.39
7.58
4.43
1.16
-2.05
-5.14
-8.29
-11.70
-15.52
-19.83
-24.63
-29.99
-36.02
-42.69
-49.53
-55.53
-59.19
-59.06
-54.29
-45.10
-32.69
-18.91
-5.63
5.87
14.99
21.79
26.62
29.88
31.89
32.83
32.87
32.15
30.83
29.13
27.20
25.22
23.33
21.65
20.18
18.84
17.42
15.65
13.21
9.96
5.91
1.33
-3.46
-8.13
-12.51
-16.62
-20.67
-25.00
-29.96
-35.79
-42.39
-49.21
-55.21
-58.99
-59.17
-54.89
-46.08
-33.64
-19.18
-4.55
8.60
19.23
27.01
32.14
35.13
36.50
36.72
36.19
35.29
34.33
33.54
32.92
32.26
31.24
29.68
27.61
25.33
23.24
21.59
20.30
19.00
17.17
14.39
10.52
5.74
0.44
-4.97
-10.17
-15.05
-19.68
-24.30
-29.25
-34.85
-41.25
-48.19
-54.79
-59.66
-61.23
-58.23
-50.32
-38.29
-23.83
-8.99
4.52
15.72
24.38
30.75
35.18
37.93
39.13
38.98
37.83
36.09
34.24
32.56
31.17
30.02
29.02
28.00
26.85
25.49
23.83
21.85
19.50
16.73
13.45
9.60
5.24
0.64
-3.83
-7.82
-11.18
-14.17
-17.40
-21.65
-27.45
-34.79
-42.84
-50.13
-54.85
-55.43
-51.03
-41.85
-29.09
-14.52
-0.05
12.82
23.17
30.69
35.50
37.92
38.32
37.13
34.83
31.91
28.86
26.04
23.67
21.81
20.41
19.35
18.49
17.69
16.74
15.44
13.60
11.09
7.90
4.13
0.04
-4.15
-8.22
-12.16
-16.14
-20.52
-25.65
-31.70
-38.38
-44.85
-49.83
-51.92
-50.04
-43.83
-33.87
-21.46
-8.25
4.25
15.07
23.76
30.36
35.07
38.14
39.74
40.05
39.31
37.82
35.90
33.78
31.57
29.28
26.88
24.43
22.03
19.91
18.16
16.78
15.52
13.94
11.56
8.04
3.32
-2.31
-8.26
-13.91
-18.79
-22.80
-26.24
-29.79
-34.18
-39.91
-46.92
-54.36
-60.67
-63.98
-62.73
-56.24
-45.08
-30.83
-15.60
-1.31
10.82
20.40
27.64
32.96
36.68
38.92
39.75
39.33
38.01
36.26
34.51
33.02
31.81
30.73
29.57
28.17
26.50
24.78
23.20
21.94
20.91
19.78
18.08
15.43
11.66
6.91
1.55
-3.95
-9.24
-14.07
-18.42
-22.33
-25.96
-29.60
-33.68
-38.61
-44.60
-51.30
-57.71
-62.28
-63.38
-59.89
-51.61
-39.45
-25.06
-10.36
3.09
14.35
23.14
29.58
33.98
36.60
37.68
37.52
36.44
34.85
33.07
31.31
29.72
28.35
27.28
26.56
26.16
25.92
25.56
24.78
23.43
21.57
19.43
17.20
14.93
12.38
9.23
5.25
0.47
-4.72
-9.82
-14.37
-18.22
-21.48
-24.49
-27.68
-31.43
-36.01
-41.49
-47.63
-53.76
-58.81
-61.46
-60.57
-55.52
-46.50
-34.45
-20.86
-7.30
4.89
14.82
22.11
26.84
29.36
30.19
29.88
28.88
27.53
26.09
24.70
23.47
22.42
21.46
20.42
19.14
17.57
15.87
14.35
13.25
12.63
12.18
11.38
9.70
6.84
2.92
-1.62
-6.20
-10.38
-13.96
-17.02
-19.91
-23.08
-26.94
-31.67
-37.07
-42.39
-46.46
-47.94
-45.80
-39.73
-30.26
-18.63
-6.40
5.02
14.63
21.93
26.80
29.43
30.14
29.38
27.65
25.41
23.02
20.71
18.60
16.71
15.04
13.60
12.40
11.45
10.73
10.14
9.51
8.52
6.82
4.15
0.46
-3.98
-8.69
-13.16
-17.04
-20.31
-23.28
-26.46
-30.40
-35.48
-41.65
-48.36
-54.58
-58.90
-59.95
-56.79
-49.28
-38.18
-25.02
-11.60
0.49
10.26
17.42
22.27
25.37
27.26
28.33
28.76
28.64
28.07
27.10
25.79
24.14
22.15
19.84
17.37
15.02
13.11
11.85
11.18
10.75
10.03
8.55
6.04
2.55
-1.63
-6.11
-10.54
-14.78
-18.92
-23.20
-27.96
-33.43
-39.65
-46.28
-52.48
-57.08
-58.77
-56.56
-50.11
-39.98
-27.45
-14.13
-1.53
9.30
17.87
24.18
28.50
31.15
32.41
32.61
32.11
31.30
30.54
30.02
29.70
29.28
28.40
26.82
24.56
21.98
19.51
17.51
16.00
14.71
13.10
10.72
7.29
2.87
-2.18
-7.43
-12.47
-17.13
-21.45
-25.71
-30.29
-35.54
-41.56
-48.02
-54.10
-58.54
-60.00
-57.43
-50.55
-40.00
-27.26
-14.17
-2.34
7.25
14.39
19.47
23.08
25.73
27.66
28.86
29.21
28.68
27.33
25.45
23.46
21.78
20.67
20.10
19.82
19.33
18.27
16.42
13.86
10.80
7.45
3.92
0.21
-3.71
-7.83
-12.15
-16.76
-21.78
-27.39
-33.55
-39.81
-45.22
-48.51
-48.45
-44.31
-36.18
-24.95
-12.13
0.63
11.87
20.68
26.74
30.21
31.62
31.56
30.59
29.13
27.44
25.68
23.93
22.24
20.68
19.31
18.17
17.22
16.30
15.14
13.43
10.92
7.56
3.51
-0.85
-5.08
-8.93
-12.37
-15.65
-19.19
-23.41
-28.63
-34.97
-42.20
-49.63
-56.08
-60.04
-60.06
-55.27
-45.77
-32.75
-18.11
-3.87
8.45
18.13
25.21
30.14
33.44
35.49
36.58
36.92
36.78
36.40
35.89
35.20
34.15
32.61
30.63
28.45
26.34
24.47
22.75
20.86
18.45
15.29
11.44
7.16
2.83
-1.29
-5.08
-8.60
-12.04
-15.65
-19.79
-24.86
-31.16
-38.65
-46.68
-53.94
-58.67
-59.25
-54.76
-45.41
-32.51
-18.03
-3.94
8.43
18.51
26.46
32.62
37.33
40.65
42.53
43.04
42.41
41.11
39.68
38.50
37.71
37.16
36.57
35.68
34.35
32.61
30.67
28.74
26.94
25.21
23.23
20.60
16.96
12.24
6.71
0.91
-4.61
-9.52
-13.82
-17.76
-21.75
-26.16
-31.28
-37.24
-43.98
-51.05
-57.48
-61.86
-62.69
-58.94
-50.49
-38.35
-24.31
-10.38
1.90
11.75
19.17
24.60
28.54
31.29
32.99
33.69
33.53
32.73
31.58
30.29
28.96
27.55
26.02
24.41
22.89
21.63
20.71
19.98
19.12
17.72
15.47
12.30
8.38
4.07
-0.24
-4.28
-8.06
-11.86
-16.13
-21.35
-27.70
-34.80
-41.70
-46.98
-49.13
-47.03
-40.33
-29.64
-16.42
-2.56
10.12
20.27
27.34
31.50
33.38
33.77
33.26
32.19
30.72
28.93
26.95
24.98
23.21
21.70
20.43
19.22
17.87
16.20
14.07
11.39
8.21
4.60
0.68
-3.41
-7.55
-11.66
-15.71
-19.83
-24.31
-29.60
-36.07
-43.78
-52.10
-59.76
-65.05
-66.33
-62.59
-53.87
-41.26
-26.60
-11.92
1.13
11.66
19.55
25.29
29.53
32.79
35.25
36.90
37.64
37.51
36.60
35.06
32.96
30.33
27.27
24.06
21.13
18.90
17.56
16.91
16.42
15.49
13.55
10.37
6.03
0.86
-4.64
-9.97
-14.78
-19.00
-22.90
-27.04
-32.08
-38.38
-45.77
-53.28
-59.37
-62.27
-60.62
-53.93
-42.86
-29.00
-14.43
-1.05
9.88
17.97
23.50
27.12
29.49
31.05
32.02
32.56
32.80
32.89
32.93
32.86
32.47
31.57
30.07
28.17
26.22
24.57
23.31
22.20
20.78
18.57
15.27
10.98
6.05
0.95
-3.91
-8.31
-12.31
-16.13
-20.25
-25.15
-31.21
-38.46
-46.32
-53.52
-58.40
-59.39
-55.59
-47.22
-35.51
-22.30
-9.36
2.06
11.44
18.77
24.19
27.89
29.95
30.52
29.91
28.54
26.87
25.22
23.75
22.46
21.30
20.20
19.12
17.99
16.67
15.06
13.02
10.56
7.73
4.63
1.36
-1.93
-5.16
-8.27
-11.35
-14.66
-18.62
-23.64
-29.84
-36.83
-43.55
-48.43
-49.92
-46.95
-39.43
-28.29
-15.21
-2.02
9.73
19.16
25.98
30.35
32.61
33.10
32.16
30.10
27.34
24.28
21.38
18.99
17.38
16.63
16.61
16.98
17.22
16.76
15.20
12.43
8.65
4.29
-0.18
-4.48
-8.49
-12.33
-16.21
-20.34
-24.95
-30.23
-36.31
-43.08
-49.95
-55.85
-59.36
-59.19
-54.62
-45.89
-34.08
-20.86
-7.86
3.66
13.13
20.47
26.00
30.10
33.07
35.08
36.20
36.51
36.05
34.97
33.43
31.64
29.76
27.90
26.16
24.61
23.37
22.44
21.68
20.70
18.94
15.87
11.25
5.24
-1.50
-8.11
-13.83
-18.28
-21.63
-24.52
-27.81
-32.29
-38.34
-45.72
-53.51
-60.23
-64.23
-64.10
-59.21
-49.83
-37.11
-22.70
-8.33
4.63
15.33
23.53
29.38
33.27
35.64
36.91
37.38
37.25
36.67
35.74
34.59
33.29
31.92
30.46
28.93
27.35
25.76
24.23
22.73
21.11
19.12
16.38
12.66
7.88
2.20
-3.92
-9.98
-15.43
-20.03
-23.80
-27.12
-30.63
-35.00
-40.67
-47.53
-54.77
-61.02
-64.62
-64.16
-58.95
-49.26
-36.29
-21.80
-7.65
4.74
14.64
21.94
26.99
30.19
31.88
32.20
31.34
29.55
27.31
25.12
23.41
22.39
21.97
21.89
21.85
21.51
20.59
18.91
16.41
13.15
9.37
5.37
1.41
-2.41
-6.07
-9.74
-13.62
-18.07
-23.43
-29.84
-36.95
-43.85
-49.07
-51.03
-48.63
-41.65
-30.91
-18.03
-4.83
7.07
16.68
23.68
28.25
30.93
32.25
32.61
32.23
31.13
29.34
27.01
24.48
22.12
20.27
19.03
18.27
17.66
16.85
15.57
13.60
10.85
7.26
2.90
-2.09
-7.48
-12.99
-18.40
-23.68
-29.00
-34.66
-40.88
-47.49
-53.82
-58.70
-60.77
-58.94
-52.81
-42.89
-30.37
-16.81
-3.66
8.02
17.72
25.30
30.87
34.67
36.93
37.94
37.95
37.22
35.97
34.42
32.70
30.89
29.02
27.11
25.22
23.47
21.97
20.74
19.61
18.22
16.08
12.82
8.33
2.88
-3.00
-8.71
-13.89
-18.53
-22.99
-27.87
-33.72
-40.78
-48.75
-56.64
-62.95
-65.98
-64.42
-57.80
-46.76
-32.82
-17.96
-3.97
7.99
17.52
24.77
30.23
34.34
37.42
39.65
41.12
41.90
42.09
41.81
41.16
40.17
38.81
37.03
34.84
32.36
29.89
27.77
26.18
25.08
24.04
22.50
19.87
15.76
10.17
3.40
-3.88
-10.95
-17.14
-22.14
-26.07
-29.52
-33.27
-38.05
-44.12
-51.05
-57.75
-62.61
-64.01
-60.90
-53.12
-41.51
-27.60
-13.17
0.24
11.65
20.62
27.10
31.21
33.26
33.69
33.09
32.10
31.13
30.27
29.30
27.94
26.04
23.85
21.76
20.19
19.26
18.74
18.11
16.81
14.50
11.11
6.92
2.34
-2.25
-6.59
-10.63
-14.55
-18.65
-23.26
-28.54
-34.34
-40.05
-44.68
-47.08
-46.23
-41.64
-33.50
-22.67
-10.53
1.49
12.25
21.05
27.74
32.46
35.47
36.95
36.97
35.63
33.15
29.93
26.53
23.51
21.21
19.71
18.80
18.17
17.50
16.55
15.16
13.18
10.51
7.10
2.93
-1.86
-7.08
-12.47
-17.77
-22.88
-27.88
-33.06
-38.79
-45.27
-52.12
-58.32
-62.27
-62.35
-57.53
-47.86
-34.53
-19.50
-4.80
8.07
18.43
26.35
32.24
36.52
39.42
41.01
41.37
40.70
39.31
37.59
35.76
33.89
31.91
29.74
27.39
25.00
22.76
20.80
19.14
17.61
15.92
13.74
10.82
7.07
2.59
-2.38
-7.58
-12.74
-17.77
-22.67
-27.64
-32.91
-38.78
-45.30
-52.24
-58.87
-63.94
-66.01
-63.84
-56.91
-45.73
-31.70
-16.71
-2.51
9.76
19.68
27.41
33.29
37.64
40.65
42.40
42.98
42.57
41.38
39.69
37.79
35.95
34.40
33.25
32.43
31.76
30.98
29.89
28.45
26.70
24.72
22.50
19.87
16.65
12.67
8.00
2.83
-2.47
-7.56
-12.20
-16.31
-19.97
-23.36
-26.69
-30.23
-34.23
-38.96
-44.63
-51.12
-57.82
-63.57
-66.87
-66.31
-61.12
-51.47
-38.51
-23.92
-9.42
3.71
14.71
23.32
29.55
33.50
35.34
35.36
34.03
31.90
29.65
27.79
26.65
26.24
26.27
26.29
25.89
24.88
23.36
21.67
20.10
18.75
17.37
15.56
12.90
9.25
4.78
-0.04
-4.68
-8.75
-12.11
-14.95
-17.66
-20.80
-24.85
-30.07
-36.23
-42.58
-47.86
-50.64
-49.74
-44.71
-35.90
-24.47
-11.95
0.16
10.79
19.36
25.70
29.89
32.02
32.29
30.97
28.53
25.57
22.71
20.38
18.74
17.67
16.93
16.31
15.72
15.16
14.62
13.97
12.94
11.19
8.46
4.69
0.08
-4.94
-9.87
-14.31
-18.04
-21.18
-24.08
-27.30
-31.47
-37.00
-43.87
-51.38
-58.20
-62.60
-62.99
-58.45
-49.08
-36.06
-21.18
-6.39
6.75
17.29
24.87
29.56
31.77
32.04
30.99
29.25
27.39
25.79
24.58
23.71
23.01
22.27
21.33
20.09
18.57
16.87
15.13
13.52
12.03
10.51
8.57
5.75
1.69
-3.64
-9.84
-16.17
-21.82
-26.27
-29.45
-31.76
-33.89
-36.52
-40.24
-45.35
-51.78
-58.98
-65.79
-70.58
-71.72
-68.08
-59.69
-47.67
-33.91
-20.20
-7.64
3.58
13.94
23.94
33.66
42.58
49.84
54.72
57.10
57.49
56.86
56.09
55.55
54.97
53.67
51.14
47.49
43.54
40.43
39.01
39.32
40.57
41.66
41.78
40.74
38.92
36.83
34.69
32.35
29.54
26.20
22.67
19.41
16.68
14.20
11.27
7.28
2.31
-2.62
-5.77
-5.35
-0.41
8.71
20.49
32.80
43.80
52.30
57.81
60.17
59.23
54.76
46.82
36.00
23.63
11.44
1.13
-6.11
-9.85
-10.29
-8.16
-4.37
0.03
3.94
6.48
7.07
5.67
2.81
-0.65
-3.91
-6.42
-8.18
-9.56
-11.18
-13.65
-17.50
-22.93
-29.71
-37.11
-43.80
-48.21
-48.92
-45.09
-36.81
-25.14
-11.72
1.73
13.83
23.77
31.16
35.84
37.73
36.76
33.00
26.91
19.29
11.18
3.71
-2.23
-6.18
-8.08
-8.34
-7.59
-6.54
-5.89
-6.23
-7.78
-10.42
-13.62
-16.66
-18.86
-20.00
-20.49
-21.41
-24.23
-30.39
-40.66
-54.69
-70.83
-86.29
-97.91
-102.98
-100.18
-89.88
-74.04
-55.48
-37.02
-20.82
-8.05
0.94
6.42
8.97
9.41
8.56
7.24
6.02
5.19
4.63
4.03
3.01
1.39
-0.80
-3.22
-5.49
-7.38
-9.01
-10.87
-13.58
-17.61
-22.90
-28.85
-34.43
-38.68
-41.00
-41.40
-40.46
-39.16
-38.73
-40.24
-44.35
-50.95
-58.85
-65.97
-69.79
-68.16
-60.14
-46.32
-28.72
-10.11
6.79
20.08
28.95
33.73
35.39
35.14
34.06
32.88
31.96
31.41
31.21
31.28
31.49
31.55
31.11
29.83
27.47
24.05
19.85
15.35
11.02
7.28
4.23
1.67
-0.97
-4.29
-8.73
-14.26
-20.41
-26.43
-31.72
-36.15
-40.16
-44.51
-49.91
-56.69
-64.53
-72.44
-78.95
-82.41
-81.48
-75.53
-64.88
-50.74
-34.90
-19.17
-4.95
6.94
16.28
23.16
27.83
30.64
31.99
32.38
32.26
31.97
31.67
31.46
31.41
31.64
32.26
33.24
34.35
35.20
35.33
34.31
31.90
28.03
22.88
16.86
10.56
4.57
-0.69
-5.10
-8.93
-12.75
-17.28
-23.15
-30.54
-38.96
-47.19
-53.41
-55.71
-52.69
-43.99
-30.44
-13.88
3.41
19.34
32.42
41.96
47.95
50.89
51.51
50.61
48.86
46.81
44.79
43.02
41.58
40.46
39.54
38.62
37.49
36.06
34.48
32.98
31.76
30.69
29.31
26.93
23.07
17.58
10.87
3.62
-3.52
-10.18
-16.41
-22.50
-28.87
-35.94
-43.99
-53.07
-62.75
-72.02
-79.27
-82.67
-80.71
-72.86
-59.73
-43.05
-25.01
-7.73
7.32
19.49
28.82
35.76
40.86
44.59
47.27
49.02
49.96
50.18
49.85
49.22
48.50
47.78
47.05
46.23
45.17
43.83
42.19
40.27
38.11
35.75
33.19
30.34
27.07
23.12
18.27
12.49
5.97
-0.81
-7.23
-12.76
-17.08
-20.23
-22.58
-24.80
-27.69
-32.04
-38.35
-46.59
-55.96
-64.86
-71.19
-72.95
-68.81
-58.69
-43.77
-26.17
-8.28
7.89
21.10
31.01
37.89
42.37
45.04
46.31
46.50
45.85
44.62
43.08
41.50
40.00
38.62
37.29
35.93
34.57
33.29
32.20
31.39
30.77
30.02
28.73
26.49
23.14
18.82
13.97
9.06
4.42
0.10
-4.08
-8.30
-12.55
-16.69
-20.50
-23.88
-27.00
-30.23
-34.03
-38.80
-44.72
-51.68
-59.15
-66.08
-71.04
-72.52
-69.45
-61.62
-49.83
-35.60
-20.68
-6.55
5.91
16.34
24.65
30.86
34.97
37.07
37.38
36.33
34.46
32.30
30.24
28.50
27.14
26.09
25.24
24.58
24.17
24.11
24.39
24.79
24.89
24.17
22.19
18.83
14.30
9.12
3.93
-0.66
-4.29
-6.97
-9.08
-11.34
-14.59
-19.50
-26.29
-34.49
-42.89
-49.78
-53.38
-52.33
-46.20
-35.58
-22.02
-7.46
6.23
17.78
26.67
32.96
37.00
39.19
39.82
39.20
37.72
35.87
34.10
32.71
31.71
30.90
29.92
28.48
26.43
23.84
21.00
18.30
16.11
14.54
13.43
12.35
10.76
8.24
4.62
0.06
-5.11
-10.54
-15.93
-21.03
-25.65
-29.63
-33.00
-36.05
-39.38
-43.64
-49.26
-56.06
-63.09
-68.75
-71.24
-69.10
-61.76
-49.75
-34.60
-18.41
-3.16
9.62
19.25
25.73
29.58
31.49
32.15
32.17
31.95
31.75
31.55
31.21
30.52
29.36
27.86
26.31
25.06
24.34
24.08
24.01
23.72
22.90
21.37
19.09
16.16
12.66
8.65
4.20
-0.61
-5.65
-10.76
-15.79
-20.61
-25.06
-29.03
-32.44
-35.38
-38.22
-41.55
-46.05
-52.15
-59.61
-67.39
-73.66
-76.48
-74.40
-67.05
-55.22
-40.61
-25.14
-10.48
2.28
12.62
20.40
25.69
28.74
29.98
29.96
29.28
28.38
27.51
26.72
26.00
25.34
24.72
24.15
23.63
23.19
22.90
22.82
22.90
22.94
22.50
21.08
18.27
13.96
8.33
1.86
-4.82
-11.00
-16.13
-19.95
-22.62
-24.79
-27.36
-31.23
-36.90
-44.24
-52.39
-59.93
-65.23
-66.77
-63.56
-55.39
-42.98
-27.81
-11.89
2.79
14.74
23.23
28.29
30.44
30.43
29.05
26.99
24.79
22.83
21.29
20.09
19.00
17.77
16.24
14.54
12.95
11.77
11.17
10.96
10.64
9.58
7.32
3.75
-0.79
-5.66
-10.26
-14.32
-17.99
-21.83
-26.43
-32.25
-39.36
-47.34
-55.31
-62.00
-65.92
-65.71
-60.56
-50.54
-36.65
-20.64
-4.46
10.25
22.42
31.69
38.24
42.49
44.98
46.16
46.34
45.78
44.63
43.07
41.35
39.68
38.16
36.68
34.98
32.80
30.09
27.08
24.19
21.71
19.55
17.24
14.18
9.99
4.76
-0.97
-6.49
-11.32
-15.44
-19.32
-23.74
-29.42
-36.85
-45.96
-56.02
-65.63
-72.89
-75.86
-73.14
-64.28
-50.11
-32.43
-13.54
4.47
20.14
32.83
42.59
49.73
54.63
57.43
58.21
57.00
54.08
49.95
45.31
40.84
36.91
33.49
30.26
26.83
23.02
19.06
15.46
12.72
10.97
9.83
8.52
6.23
2.48
-2.66
-8.66
-14.85
-20.68
-25.97
-30.86
-35.69
-40.81
-46.57
-53.17
-60.59
-68.36
-75.41
-80.07
-80.52
-75.43
-64.62
-49.25
-31.46
-13.64
2.37
15.62
26.07
34.05
39.89
43.74
45.67
45.91
44.96
43.53
42.19
41.21
40.40
39.30
37.42
34.66
31.31
28.08
25.68
24.49
24.25
24.12
22.98
19.92
14.66
7.60
-0.34
-8.10
-14.91
-20.48
-25.06
-29.34
-34.21
-40.37
-48.00
-56.46
-64.19
-69.15
-69.37
-63.70
-52.28
-36.53
-18.68
-1.12
14.25
26.33
34.79
39.86
42.05
42.02
40.50
38.19
35.72
33.45
31.44
29.42
27.10
24.31
21.21
18.21
15.78
14.11
13.03
11.98
10.20
7.13
2.54
-3.37
-10.15
-17.23
-24.18
-30.79
-37.09
-43.35
-50.04
-57.67
-66.55
-76.45
-86.22
-93.91
-97.13
-93.97
-83.71
-67.35
-47.29
-26.51
-7.59
7.99
20.00
28.99
35.77
40.91
44.64
47.01
48.13
48.28
47.79
46.91
45.64
43.86
41.47
38.59
35.58
32.93
31.02
29.98
29.49
28.99
27.78
25.40
21.65
16.64
10.68
4.02
-3.10
-10.58
-18.40
-26.66
-35.51
-45.09
-55.15
-64.97
-73.10
-77.67
-76.99
-70.15
-57.51
-40.73
-22.22
-4.39
11.02
23.29
32.55
39.33
44.16
47.37
49.18
49.84
49.80
49.51
49.27
49.07
48.57
47.42
45.53
43.22
41.14
39.86
39.65
40.12
40.43
39.54
36.57
31.19
23.58
14.49
4.89
-4.28
-12.42
-19.47
-25.88
-32.48
-40.21
-49.73
-60.98
-72.78
-82.94
-88.69
-87.59
-78.54
-62.24
-41.18
-18.67
2.22
19.64
33.12
43.19
50.60
55.81
58.82
59.49
57.92
54.67
50.58
46.44
42.73
39.53
36.74
34.26
32.17
30.71
29.98
29.73
29.41
28.30
25.84
21.85
16.55
10.39
3.76
-3.19
-10.51
-18.37
-26.99
-36.42
-46.51
-56.68
-65.79
-72.12
-73.82
-69.50
-58.88
-43.07
-24.34
-5.33
11.76
25.68
36.17
43.58
48.44
51.18
52.24
52.12
51.46
50.83
50.57
50.54
50.29
49.33
47.36
44.49
41.17
38.03
35.58
34.01
32.99
31.85
29.70
25.84
20.02
12.60
4.42
-3.61
-10.84
-17.22
-23.23
-29.69
-37.40
-46.76
-57.38
-68.05
-76.78
-81.34
-79.91
-71.71
-57.44
-39.02
-19.06
0.00
16.49
29.72
39.80
47.20
52.39
55.68
57.29
57.44
56.55
55.13
53.74
52.73
52.09
51.50
50.47
48.64
46.04
43.08
40.35
38.22
36.57
34.80
32.09
27.76
21.57
13.79
5.07
-3.81
-12.20
-19.70
-26.22
-31.99
-37.49
-43.32
-50.07
-58.06
-67.04
-76.06
-83.43
-87.13
-85.37
-77.30
-63.36
-45.31
-25.68
-6.94
9.21
22.15
32.13
39.76
45.54
49.62
51.94
52.58
51.92
50.60
49.21
48.02
46.90
45.41
43.18
40.20
36.87
33.89
31.80
30.71
30.15
29.20
26.93
22.74
16.60
9.08
1.10
-6.44
-12.95
-18.30
-22.80
-27.06
-31.77
-37.55
-44.68
-52.96
-61.53
-68.90
-73.25
-72.96
-67.16
-56.11
-41.20
-24.43
-7.96
6.58
18.28
26.91
32.71
36.01
37.15
36.40
34.12
30.75
26.90
23.14
19.98
17.69
16.29
15.64
15.48
15.53
15.55
15.25
14.30
12.37
9.21
4.76
-0.76
-6.96
-13.32
-19.34
-24.69
-29.26
-33.32
-37.51
-42.60
-49.19
-57.22
-65.69
-72.70
-76.03
-73.83
-65.43
-51.53
-34.07
-15.47
2.04
17.03
28.98
38.03
44.68
49.34
52.26
53.56
53.34
51.92
49.81
47.59
45.73
44.44
43.54
42.64
41.37
39.56
37.39
35.23
33.45
32.13
30.94
29.18
26.04
20.96
13.92
5.50
-3.34
-11.57
-18.53
-24.11
-28.71
-33.05
-37.95
-44.03
-51.52
-60.05
-68.55
-75.33
-78.46
-76.39
-68.47
-55.29
-38.54
-20.50
-3.33
11.46
23.18
31.83
37.77
41.45
43.23
43.43
42.44
40.73
38.79
36.98
35.42
33.95
32.25
30.06
27.30
24.22
21.22
18.69
16.78
15.26
13.61
11.18
7.45
2.30
-3.91
-10.45
-16.49
-21.44
-25.15
-28.00
-30.73
-34.18
-39.09
-45.86
-54.31
-63.57
-72.00
-77.49
-78.02
-72.41
-60.84
-44.90
-27.10
-10.04
4.37
15.20
22.44
26.62
28.42
28.52
27.54
25.97
24.20
22.41
20.57
18.58
16.46
14.32
12.38
10.78
9.49
8.24
6.73
4.69
2.03
-1.15
-4.69
-8.38
-12.12
-15.90
-19.88
-24.25
-29.34
-35.42
-42.57
-50.42
-58.03
-63.93
-66.44
-64.21
-56.68
-44.49
-29.24
-13.11
1.87
14.32
23.72
30.24
34.38
36.65
37.38
36.78
35.00
32.28
28.89
25.22
21.67
18.60
16.24
14.65
13.70
13.02
12.19
10.80
8.51
5.11
0.54
-5.04
-11.21
-17.47
-23.28
-28.39
-32.94
-37.50
-42.80
-49.35
-56.96
-64.71
-70.93
-73.74
-71.57
-63.81
-51.01
-34.81
-17.44
-1.09
12.71
23.30
30.86
35.88
38.97
40.54
40.89
40.25
38.94
37.23
35.27
33.11
30.67
27.98
25.22
22.60
20.22
18.01
15.68
12.86
9.37
5.24
0.71
-3.97
-8.61
-13.21
-17.91
-23.00
-28.80
-35.61
-43.52
-52.21
-60.77
-67.71
-71.28
-69.99
-63.14
-51.12
-35.41
-18.25
-1.99
11.56
21.52
28.01
31.94
34.38
36.19
37.69
38.72
38.87
37.80
35.45
32.07
28.18
24.34
21.06
18.61
17.04
16.07
15.29
14.21
12.42
9.71
6.02
1.44
-3.84
-9.60
-15.60
-21.63
-27.65
-33.83
-40.49
-47.74
-55.20
-61.69
-65.59
-65.26
-59.70
-49.03
-34.53
-18.24
-2.30
11.59
22.58
30.56
35.95
39.21
40.67
40.46
38.67
35.55
31.65
27.78
24.66
22.67
21.68
21.15
20.38
18.89
16.48
13.23
9.40
5.25
0.98
-3.25
-7.36
-11.33
-15.33
-19.69
-24.92
-31.42
-39.35
-48.26
-57.00
-63.82
-66.75
-64.27
-55.78
-42.04
-24.92
-6.85
9.91
23.85
34.37
41.65
46.18
48.52
49.13
48.46
46.97
45.17
43.49
42.15
41.06
39.93
38.39
36.21
33.46
30.43
27.50
24.88
22.43
19.69
16.11
11.39
5.67
-0.49
-6.40
-11.59
-16.06
-20.25
-24.85
-30.58
-37.86
-46.62
-56.19
-65.22
-71.89
-74.27
-71.02
-61.81
-47.63
-30.45
-12.68
3.71
17.51
28.39
36.57
42.46
46.39
48.59
49.29
48.79
47.50
45.82
44.02
42.20
40.27
38.05
35.47
32.67
29.98
27.75
26.09
24.82
23.34
21.02
17.35
12.33
6.38
0.23
-5.43
-10.22
-14.13
-17.45
-20.71
-24.45
-29.19
-35.26
-42.67
-50.84
-58.58
-64.22
-66.00
-62.70
-54.10
-41.17
-25.79
-10.15
3.91
15.38
24.07
30.32
34.62
37.31
38.51
38.36
37.07
35.04
32.68
30.32
28.08
26.04
24.24
22.77
21.75
21.14
20.72
20.14
19.01
17.06
14.24
10.60
6.34
1.73
-2.98
-7.56
-11.90
-16.15
-20.71
-26.04
-32.38
-39.43
-46.20
-51.17
-52.71
-49.66
-41.74
-29.68
-15.08
0.11
14.12
25.78
34.67
40.95
45.01
47.16
47.54
46.25
43.61
40.29
37.16
34.97
34.02
34.05
34.37
34.26
33.25
31.35
28.90
26.37
24.02
21.87
19.55
16.60
12.66
7.69
2.01
-3.79
-9.20
-13.96
-18.17
-22.19
-26.47
-31.38
-37.15
-43.79
-50.97
-57.86
-63.18
-65.34
-63.01
-55.66
-43.82
-29.05
-13.42
1.16
13.44
22.99
29.99
34.92
38.20
40.04
40.49
39.55
37.42
34.61
31.81
29.75
28.73
28.55
28.55
28.01
26.55
24.31
21.80
19.52
17.62
15.77
13.32
9.75
4.97
-0.67
-6.43
-11.67
-15.99
-19.44
-22.44
-25.61
-29.54
-34.63
-40.98
-48.31
-56.03
-63.21
-68.63
-70.97
-69.16
-62.66
-51.90
-38.14
-23.18
-8.86
3.51
13.32
20.57
25.60
28.80
30.42
30.69
29.92
28.42
26.54
24.60
22.75
21.11
19.75
18.75
18.20
18.13
18.46
18.96
19.30
19.00
17.62
14.90
10.89
5.90
0.56
-4.51
-8.83
-12.22
-14.94
-17.62
-21.07
-26.05
-32.85
-40.95
-48.95
-54.87
-56.72
-53.22
-44.36
-31.31
-16.15
-1.07
12.16
22.42
29.30
32.92
33.77
32.49
29.86
26.63
23.45
20.68
18.49
16.85
15.63
14.63
13.62
12.50
11.17
9.62
7.87
5.91
3.66
1.08
-1.85
-5.04
-8.32
-11.60
-14.89
-18.29
-21.97
-26.15
-30.98
-36.53
-42.65
-48.75
-53.79
-56.34
-55.11
-49.40
-39.52
-26.74
-12.86
0.34
11.63
20.45
26.81
31.00
33.36
34.19
33.79
32.48
30.62
28.58
26.56
24.62
22.70
20.70
18.61
16.61
14.95
13.88
13.34
12.91
11.84
9.42
5.28
-0.38
-6.80
-12.99
-18.14
-21.96
-24.66
-26.94
-29.65
-33.57
-39.12
-46.23
-54.14
-61.53
-66.69
-67.91
-64.08
-54.97
-41.44
-25.23
-8.43
6.93
19.39
28.28
33.67
36.16
36.64
35.95
34.84
33.81
33.10
32.77
32.63
32.25
31.19
29.14
26.18
22.78
19.69
17.51
16.41
15.94
15.24
13.38
9.86
4.68
-1.70
-8.56
-15.21
-21.18
-26.30
-30.73
-34.93
-39.54
-45.05
-51.49
-58.17
-63.75
-66.51
-65.06
-58.78
-48.20
-34.78
-20.48
-7.15
3.97
12.43
18.38
22.28
24.49
25.22
24.47
22.31
19.01
15.13
11.34
8.30
6.41
5.70
5.93
6.60
7.11
6.92
5.71
3.39
0.16
-3.58
-7.41
-11.05
-14.48
-17.85
-21.55
-25.95
-31.41
-37.99
-45.29
-52.31
-57.57
-59.39
-56.52
-48.58
-36.32
-21.40
-5.92
8.30
20.06
28.91
34.96
38.59
40.20
40.15
38.82
36.61
33.97
31.26
28.70
26.34
24.06
21.75
19.38
17.07
14.97
13.18
11.58
9.85
7.58
4.42
0.23
-4.84
-10.48
-16.26
-21.83
-27.00
-31.86
-36.77
-42.23
-48.67
-56.10
-63.81
-70.30
-73.67
-72.22
-65.15
-52.92
-37.15
-20.05
-3.71
10.39
21.61
29.95
35.82
39.72
42.18
43.63
44.44
44.79
44.72
44.14
42.96
41.18
38.93
36.43
33.90
31.55
29.53
27.87
26.41
24.80
22.59
19.36
14.96
9.54
3.57
-2.43
-8.06
-13.22
-18.09
-23.08
-28.62
-35.18
-42.88
-51.41
-59.76
-66.33
-69.24
-67.00
-59.10
-46.28
-30.33
-13.54
2.02
15.04
25.08
32.41
37.63
41.29
43.73
45.00
45.03
43.72
41.19
37.76
33.97
30.36
27.38
25.23
23.95
23.39
23.30
23.32
22.99
21.87
19.63
16.16
11.68
6.59
1.37
-3.68
-8.53
-13.42
-18.81
-25.09
-32.39
-40.32
-47.87
-53.51
-55.62
-52.95
-45.10
-32.80
-17.64
-1.75
12.94
25.02
33.95
39.82
43.14
44.49
44.39
43.19
41.19
38.71
36.04
33.43
31.01
28.78
26.64
24.59
22.75
21.33
20.46
19.97
19.37
17.90
14.95
10.27
4.17
-2.63
-9.29
-15.19
-20.16
-24.47
-28.72
-33.62
-39.71
-47.15
-55.41
-63.24
-68.80
-70.18
-66.05
-56.14
-41.54
-24.25
-6.58
9.57
23.11
33.75
41.70
47.28
50.80
52.50
52.76
52.08
51.04
50.02
49.09
48.04
46.52
44.26
41.33
38.05
34.94
32.38
30.56
29.29
28.11
26.40
23.58
19.29
13.51
6.66
-0.59
-7.44
-13.29
-17.96
-21.77
-25.38
-29.60
-35.11
-42.14
-50.29
-58.43
-64.91
-67.89
-65.90
-58.40
-46.01
-30.39
-13.71
1.96
15.22
25.56
33.14
38.44
41.87
43.74
44.20
43.49
41.98
40.11
38.27
36.64
35.18
33.68
31.98
30.06
28.10
26.46
25.40
24.96
24.76
24.15
22.42
19.05
13.98
7.65
0.84
-5.58
-11.01
-15.24
-18.56
-21.56
-24.94
-29.31
-35.08
-42.29
-50.46
-58.56
-65.03
-68.11
-66.40
