1624461293.00
64.000000
-0.00
-0.00
-0.00
-0.00
-0.00
-0.00
-0.00
-0.00
-0.00
-0.00
0.00
0.01
0.01
-0.00
-0.03
-0.05
-0.05
0.00
0.13
0.36
0.66
1.01
1.37
1.72
2.06
2.40
2.79
3.24
3.80
4.42
5.06
5.66
6.20
6.68
7.15
7.68
8.31
9.14
10.09
11.04
11.88
12.56
13.14
13.76
14.65
15.96
17.91
20.32
22.90
25.38
27.58
29.57
31.68
34.32
37.81
42.54
48.15
54.10
59.83
64.97
69.58
74.14
79.34
85.71
93.76
103.00
112.62
121.73
129.77
136.75
143.30
150.75
157.77
166.64
177.95
191.79
206.97
220.57
228.25
225.36
208.53
176.87
132.76
80.05
23.07
-34.94
-92.44
-149.16
-205.23
-260.37
-313.74
-363.87
-409.83
-450.91
-486.50
-515.74
-537.23
-549.22
-549.96
-538.36
-514.19
-478.65
-433.84
-382.39
-326.93
-269.72
-212.47
-156.45
-102.70
-52.06
-5.54
36.01
71.91
101.90
126.12
145.07
159.45
169.98
177.28
181.75
183.66
183.26
180.81
176.65
171.20
164.87
158.01
150.85
143.55
136.17
128.75
121.35
114.01
106.82
99.85
93.15
86.76
80.68
74.94
69.54
64.48
59.79
55.47
51.53
47.96
44.76
41.91
39.43
37.28
35.48
34.02
32.88
32.09
31.63
31.50
31.66
32.11
32.78
33.60
34.46
35.24
35.77
35.88
35.41
34.21
32.18
29.27
25.51
20.94
15.72
10.07
4.23
-1.54
-6.99
-11.88
-16.05
-19.37
-21.79
-23.31
-24.01
-23.99
-23.37
-22.29
-20.86
-19.19
-17.34
-15.35
-13.22
-10.98
-8.65
-6.21
-3.67
-1.01
1.77
4.68
7.70
10.89
14.16
17.49
20.86
24.28
27.75
31.28
34.92
38.71
42.71
46.84
51.05
55.30
59.61
63.99
68.47
73.12
78.03
83.32
88.85
94.55
100.38
106.33
112.37
118.50
124.71
131.01
137.44
143.67
149.41
154.42
158.41
161.08
162.01
160.64
156.18
150.16
143.13
135.46
127.43
119.25
111.11
103.14
95.49
88.32
81.81
75.76
70.05
64.60
59.36
54.28
49.36
44.63
40.16
36.09
32.28
28.63
25.09
21.61
18.18
14.82
11.58
8.56
5.88
3.52
1.43
-0.42
-2.13
-3.77
-5.42
-7.09
-8.80
-10.47
-12.16
-13.97
-16.04
-18.55
-21.68
-25.48
-29.87
-34.64
-39.50
-44.25
-48.83
-53.35
-58.11
-63.40
-69.38
-75.98
-82.93
-89.82
-96.38
-102.58
-108.74
-115.40
-123.13
-132.31
-142.91
-154.62
-166.90
-179.29
-191.59
-203.88
-216.55
-230.28
-245.91
-264.32
-286.05
-310.67
-336.36
-359.98
-377.85
-386.92
-385.82
-375.33
-357.84
-336.09
-312.11
-286.65
-259.51
-230.23
-198.93
-166.41
-133.91
-102.58
-73.21
-46.24
-22.10
-1.32
15.57
28.25
36.98
42.55
46.03
48.41
50.26
51.73
52.76
53.35
53.65
53.88
54.13
54.14
53.38
51.32
47.74
42.92
37.50
32.22
27.50
23.28
19.10
14.28
8.30
0.95
-7.55
-16.70
-25.81
-34.14
-41.00
-45.73
-47.77
-46.62
-42.01
-33.80
-22.15
-7.45
9.54
27.72
45.65
61.73
74.53
83.13
87.42
88.10
86.43
83.73
80.89
78.19
75.31
71.77
67.29
62.07
56.69
51.77
47.67
44.25
40.83
36.58
30.83
23.53
15.32
7.27
0.43
-4.71
-8.67
-12.85
-19.10
-28.91
-42.89
-60.38
-79.70
-98.63
-115.15
-127.78
-135.76
-138.90
-137.22
-130.69
-119.21
-102.77
-81.71
-57.06
-30.53
-4.43
18.83
37.29
49.86
56.84
59.66
60.54
61.63
64.35
68.77
73.63
76.63
75.07
66.53
49.39
23.36
-10.16
-48.14
-86.46
-120.86
-148.13
-167.01
-178.20
-183.45
-184.39
-181.57
-174.43
-162.08
-144.35
-122.32
-97.97
-73.12
-48.19
-21.86
8.49
45.11
88.01
133.74
175.82
206.79
221.23
218.52
203.65
185.95
175.91
181.61
206.05
246.33
294.90
342.10
379.10
400.19
404.03
393.34
373.53
350.43
328.41
309.17
292.02
274.88
255.52
232.12
203.32
168.29
127.42
82.91
38.94
0.34
-29.57
-51.06
-68.21
-86.83
-111.19
-141.35
-172.80
-198.76
-213.64
-215.76
-207.81
-195.07
-182.67
-173.41
-167.27
-162.25
-155.98
-146.80
-134.31
-119.15
-102.32
-84.75
-67.05
-49.62
-32.87
-17.42
-3.91
7.38
16.81
25.48
34.79
45.59
57.64
69.41
78.54
82.70
80.42
71.59
57.46
40.07
21.64
3.93
-12.12
-26.52
-40.00
-53.64
-68.37
-84.49
-101.60
-118.59
-134.02
-146.29
-153.86
-155.34
-149.46
-135.27
-112.32
-81.05
-43.08
-1.28
40.57
78.26
107.98
127.04
134.33
130.50
117.61
98.67
76.92
55.30
36.00
20.40
9.05
1.89
-1.50
-1.70
0.66
4.94
10.38
16.01
20.70
23.30
22.95
19.30
12.59
3.52
-7.11
-18.70
-30.93
-43.71
-56.81
-69.76
-81.76
-91.79
-98.94
-102.56
-102.27
-97.93
-89.60
-77.59
-62.56
-45.54
-27.84
-10.71
4.92
18.55
30.04
39.33
46.28
50.61
52.18
51.12
48.03
43.84
39.54
35.84
32.98
30.67
28.32
25.29
21.14
15.82
9.61
3.04
-3.25
-8.73
-13.01
-15.98
-17.76
-18.79
-19.75
-21.52
-24.93
-30.65
-38.93
-49.39
-60.97
-72.09
-80.94
-85.90
-85.94
-80.85
-71.25
-58.26
-43.23
-27.34
-11.45
3.87
18.24
31.26
42.44
51.28
57.35
60.46
60.77
58.77
55.17
50.75
46.18
41.91
38.06
34.58
31.22
27.72
23.85
19.46
14.49
8.98
3.06
-3.00
-8.89
-14.31
-19.18
-23.72
-28.52
-34.29
-41.66
-50.82
-61.34
-72.18
-81.86
-88.79
-91.66
-89.66
-82.66
-71.23
-56.45
-39.69
-22.32
-5.41
10.43
24.98
38.14
49.68
59.04
65.54
68.67
68.54
65.89
61.91
57.72
53.97
50.68
47.44
43.83
39.81
35.64
31.72
28.13
24.51
20.24
14.79
8.10
0.72
-6.53
-12.97
-18.50
-23.64
-29.32
-36.42
-45.37
-55.92
-67.23
-78.07
-87.14
-93.34
-95.98
-94.75
-89.76
-81.24
-69.46
-54.63
-36.98
-17.06
4.08
24.82
43.27
57.80
67.45
72.26
73.13
71.45
68.51
65.14
61.58
57.64
53.08
47.97
42.73
38.03
34.40
31.97
30.38
28.90
26.75
23.51
19.25
14.49
9.89
5.90
2.44
-1.11
-5.72
-12.28
-21.18
-31.99
-43.49
-53.95
-61.66
-65.51
-65.23
-61.34
-54.74
-46.23
-36.18
-24.56
-11.26
3.57
19.27
34.70
48.47
59.37
66.69
70.35
70.92
69.35
66.65
63.52
60.28
56.78
52.82
48.35
43.73
39.52
36.18
33.66
31.27
27.92
22.64
15.17
6.14
-3.09
-11.00
-16.51
-19.38
-20.21
-20.20
-20.57
-22.28
-25.89
-31.48
-38.80
-47.23
-55.80
-63.25
-68.27
-69.73
-66.97
-59.95
-49.11
-35.31
-19.52
-2.75
13.94
29.51
42.95
53.41
60.41
63.97
64.62
63.20
60.53
57.14
53.14
48.41
42.85
36.72
30.66
25.49
21.79
19.64
18.44
17.22
15.04
11.33
6.14
-0.08
-6.67
-13.05
-18.92
-24.25
-29.33
-34.60
-40.63
-47.93
-56.68
-66.56
-76.63
-85.46
-91.46
-93.33
-90.40
-82.74
-70.98
-56.10
-39.07
-20.73
-1.84
16.86
34.48
50.04
62.46
70.92
75.09
75.35
72.73
68.60
64.15
59.93
55.79
51.13
45.47
38.92
32.22
26.46
22.48
20.32
19.22
17.88
15.06
10.13
3.39
-4.04
-10.68
-15.30
-17.37
-17.33
-16.30
-15.63
-16.34
-18.83
-22.92
-28.11
-33.95
-40.10
-46.18
-51.69
-55.83
-57.75
-56.80
-52.69
-45.55
-35.77
-23.84
-10.36
3.97
18.20
31.25
41.98
49.61
53.86
54.99
53.75
51.03
47.61
44.04
40.52
37.05
33.56
30.07
26.75
23.88
21.66
20.02
18.60
16.79
13.98
9.93
4.81
-0.76
-6.08
-10.65
-14.40
-17.74
-21.22
-25.25
-30.04
-35.51
-41.48
-47.77
-54.10
-60.04
-64.93
-68.04
-68.69
-66.52
-61.50
-53.74
-43.47
-30.95
-16.59
-1.22
13.98
27.54
38.12
44.90
47.81
47.53
45.16
41.88
38.58
35.64
32.99
30.24
27.04
23.36
19.49
16.07
13.60
12.14
11.19
9.83
7.13
2.68
-3.26
-9.82
-15.86
-20.48
-23.31
-24.64
-25.23
-26.04
-27.93
-31.41
-36.58
-43.08
-50.15
-56.85
-62.28
-65.75
-66.85
-65.44
-61.38
-54.53
-44.71
-31.96
-16.71
0.01
16.65
31.44
42.86
50.06
53.12
52.94
50.84
48.10
45.55
43.33
41.02
38.00
33.91
29.00
24.11
20.30
18.27
17.94
18.38
18.22
16.33
12.31
6.70
0.56
-4.99
-9.38
-12.75
-15.71
-18.99
-23.04
-27.95
-33.49
-39.43
-45.51
-51.48
-56.91
-61.12
-63.29
-62.72
-59.15
-52.78
-44.23
-34.19
-23.12
-11.30
1.15
13.91
26.29
37.31
45.98
51.73
54.64
55.42
54.94
53.90
52.42
50.15
46.63
41.83
36.31
31.17
27.51
25.81
25.68
25.90
25.08
22.26
17.36
11.18
4.89
-0.48
-4.51
-7.48
-10.13
-13.30
-17.54
-23.05
-29.66
-37.07
-44.91
-52.83
-60.33
-66.75
-71.20
-72.74
-70.69
-64.83
-55.46
-43.34
-29.40
-14.44
0.89
15.98
30.10
42.27
51.50
57.07
58.93
57.79
54.81
51.23
47.81
44.72
41.69
38.42
34.92
31.60
28.93
27.14
25.90
24.43
21.89
17.75
12.15
5.79
-0.41
-5.77
-10.12
-13.81
-17.46
-21.56
-26.39
-31.93
-38.12
-44.94
-52.43
-60.43
-68.36
-75.23
-79.72
-80.67
-77.37
-69.80
-58.51
-44.44
-28.64
-12.10
4.25
19.59
33.09
44.02
51.88
56.47
58.12
57.51
55.53
52.94
50.10
46.96
43.23
38.72
33.65
28.59
24.30
21.29
19.48
18.28
16.84
14.45
10.86
6.33
1.40
-3.41
-7.88
-12.17
-16.67
-21.76
-27.63
-34.19
-41.22
-48.44
-55.67
-62.76
-69.46
-75.30
-79.59
-81.56
-80.57
-76.31
-68.81
-58.23
-44.69
-28.22
-8.88
12.83
35.70
57.69
76.37
89.60
96.37
97.08
93.39
87.40
80.87
74.63
68.62
62.40
55.81
49.23
43.40
38.90
35.60
32.59
28.62
22.76
14.92
5.88
-3.18
-11.29
-18.13
-23.98
-29.44
-34.92
-40.52
-46.13
-51.73
-57.63
-64.39
-72.37
-81.47
-90.97
-99.63
-105.94
-108.34
-105.40
-96.11
-80.11
-58.14
-32.03
-4.48
21.64
44.00
61.22
73.01
79.82
82.52
82.11
79.63
76.07
72.23
68.51
64.83
60.86
56.39
51.62
47.19
43.70
41.42
40.00
38.60
36.28
32.45
27.11
20.75
14.14
7.87
2.27
-2.83
-7.81
-13.13
-19.17
-26.12
-33.99
-42.53
-51.26
-59.41
-66.09
-70.35
-71.46
-68.97
-62.75
-52.92
-39.78
-23.88
-6.03
12.57
30.47
46.18
58.49
66.71
70.85
71.54
69.79
66.68
63.06
59.34
55.55
51.59
47.48
43.53
40.28
38.13
37.05
36.40
35.15
32.27
27.33
20.71
13.44
6.78
1.55
-2.24
-5.31
-8.80
-13.68
-20.31
-28.35
-37.00
-45.39
-52.92
-59.33
-64.56
-68.47
-70.62
-70.23
-66.41
-58.47
-46.24
-30.27
-11.84
7.28
25.21
40.32
51.53
58.50
61.60
61.79
60.30
58.25
56.38
54.74
52.86
50.09
46.10
41.17
36.17
32.08
29.49
28.20
27.29
25.59
22.21
17.01
10.56
3.75
-2.60
-8.17
-13.05
-17.62
-22.19
-26.93
-31.88
-37.06
-42.64
-48.80
-55.50
-62.30
-68.34
-72.47
-73.70
-71.38
-65.39
-56.02
-43.77
-29.30
-13.34
3.19
19.21
33.58
45.28
53.59
58.26
59.55
58.14
54.98
51.03
47.14
43.79
41.08
38.91
37.06
35.43
34.03
32.87
31.84
30.53
28.37
24.84
19.76
13.43
6.64
0.29
-4.95
-8.94
-12.10
-15.21
-19.03
-23.97
-30.06
-37.05
-44.55
-52.22
-59.63
-66.23
-71.27
-73.90
-73.34
-69.21
-61.55
-50.86
-37.89
-23.45
-8.33
6.76
21.13
34.02
44.61
52.17
56.30
57.13
55.42
52.25
48.70
45.37
42.25
38.89
34.85
30.13
25.28
21.16
18.36
16.81
15.72
13.91
10.51
5.34
-0.96
-7.37
-13.02
-17.66
-21.65
-25.70
-30.43
-35.98
-42.07
-48.21
-54.06
-59.57
-64.93
-70.21
-75.17
-79.11
-80.99
-79.79
-74.74
-65.57
-52.55
-36.45
-18.41
0.14
17.64
32.62
43.96
51.12
54.21
53.99
51.55
47.93
43.88
39.68
35.31
30.73
26.12
21.88
18.54
16.36
15.12
14.13
12.54
9.75
5.65
0.69
-4.44
-9.13
-13.19
-16.79
-20.37
-24.34
-28.88
-33.98
-39.49
-45.28
-51.23
-57.16
-62.79
-67.57
-70.84
-71.87
-70.02
-64.75
-55.80
-43.15
-27.31
-9.30
9.27
26.48
40.53
50.27
55.59
57.29
56.73
55.22
53.43
51.26
48.21
43.82
38.20
32.14
26.77
23.00
21.02
20.16
19.17
16.89
12.78
7.18
1.00
-4.78
-9.59
-13.46
-16.90
-20.53
-24.77
-29.70
-35.27
-41.42
-48.09
-55.17
-62.33
-68.86
-73.79
-76.08
-74.96
-70.00
-61.22
-48.96
-33.83
-16.66
1.40
18.95
34.49
46.65
54.56
58.15
58.12
55.76
52.44
49.16
46.33
43.75
40.97
37.72
34.13
30.65
27.76
25.65
23.94
21.85
18.53
13.48
6.77
-0.94
-8.71
-15.69
-21.51
-26.38
-31.00
-36.22
-42.74
-50.83
-60.27
-70.42
-80.38
-89.17
-95.81
-99.48
-99.56
-95.61
-87.52
-75.37
-59.60
-40.91
-20.33
0.82
21.07
38.93
53.18
63.14
68.79
70.83
70.36
68.63
66.60
64.66
62.70
60.33
57.22
53.44
49.37
45.59
42.44
39.83
37.17
33.71
28.90
22.64
15.44
8.11
1.39
-4.43
-9.65
-14.97
-21.17
-28.79
-37.93
-48.30
-59.39
-70.59
-81.23
-90.52
-97.46
-100.90
-99.76
-93.34
-81.53
-64.96
-44.86
-22.86
-0.61
20.37
38.87
54.05
65.37
72.69
76.19
76.43
74.24
70.50
65.99
61.16
56.21
51.24
46.42
42.07
38.51
35.88
33.89
31.90
29.11
24.92
19.28
12.65
5.77
-0.70
-6.62
-12.33
-18.49
-25.63
-33.86
-42.87
-52.14
-61.34
-70.37
-79.35
-88.22
-96.44
-103.01
-106.71
-106.41
-101.22
-90.58
-74.27
-52.69
-26.98
0.81
28.03
52.06
70.99
84.07
91.70
95.00
95.22
93.34
89.96
85.43
80.11
74.42
68.92
64.16
60.49
57.96
56.10
54.06
50.79
45.63
38.42
29.78
20.73
12.27
4.96
-1.30
-7.14
-13.32
-20.46
-28.80
-38.22
-48.38
-58.81
-68.93
-78.06
-85.37
-89.91
-90.78
-87.32
-79.13
-66.21
-48.93
-28.09
-4.92
18.95
41.62
61.27
76.57
86.98
92.79
94.95
94.57
92.51
89.19
84.66
78.86
72.04
64.78
57.95
52.29
48.10
45.04
42.28
38.83
34.00
27.62
20.12
12.22
4.64
-2.23
-8.42
-14.37
-20.64
-27.69
-35.75
-44.80
-54.60
-64.83
-75.03
-84.61
-92.75
-98.48
-100.81
-98.86
-92.05
-80.21
-63.65
-43.18
-20.17
3.67
26.42
46.37
62.28
73.61
80.46
83.45
83.51
81.54
78.29
74.25
69.62
64.46
58.85
53.04
47.48
42.67
38.91
36.04
33.45
30.28
25.78
19.75
12.57
5.04
-1.98
-8.06
-13.32
-18.36
-23.99
-30.84
-39.20
-48.93
-59.59
-70.47
-80.69
-89.20
-94.86
-96.58
-93.57
-85.52
-72.69
-55.86
-36.21
-15.15
5.84
25.39
42.32
55.80
65.43
71.26
73.71
73.57
71.71
68.89
65.58
61.91
57.79
53.21
48.31
43.51
39.26
35.69
32.53
29.06
24.55
18.62
11.50
3.93
-3.22
-9.37
-14.55
-19.34
-24.55
-30.96
-38.98
-48.63
-59.49
-70.79
-81.48
-90.29
-95.94
-97.45
-94.28
-86.48
-74.58
-59.33
-41.50
-21.81
-0.99
19.95
39.64
56.44
68.92
76.29
78.70
77.24
73.52
68.96
64.38
59.84
54.95
49.36
43.19
37.06
31.84
28.02
25.46
23.31
20.45
16.02
9.89
2.63
-4.73
-11.31
-16.80
-21.59
-26.57
-32.62
-40.26
-49.39
-59.42
-69.51
-78.84
-86.76
-92.76
-96.39
-97.13
-94.46
-87.93
-77.32
-62.78
-44.80
-24.25
-2.21
19.98
40.86
58.90
72.72
81.45
84.90
83.70
79.05
72.40
65.04
57.84
51.29
45.64
40.97
37.28
34.37
31.76
28.78
24.75
19.31
12.69
5.56
-1.15
-6.74
-11.06
-14.61
-18.34
-23.25
-30.02
-38.69
-48.60
-58.65
-67.56
-74.21
-77.88
-78.24
-75.20
-68.74
-58.75
-45.10
-27.85
-7.53
14.57
36.59
56.32
71.83
81.92
86.40
86.07
82.35
76.80
70.65
64.60
58.77
53.08
47.46
42.05
37.18
33.08
29.65
26.40
22.61
17.70
11.52
4.47
-2.61
-8.94
-14.09
-18.18
-21.84
-25.87
-30.96
-37.42
-45.19
-53.90
-62.94
-71.53
-78.80
-83.87
-86.01
-84.79
-80.03
-71.77
-60.09
-45.09
-27.03
-6.54
15.21
36.53
55.59
70.79
81.21
86.75
87.98
85.96
81.88
76.73
71.17
65.51
59.78
54.06
48.51
43.49
39.38
36.28
33.77
31.00
26.83
20.37
11.38
0.46
-11.06
-21.52
-29.68
-35.20
-38.91
-42.48
-47.72
-55.76
-66.56
-78.87
-90.80
-100.64
-107.38
-110.87
-111.50
-109.69
-105.47
-98.44
-88.01
-73.83
-56.12
-35.73
-13.92
7.93
28.51
46.81
61.96
73.33
80.61
83.92
83.98
81.95
79.02
76.11
73.57
71.17
68.53
65.40
61.86
58.24
54.69
50.99
46.49
40.50
32.64
23.20
13.12
3.55
-4.58
-11.00
-16.19
-21.14
-26.79
-33.79
-42.18
-51.60
-61.53
-71.39
-80.72
-88.91
-95.23
-98.71
-98.47
-93.92
-85.01
-72.24
-56.44
-38.49
-19.13
0.89
20.66
38.89
54.02
64.65
70.08
70.74
68.04
63.88
59.73
56.18
52.84
48.91
43.86
37.95
32.20
27.79
25.40
24.69
24.43
23.05
19.38
13.19
5.21
-3.17
-10.61
-16.31
-20.33
-23.33
-26.34
-30.25
-35.52
-42.16
-49.78
-57.83
-65.63
-72.54
-77.94
-81.29
-82.14
-80.20
-75.40
-67.77
-57.50
-44.86
-30.17
-13.88
3.34
20.52
36.46
49.79
59.36
64.62
65.79
63.89
60.36
56.46
52.90
49.68
46.41
42.82
39.15
36.05
34.18
33.72
34.00
33.73
31.55
26.67
19.34
10.65
2.13
-4.94
-10.06
-13.51
-16.17
-19.05
-22.84
-27.72
-33.51
-39.86
-46.45
-53.04
-59.45
-65.30
-69.95
-72.59
-72.28
-68.29
-60.29
-48.39
-33.24
-15.87
2.35
19.92
35.40
47.63
55.91
60.13
60.78
58.81
55.31
51.26
47.27
43.49
39.71
35.66
31.22
26.62
22.35
18.89
16.49
14.92
13.53
11.50
8.21
3.43
-2.49
-8.83
-14.75
-19.61
-23.24
-25.95
-28.48
-31.68
-36.20
-42.31
-49.90
-58.49
-67.40
-75.87
-83.05
-88.02
-89.88
-87.91
-81.72
-71.48
-57.90
-42.08
-25.27
-8.59
7.10
21.19
33.18
42.63
49.17
52.66
53.37
52.00
49.56
47.00
44.93
43.41
42.07
40.43
38.21
35.45
32.44
29.46
26.53
23.40
19.71
15.25
10.12
4.66
-0.72
-5.76
-10.43
-14.90
-19.32
-23.71
-28.00
-32.17
-36.48
-41.46
-47.76
-55.79
-65.39
-75.68
-85.20
-92.24
-95.32
-93.56
-86.79
-75.46
-60.41
-42.64
-23.19
-3.18
16.13
33.36
47.13
56.47
61.08
61.58
59.21
55.55
51.82
48.57
45.62
42.35
38.28
33.51
28.77
25.06
23.00
22.36
22.05
20.60
16.96
10.96
3.46
-4.15
-10.63
-15.44
-18.91
-21.95
-25.54
-30.34
-36.52
-43.86
-51.97
-60.49
-69.06
-77.31
-84.68
-90.35
-93.32
-92.59
-87.42
-77.59
-63.47
-45.99
-26.32
-5.74
14.51
33.27
49.47
62.17
70.80
75.30
76.19
74.42
71.00
66.75
62.12
57.33
52.57
48.19
44.64
42.16
40.56
39.19
37.11
33.53
28.24
21.69
14.78
8.45
3.21
-1.05
-5.00
-9.52
-15.31
-22.60
-31.13
-40.38
-49.76
-58.79
-67.03
-73.99
-79.00
-81.25
-79.89
-74.30
-64.26
-49.97
-32.11
-11.72
9.78
30.74
49.44
64.38
74.63
80.00
81.05
78.87
74.65
69.42
63.84
58.25
52.82
47.76
43.32
39.76
37.04
34.79
32.27
28.67
23.41
16.46
8.44
0.31
-6.93
-12.75
-17.21
-20.94
-24.77
-29.41
-35.29
-42.45
-50.67
-59.46
-68.14
-75.86
-81.60
-84.40
-83.39
-78.01
-68.04
-53.66
-35.49
-14.60
7.53
29.22
48.83
65.01
76.88
84.20
87.27
86.87
84.00
79.67
74.67
69.42
64.03
58.52
53.09
48.12
44.12
41.33
39.54
37.99
35.71
31.87
26.14
18.82
10.66
2.50
-4.96
-11.43
-17.04
-22.20
-27.46
-33.32
-40.14
-48.09
-57.17
-67.09
-77.30
-86.82
-94.40
-98.67
-98.51
-93.33
-83.13
-68.50
-50.37
-29.87
-8.21
13.34
33.45
50.86
64.54
73.91
79.01
80.43
79.16
76.30
72.72
68.88
64.80
60.32
55.44
50.49
46.14
43.04
41.40
40.68
39.71
37.24
32.43
25.36
16.90
8.30
0.68
-5.44
-10.18
-14.12
-17.98
-22.46
-28.11
-35.27
-44.05
-54.15
-64.73
-74.46
-81.76
-85.21
-84.03
-78.21
-68.41
-55.58
-40.63
-24.23
-6.92
10.63
27.47
42.45
54.41
62.67
67.09
68.19
66.85
64.00
60.32
56.18
51.71
46.93
41.98
37.26
33.21
30.21
28.30
27.03
25.55
22.95
18.55
12.31
4.78
-3.16
-10.58
-16.90
-22.00
-26.25
-30.27
-34.72
-40.13
-46.77
-54.58
-63.14
-71.79
-79.63
-85.72
-89.27
-89.69
-86.67
-80.08
-70.02
-56.76
-40.76
-22.77
-3.79
14.99
32.33
47.12
58.46
65.83
69.21
69.02
66.16
61.79
56.99
52.54
48.70
45.35
42.17
38.97
35.76
32.53
29.10
24.96
19.50
12.38
3.92
-4.85
-12.62
-18.35
-21.89
-23.94
-25.82
-28.75
-33.36
-39.45
-46.26
-52.90
-58.73
-63.51
-67.24
-69.84
-70.94
-69.76
-65.30
-56.66
-43.50
-26.30
-6.44
14.12
33.23
49.21
61.11
68.81
72.82
73.90
72.81
70.14
66.28
61.51
56.07
50.24
44.38
38.96
34.43
31.08
28.78
27.01
24.86
21.46
16.29
9.57
2.12
-4.92
-10.62
-14.62
-17.32
-19.63
-22.53
-26.69
-32.24
-38.93
-46.24
-53.70
-60.90
-67.39
-72.53
-75.45
-75.19
-70.96
-62.39
-49.75
-33.94
-16.31
1.64
18.47
33.09
44.77
53.13
58.11
59.92
59.08
56.30
52.40
48.08
43.70
39.23
34.51
29.50
24.59
20.43
17.60
16.19
15.55
14.61
12.39
8.61
3.81
-0.92
-4.58
-6.83
-8.11
-9.35
-11.50
-15.07
-20.10
-26.27
-33.18
-40.48
-47.86
-54.92
-61.00
-65.32
-67.09
-65.61
-60.49
-51.63
-39.38
-24.52
-8.24
8.04
22.92
35.33
44.57
50.44
53.09
52.99
50.85
47.50
43.72
40.04
36.63
33.29
29.76
25.98
22.22
18.99
16.66
15.15
13.83
11.75
8.09
2.54
-4.47
-12.06
-19.24
-25.38
-30.37
-34.62
-38.76
-43.38
-48.92
-55.58
-63.31
-71.77
-80.35
-88.09
-93.95
-96.98
-96.57
-92.53
-84.96
-74.02
-59.99
-43.18
-24.26
-4.40
14.78
31.48
44.23
52.34
55.97
56.09
53.97
50.76
47.10
43.12
38.59
33.39
27.76
22.32
17.82
14.77
13.11
12.10
10.67
7.86
3.33
-2.57
-8.96
-14.91
-19.81
-23.66
-26.98
-30.50
-34.88
-40.39
-46.90
-53.90
-60.70
-66.65
-71.26
-74.12
-74.90
-73.20
-68.49
-60.29
-48.37
-32.97
-14.93
4.39
23.42
40.64
54.79
65.11
71.38
73.87
73.31
70.60
66.52
61.59
55.98
49.81
43.42
37.42
32.64
29.55
27.99
27.03
25.32
21.76
16.05
8.85
1.44
-4.91
-9.54
-12.69
-15.25
-18.36
-22.84
-28.91
-36.18
-43.99
-51.61
-58.52
-64.47
-69.30
-72.66
-73.85
-71.84
-65.43
-53.75
-36.73
-15.44
7.91
30.45
49.43
62.96
70.54
72.91
71.68
68.56
64.89
61.41
58.21
55.04
51.55
47.48
42.85
37.89
32.97
28.36
24.04
19.71
14.89
9.26
2.96
-3.48
-9.33
-14.10
-17.89
-21.44
-25.80
-31.88
-40.08
-50.17
-61.46
-73.00
-83.85
-93.11
-99.96
-103.63
-103.44
-98.88
-89.69
-75.96
-58.14
-37.13
-14.19
9.10
31.02
50.00
64.90
75.19
81.01
83.04
82.30
79.85
76.53
72.79
68.68
64.12
59.12
53.96
49.19
45.34
42.56
40.38
37.81
33.77
27.62
19.52
10.33
1.21
-7.00
-14.19
-20.89
-27.93
-35.99
-45.35
-55.88
-67.31
-79.34
-91.57
-103.36
-113.61
-120.88
-123.60
-120.64
-111.58
-96.84
-77.44
-54.74
-30.16
-5.07
19.17
41.20
59.69
73.59
82.35
86.19
86.01
83.15
78.88
74.03
68.89
63.44
57.76
52.23
47.46
43.94
41.61
39.75
37.19
32.84
26.24
17.73
8.35
-0.68
-8.45
-14.77
-20.16
-25.52
-31.79
-39.54
-48.84
-59.29
-70.19
-80.66
-89.79
-96.66
-100.29
-99.77
-94.32
-83.49
-67.31
-46.42
-22.09
3.82
29.11
51.62
69.59
82.08
89.07
91.34
90.17
86.87
82.43
77.40
71.97
66.23
60.42
54.99
50.45
47.02
44.43
41.86
38.29
33.03
26.03
18.08
10.40
4.10
-0.39
-3.52
-6.42
-10.32
-16.07
-23.86
-33.23
-43.40
-53.57
-63.04
-71.28
-77.75
-81.94
-83.20
-80.97
-74.79
-64.46
-50.14
-32.24
-11.54
10.94
33.85
55.50
74.07
87.90
95.95
98.13
95.41
89.35
81.64
73.49
65.50
57.80
50.51
43.98
38.70
34.92
32.31
29.93
26.65
21.75
15.31
8.14
1.40
-4.16
-8.50
-12.40
-17.02
-23.38
-31.96
-42.51
-54.17
-65.71
-75.93
-83.84
-88.88
-90.85
-89.73
-85.38
-77.26
-64.56
-46.67
-23.79
2.61
29.81
54.59
74.15
87.02
93.32
94.45
92.33
88.58
84.04
78.81
72.63
65.36
57.36
49.55
43.09
38.86
36.92
36.32
35.37
32.40
26.58
18.31
9.08
0.66
-5.77
-10.21
-13.72
-17.81
-23.60
-31.44
-40.85
-50.86
-60.50
-69.06
-76.14
-81.49
-84.78
-85.52
-83.00
-76.48
-65.40
-49.72
-30.18
-8.37
13.57
33.44
49.58
61.22
68.53
72.29
73.45
72.84
70.99
68.18
64.48
59.93
54.65
48.92
43.22
38.19
34.28
31.53
29.36
26.78
22.83
17.13
10.06
2.64
-4.03
-9.28
-13.12
-16.17
-19.29
-23.13
-27.97
-33.72
-40.10
-46.82
-53.64
-60.27
-66.33
-71.25
-74.34
-74.88
-72.17
-65.67
-55.20
-40.98
-23.81
-4.97
13.91
31.17
45.42
55.74
61.84
64.02
63.11
60.24
56.51
52.67
49.00
45.27
41.12
36.43
31.48
26.94
23.39
20.92
18.98
16.59
12.96
7.93
2.11
-3.48
-7.97
-11.22
-13.85
-16.99
-21.59
-28.02
-35.86
-44.14
-51.79
-58.07
-62.73
-65.94
-67.98
-68.89
-68.17
-64.87
-57.90
-46.59
-31.17
-12.94
6.03
23.55
37.93
48.39
54.97
58.35
59.34
58.67
56.89
54.30
50.96
46.75
41.54
35.36
28.73
22.53
17.69
14.70
13.25
12.32
10.63
7.39
2.65
-2.68
-7.39
-10.60
-12.14
-12.72
-13.34
-15.00
-18.19
-22.86
-28.63
-34.93
-41.22
-47.13
-52.37
-56.74
-60.06
-62.03
-62.09
-59.46
-53.22
-42.81
-28.42
-11.28
6.61
22.94
35.97
44.97
50.24
52.75
53.50
53.21
52.20
50.50
48.13
45.10
41.53
37.58
33.64
30.23
27.89
26.87
26.79
26.69
25.39
22.07
16.68
9.98
3.17
-2.81
-7.58
-11.42
-14.90
-18.48
-22.31
-26.38
-30.71
-35.53
-41.08
-47.34
-53.80
-59.44
-63.09
-63.86
-61.38
-55.84
-47.67
-37.34
-25.20
-11.66
2.59
16.50
28.71
37.99
43.64
45.70
44.89
42.33
39.07
35.82
32.89
30.21
27.54
24.65
21.40
17.84
14.25
11.04
8.60
7.08
6.37
6.02
5.50
4.38
2.47
-0.15
-3.27
-6.62
-10.02
-13.42
-16.82
-20.27
-23.93
-28.03
-32.80
-38.41
-44.81
-51.68
-58.43
-64.27
-68.39
-70.13
-69.10
-65.23
-58.78
-50.17
-39.84
-28.25
-15.77
-2.85
9.95
21.84
31.97
39.51
43.96
45.31
44.07
41.12
37.38
33.50
29.73
25.96
21.96
17.78
13.78
10.44
8.10
6.57
5.21
3.17
-0.10
-4.66
-9.92
-15.08
-19.54
-23.24
-26.65
-30.60
-35.85
-42.74
-51.13
-60.37
-69.56
-77.83
-84.46
-89.07
-91.63
-92.24
-90.94
-87.42
-81.04
-71.09
-57.18
-39.63
-19.78
0.30
18.24
32.17
41.17
45.54
46.49
45.59
44.13
42.71
41.19
39.01
35.75
31.50
27.01
23.26
20.94
20.02
19.70
18.84
16.61
12.88
8.30
3.79
0.06
-2.79
-5.25
-8.00
-11.48
-15.71
-20.34
-24.95
-29.29
-33.38
-37.33
-41.13
-44.56
-47.16
-48.33
-47.42
-43.82
-36.96
-26.50
-12.51
4.32
22.55
40.22
55.25
65.99
71.71
72.72
70.24
65.89
61.17
57.00
53.66
50.96
48.51
46.01
43.35
40.59
37.65
34.38
30.45
25.68
20.16
14.38
9.04
4.74
1.75
-0.28
-2.20
-5.09
-9.86
-16.89
-25.88
-35.89
-45.80
-54.65
-61.93
-67.51
-71.29
-72.88
-71.41
-65.91
-55.75
-41.26
-23.77
-5.31
11.98
26.48
37.26
44.10
47.27
47.36
45.19
41.73
37.90
34.25
30.84
27.29
23.20
18.55
13.92
10.26
8.26
7.95
8.56
8.90
7.86
4.88
0.08
-6.07
-12.96
-20.06
-26.97
-33.32
-38.93
-43.88
-48.61
-53.81
-60.08
-67.43
-75.12
-81.78
-85.80
-85.85
-81.25
-71.92
-58.35
-41.31
-21.87
-1.22
19.36
38.59
55.36
68.74
78.14
83.26
84.30
81.85
76.88
70.48
63.60
56.93
50.88
45.69
41.50
38.34
35.89
33.48
30.23
25.39
18.76
10.92
3.06
-3.62
-8.33
-11.22
-13.25
-15.77
-19.97
-26.39
-34.87
-44.69
-55.01
-65.05
-74.19
-81.82
-87.27
-89.75
-88.57
-83.39
-74.28
-61.70
-46.34
-28.95
-10.33
8.63
26.78
42.91
55.88
64.99
70.18
72.07
71.65
69.92
67.51
64.57
60.93
56.42
51.25
46.05
41.65
38.59
36.71
35.09
32.46
27.78
20.85
12.37
3.54
-4.50
-11.25
-16.90
-22.10
-27.42
-33.10
-39.07
-45.25
-51.73
-58.81
-66.62
-74.79
-82.23
-87.39
-88.77
-85.42
-77.24
-64.82
-49.17
-31.33
-12.25
7.15
25.87
42.76
56.71
66.90
73.04
75.46
74.97
72.57
69.13
65.16
60.83
56.14
51.03
45.64
40.30
35.44
31.47
28.48
26.21
24.07
21.34
17.47
12.35
6.34
0.09
-5.84
-11.31
-16.61
-22.38
-29.19
-37.22
-46.23
-55.63
-64.74
-72.88
-79.40
-83.60
-84.76
-82.27
-75.84
-65.59
-52.03
-35.92
-18.06
0.69
19.33
36.69
51.51
62.71
69.79
72.97
73.16
71.61
69.40
67.13
64.72
61.81
58.02
53.40
48.46
43.98
40.51
38.01
35.89
33.17
29.04
23.28
16.35
9.18
2.63
-2.85
-7.39
-11.58
-16.12
-21.51
-27.96
-35.39
-43.62
-52.35
-61.09
-69.13
-75.42
-78.85
-78.52
-74.04
-65.64
-54.01
-39.99
-24.35
-7.69
9.34
25.86
40.66
52.50
60.46
64.38
65.01
63.70
61.82
60.15
58.67
56.70
53.57
49.16
44.07
39.38
35.92
33.83
32.36
30.30
26.67
21.19
14.40
7.32
0.86
-4.61
-9.27
-13.70
-18.46
-23.84
-29.87
-36.44
-43.47
-50.88
-58.46
-65.74
-71.87
-75.87
-76.85
-74.29
-68.14
-58.68
-46.38
-31.81
-15.65
1.21
17.55
32.01
43.35
50.82
54.41
54.81
53.09
50.25
46.95
43.39
39.55
35.43
31.27
27.51
24.56
22.53
21.07
19.53
17.22
13.79
9.36
4.40
-0.53
-5.02
-9.02
-12.80
-16.70
-21.11
-26.27
-32.28
-39.03
-46.12
-52.84
-58.20
-61.19
-61.09
-57.61
-50.99
-41.72
-30.40
-17.50
-3.49
10.97
24.86
36.88
45.79
50.88
52.33
51.12
48.64
46.14
44.22
42.71
40.92
38.13
34.14
29.40
24.76
21.04
18.49
16.61
14.50
11.35
6.94
1.79
-3.13
-6.99
-9.60
-11.52
-13.81
-17.53
-23.20
-30.66
-39.16
-47.68
-55.25
-61.13
-64.82
-66.02
-64.61
-60.50
-53.64
-44.04
-31.93
-17.85
-2.70
12.21
25.54
36.12
43.34
47.26
48.50
47.94
46.37
44.24
41.66
38.54
34.83
30.72
26.62
23.11
20.52
18.85
17.56
15.84
12.98
8.72
3.48
-1.85
-6.32
-9.47
-11.62
-13.67
-16.76
-21.59
-28.22
-35.95
-43.74
-50.60
-55.80
-58.91
-59.79
-58.42
-54.79
-48.95
-40.99
-31.06
-19.37
-6.30
7.51
21.16
33.48
43.35
49.97
53.18
53.47
51.80
49.18
46.32
43.46
40.41
36.95
33.04
28.99
25.35
22.54
20.61
19.10
17.23
14.29
10.02
4.77
-0.66
-5.49
-9.34
-12.53
-15.85
-20.28
-26.44
-34.27
-43.09
-51.82
-59.38
-65.01
-68.40
-69.51
-68.48
-65.38
-60.15
-52.66
-42.74
-30.47
-16.29
-1.15
13.65
26.62
36.57
42.89
45.72
45.83
44.28
42.02
39.58
37.06
34.28
31.11
27.67
24.38
21.75
19.97
18.76
17.40
15.03
11.12
5.84
-0.02
-5.39
-9.51
-12.30
-14.48
-17.18
-21.38
-27.46
-35.05
-43.24
-50.90
-57.05
-61.07
-62.75
-62.17
-59.52
-54.93
-48.41
-39.79
-28.99
-16.22
-2.16
12.07
25.04
35.48
42.63
46.41
47.43
46.66
45.10
43.43
41.87
40.24
38.18
35.44
32.11
28.69
25.75
23.67
22.36
21.22
19.44
16.40
11.95
6.50
0.74
-4.67
-9.47
-13.84
-18.29
-23.43
-29.63
-37.02
-45.38
-54.30
-63.21
-71.39
-78.03
-82.28
-83.42
-80.96
-74.76
-65.01
-52.27
-37.30
-21.00
-4.41
11.49
25.70
37.45
46.21
51.78
54.36
54.48
52.95
50.67
48.37
46.42
44.75
42.99
40.73
37.88
34.71
31.66
29.03
26.73
24.22
20.82
16.08
10.05
3.31
-3.33
-9.15
-13.86
-17.68
-21.23
-25.30
-30.59
-37.51
-46.03
-55.69
-65.54
-74.39
-80.98
-84.28
-83.65
-78.97
-70.48
-58.77
-44.53
-28.60
-11.79
5.01
20.93
35.14
46.95
55.82
61.50
64.05
63.93
61.91
58.88
55.57
52.33
49.14
45.76
42.06
38.16
34.40
31.06
28.14
25.15
21.43
16.45
10.11
2.94
-4.17
-10.38
-15.24
-18.90
-22.03
-25.53
-30.20
-36.45
-44.23
-53.12
-62.37
-71.17
-78.60
-83.83
-86.11
-84.88
-79.86
-71.06
-58.77
-43.56
-26.32
-8.15
9.64
25.76
39.10
49.05
55.51
58.88
59.94
59.56
58.46
57.12
55.63
53.79
51.38
48.28
44.69
41.12
38.00
35.44
33.09
30.25
26.24
20.83
14.40
7.66
1.36
-4.12
-8.88
-13.48
-18.55
-24.60
-31.85
-40.17
-49.17
-58.23
-66.64
-73.64
-78.51
-80.65
-79.56
-74.84
-66.18
-53.62
-37.61
-19.19
0.22
18.96
35.52
48.81
58.29
64.00
66.45
66.46
64.90
62.48
59.61
56.35
52.60
48.35
43.89
39.79
36.63
34.60
33.23
31.57
28.54
23.51
16.65
8.86
1.31
-5.12
-10.26
-14.67
-19.27
-24.89
-31.80
-39.73
-48.04
-55.98
-62.95
-68.53
-72.41
-74.25
-73.67
-70.25
-63.62
-53.56
-40.14
-23.90
-5.87
12.56
29.79
44.44
55.61
63.07
67.17
68.69
68.43
67.07
64.96
62.20
58.75
54.60
49.96
45.28
41.17
38.07
36.01
34.46
32.45
28.93
23.27
15.59
6.67
-2.38
-10.60
-17.62
-23.64
-29.24
-35.01
-41.33
-48.33
-55.94
-63.92
-71.81
-78.88
-84.14
-86.57
-85.33
-80.06
-70.84
-58.10
-42.53
-24.87
-6.06
12.79
30.47
45.80
57.97
66.62
71.92
74.42
74.87
73.99
72.21
69.68
66.24
61.65
55.86
49.25
42.57
36.72
32.34
29.41
27.31
25.04
21.74
17.02
11.19
4.90
-1.13
-6.51
-11.33
-16.04
-21.24
-27.33
-34.49
-42.58
-51.26
-60.05
-68.32
-75.32
-80.18
-82.08
-80.34
-74.63
-64.97
-51.81
-35.87
-18.12
0.30
18.16
34.33
47.90
58.35
65.56
69.83
71.68
71.75
70.58
68.56
65.82
62.35
58.09
53.20
48.06
43.24
39.18
35.99
33.28
30.36
26.53
21.49
15.43
8.89
2.46
-3.55
-9.22
-14.92
-21.02
-27.76
-35.14
-42.99
-51.18
-59.51
-67.69
-75.21
-81.35
-85.24
-86.17
-83.72
-77.88
-68.88
-57.11
-42.98
-26.92
-9.55
8.20
25.06
39.65
50.78
57.85
61.04
61.26
59.72
57.54
55.20
52.57
49.15
44.59
39.11
33.52
28.83
25.66
23.84
22.43
20.18
16.19
10.42
3.65
-2.95
-8.42
-12.49
-15.70
-19.03
-23.36
-29.07
-35.93
-43.26
-50.33
-56.62
-61.92
-66.18
-69.33
-71.06
-70.90
-68.25
-62.58
-53.58
-41.28
-26.16
-9.20
8.24
24.59
38.40
48.66
55.03
57.80
57.75
55.88
53.03
49.71
46.11
42.22
38.07
33.88
30.04
26.94
24.71
23.01
21.16
18.37
14.21
8.77
2.68
-3.20
-8.23
-12.20
-15.44
-18.64
-22.55
-27.67
-34.12
-41.67
-49.74
-57.60
-64.45
-69.54
-72.28
-72.26
-69.25
-63.13
-53.87
-41.60
-26.74
-10.14
6.96
23.10
36.90
47.39
54.23
57.73
58.69
58.04
56.59
54.78
52.58
49.71
45.90
41.18
36.04
31.24
27.49
25.04
23.49
21.92
19.35
15.18
9.44
2.75
-4.03
-10.22
-15.56
-20.22
-24.59
-29.14
-34.12
-39.65
-45.77
-52.42
-59.45
-66.49
-72.83
-77.41
-79.11
-77.01
-70.71
-60.43
-46.88
-31.05
-14.07
3.00
19.17
33.50
45.19
53.66
58.71
60.55
59.79
57.28
53.89
50.25
46.65
43.13
39.60
36.13
32.99
30.54
28.98
28.10
27.22
25.43
22.02
16.79
10.19
3.09
-3.57
-9.24
-13.91
-18.13
-22.70
-28.34
-35.42
-43.82
-52.85
-61.51
-68.65
-73.32
-74.90
-73.19
-68.36
-60.74
-50.73
-38.68
-24.96
-10.06
5.24
19.90
32.73
42.68
49.14
52.11
52.16
50.20
47.17
43.72
40.12
36.34
32.35
28.33
24.67
21.74
19.67
18.13
16.39
13.64
9.39
3.74
-2.65
-8.80
-13.91
-17.67
-20.39
-22.86
-25.96
-30.43
-36.67
-44.59
-53.71
-63.17
-71.87
-78.62
-82.41
-82.57
-78.88
-71.48
-60.84
-47.50
-32.01
-15.11
2.28
18.94
33.56
45.01
52.71
56.82
58.09
57.50
55.82
53.38
50.05
45.56
39.92
33.68
27.80
23.29
20.68
19.67
19.27
18.18
15.44
10.84
4.93
-1.28
-6.89
-11.51
-15.30
-18.87
-22.91
-27.89
-34.01
-41.15
-48.92
-56.74
-63.82
-69.29
-72.27
-72.08
-68.33
-60.94
-50.10
-36.26
-20.09
-2.56
15.09
31.46
45.28
55.69
62.45
65.90
66.83
66.14
64.52
62.29
59.47
55.87
51.44
46.41
41.36
36.89
33.35
30.46
27.41
23.24
17.37
10.00
2.11
-5.10
-10.77
-14.88
-18.22
-22.04
-27.41
-34.84
-44.10
-54.35
-64.44
-73.24
-79.83
-83.60
-84.20
-81.51
-75.52
-66.23
-53.78
-38.53
-21.20
-2.91
15.07
31.50
45.38
56.08
63.37
67.31
68.28
66.91
63.94
60.07
55.77
51.30
46.79
42.45
38.65
35.76
33.87
32.51
30.73
27.42
21.89
14.21
5.25
-3.70
-11.46
-17.49
-22.11
-26.21
-31.00
-37.43
-45.90
-56.09
-67.03
-77.28
-85.27
-89.74
-89.84
-85.36
-76.60
-64.14
-48.65
-30.80
-11.31
8.93
28.69
46.52
60.95
70.99
76.42
77.91
76.72
74.23
71.39
68.48
65.22
61.17
56.17
50.61
45.30
40.99
37.94
35.69
33.23
29.49
23.90
16.55
8.21
-0.13
-7.71
-14.29
-20.18
-26.04
-32.47
-39.82
-48.12
-57.19
-66.76
-76.50
-85.98
-94.46
-100.88
-104.03
-102.87
-96.77
-85.73
-70.30
-51.43
-30.32
-8.34
12.97
32.11
47.69
58.90
65.60
68.44
68.53
67.12
65.16
63.07
60.80
58.10
54.84
51.18
47.61
44.59
42.30
40.34
37.84
33.83
27.79
19.95
11.28
3.11
-3.52
-8.32
-11.85
-15.17
-19.43
-25.28
-32.76
-41.36
-50.30
-58.82
-66.30
-72.16
-75.76
-76.33
-73.16
-65.75
-54.17
-39.13
-21.87
-3.92
13.28
28.53
41.07
50.50
56.79
60.24
61.38
60.87
59.30
57.11
54.51
51.59
48.49
45.41
42.60
40.22
38.21
36.23
33.86
30.63
26.30
20.86
14.60
8.04
1.69
-3.99
-8.97
-13.60
-18.64
-24.88
-32.82
-42.35
-52.72
-62.77
-71.28
-77.29
-80.22
-79.89
-76.27
-69.38
-59.29
-46.16
-30.45
-12.98
5.09
22.49
37.98
50.61
59.83
65.51
67.95
67.74
65.65
62.43
58.64
54.60
50.49
46.42
42.61
39.29
36.63
34.52
32.57
30.18
26.79
22.15
16.40
9.97
3.45
-2.77
-8.51
-13.86
-19.11
-24.56
-30.52
-37.23
-44.90
-53.43
-62.40
-70.88
-77.60
-81.15
-80.46
-75.08
-65.32
-52.05
-36.39
-19.46
-2.22
14.47
29.72
42.64
52.41
58.57
61.20
60.96
58.96
56.32
53.87
51.78
49.72
47.12
43.64
39.43
35.14
31.52
29.02
27.48
26.16
24.11
20.62
15.60
9.55
3.30
-2.44
-7.38
-11.72
-16.01
-20.81
-26.49
-33.19
-40.76
-48.97
-57.46
-65.71
-72.92
-78.05
-80.05
-78.17
-72.10
-62.09
-48.75
-32.89
-15.30
3.14
21.38
38.18
52.27
62.64
68.88
71.37
71.07
69.13
66.53
63.67
60.47
56.57
51.78
46.32
40.83
36.10
32.64
30.33
28.40
25.77
21.56
15.52
8.20
0.65
-6.05
-11.32
-15.28
-18.60
-22.20
-26.83
-32.77
-39.88
-47.74
-55.76
-63.46
-70.34
-75.98
-79.85
-81.44
-80.25
-75.82
-67.94
-56.64
-42.40
-26.00
-8.59
8.53
24.07
36.90
46.25
51.88
54.06
53.46
50.98
47.46
43.53
39.52
35.59
31.89
28.66
26.21
24.75
24.17
23.95
23.31
21.53
18.27
13.70
8.42
3.15
-1.56
-5.58
-9.18
-12.85
-17.03
-22.04
-27.93
-34.58
-41.73
-49.03
-56.01
-62.09
-66.64
-69.05
-68.83
-65.73
-59.69
-50.83
-39.35
-25.62
-10.19
6.10
22.14
36.59
48.14
55.83
59.33
59.07
56.11
51.82
47.35
43.32
39.79
36.46
33.02
29.43
25.95
23.00
20.78
19.08
17.33
14.76
10.75
5.07
-1.98
-9.80
-17.60
-24.80
-31.20
-36.97
-42.61
-48.70
-55.79
-64.24
-74.12
-85.14
-96.54
-107.11
-115.33
-119.68
-118.98
-112.65
-100.71
-83.68
-62.50
-38.46
-13.28
11.09
32.64
49.63
60.67
64.80
61.44
50.50
32.69
9.85
-15.14
-38.84
-58.23
-71.54
-78.67
-80.90
-80.11
-78.15
-76.48
-76.26
-78.57
-84.19
-93.33
-105.40
-119.09
-132.83
-145.29
-155.59
-163.07
-166.95
-166.16
-159.52
-146.43
-127.43
-104.29
-79.65
-56.12
-35.52
-18.35
-3.84
9.65
24.18
41.86
64.57
93.61
129.10
169.50
211.29
249.58
279.33
297.03
302.04
296.63
284.86
270.63
255.89
240.15
221.26
197.09
167.15
133.11
98.32
66.53
40.73
22.53
12.24
9.26
12.52
20.81
32.61
46.06
58.87
68.65
73.37
72.05
65.26
55.08
44.47
36.08
31.09
28.54
25.57
18.69
5.66
-13.02
-33.46
-49.54
-55.12
-46.86
-26.19
0.65
24.65
37.65
35.85
21.57
2.40
-11.98
-14.03
-1.38
22.20
48.52
68.19
74.00
63.28
38.54
6.38
-24.62
-46.33
-53.39
-44.54
-22.87
5.15
31.48
48.59
51.19
37.34
8.66
-30.16
-72.44
-111.02
-139.80
-155.11
-156.39
-146.00
-128.23
-107.70
-88.05
-71.14
-57.19
-45.35
-34.48
-23.66
-12.36
-0.30
12.60
26.19
39.99
53.11
64.32
72.45
76.80
77.39
74.88
70.25
64.27
57.24
49.04
39.43
28.45
16.66
5.15
-4.76
-11.87
-15.43
-15.44
-12.61
-8.33
-4.37
-2.47
-3.92
-9.31
-18.34
-29.95
-42.64
-54.79
-65.00
-72.34
-76.37
-77.09
-74.77
-69.77
-62.47
-53.37
-43.16
-32.68
-22.79
-14.11
-6.79
-0.63
4.68
9.20
12.70
14.70
14.93
13.57
11.37
9.36
8.56
9.54
12.46
17.05
22.79
28.97
34.64
38.67
39.92
37.47
31.06
21.21
9.20
-3.31
-14.72
-24.14
-31.46
-37.36
-42.84
-48.67
-54.96
-60.99
-65.54
-67.31
-65.52
-60.18
-52.10
-42.56
-32.71
-23.34
-14.50
-5.78
3.43
13.49
24.12
34.40
42.91
48.34
49.96
47.92
43.16
37.04
30.76
24.95
19.63
14.36
8.67
2.32
-4.49
-11.23
-17.28
-22.16
-25.71
-28.09
-29.73
-31.17
-32.99
-35.74
-39.95
-46.00
-53.90
-63.09
-72.31
-79.77
-83.63
-82.53
-75.96
-64.29
-48.61
-30.33
-10.89
8.50
26.81
43.20
57.07
67.99
75.66
79.93
80.86
78.71
74.01
67.55
60.20
52.72
45.65
39.24
33.49
28.33
23.64
19.28
15.06
10.69
5.85
0.36
-5.78
-12.30
-18.75
-24.67
-29.86
-34.52
-39.30
-45.03
-52.31
-60.98
-70.04
-77.75
-82.35
-82.54
-77.98
-69.21
-57.28
-43.25
-27.89
-11.70
4.90
21.28
36.56
49.66
59.65
66.01
68.80
68.68
66.61
63.51
59.96
56.00
51.27
45.44
38.54
31.14
24.21
18.61
14.62
11.80
9.17
5.81
1.31
-4.03
-9.49
-14.44
-18.73
-22.87
-27.70
-33.94
-41.85
-50.99
-60.44
-69.01
-75.50
-78.95
-78.68
-74.38
-66.10
-54.20
-39.41
-22.65
-4.98
12.48
28.65
42.56
53.44
60.81
64.63
65.28
63.46
60.01
55.66
50.87
45.85
40.69
35.56
30.79
26.71
23.46
20.78
18.06
14.59
9.91
4.11
-2.29
-8.58
-14.28
-19.36
-24.28
-29.74
-36.34
-44.29
-53.32
-62.73
-71.54
-78.70
-83.34
-84.85
-82.92
-77.46
-68.53
-56.36
-41.33
-24.12
-5.77
12.36
28.82
42.34
52.17
58.21
60.89
60.96
59.23
56.24
52.25
47.38
41.77
35.79
30.10
25.37
22.05
20.06
18.86
17.56
15.34
11.75
6.88
1.25
-4.47
-9.79
-14.63
-19.30
-24.39
-30.59
-38.39
-47.93
-58.76
-69.96
-80.18
-88.00
-92.26
-92.27
-87.90
-79.33
-66.99
-51.35
-33.02
-12.92
7.69
27.23
44.11
57.17
65.98
70.87
72.70
72.42
70.82
68.28
64.86
60.52
55.31
49.59
43.90
38.80
34.63
31.24
28.07
24.33
19.45
13.25
6.10
-1.23
-7.99
-13.70
-18.45
-22.77
-27.46
-33.18
-40.35
-48.92
-58.43
-68.02
-76.64
-83.25
-86.97
-87.16
-83.43
-75.65
-63.86
-48.42
-30.10
-10.06
10.16
29.00
45.06
57.51
66.09
71.11
73.13
72.79
70.60
66.91
61.95
55.98
49.40
42.80
36.84
32.05
28.57
25.99
23.46
20.05
15.16
8.84
1.70
-5.34
-11.61
-16.94
-21.76
-26.77
-32.65
-39.80
-48.20
-57.54
-67.22
-76.41
-84.09
-89.19
-90.72
-87.99
-80.75
-69.18
-53.79
-35.41
-15.15
5.67
25.53
42.99
56.93
66.82
72.77
75.42
75.63
74.18
71.60
68.12
63.79
58.63
52.86
46.89
41.34
36.74
33.34
30.88
28.63
25.62
21.08
14.79
7.17
-0.91
-8.56
-15.29
-21.21
-26.98
-33.44
-41.23
-50.49
-60.85
-71.56
-81.73
-90.47
-96.89
-100.19
-99.61
-94.50
-84.56
-69.93
-51.30
-29.84
-7.05
15.50
36.29
54.13
68.18
78.08
83.95
86.26
85.70
83.03
78.94
73.92
68.33
62.48
56.65
51.19
46.41
42.46
39.17
36.01
32.19
27.00
20.12
11.81
2.87
-5.74
-13.24
-19.39
-24.50
-29.28
-34.57
-41.10
-49.27
-59.07
-69.95
-80.85
-90.25
-96.53
-98.31
-94.77
-85.84
-72.09
-54.46
-34.08
-12.19
9.97
31.05
49.72
64.82
75.69
82.23
84.98
84.84
82.75
79.47
75.45
70.83
65.71
60.23
54.65
49.34
44.56
40.39
36.60
32.80
28.54
23.54
17.75
11.33
4.67
-1.83
-7.75
-12.88
-17.26
-21.25
-25.50
-30.71
-37.46
-45.86
-55.52
-65.57
-74.89
-82.34
-86.94
-87.92
-84.73
-77.09
-65.04
-49.02
-29.91
-8.97
12.23
32.06
49.06
62.13
70.73
74.95
75.46
73.24
69.35
64.64
59.67
54.73
50.04
45.82
42.30
39.58
37.54
35.78
33.78
31.05
27.40
22.91
17.95
12.89
8.00
3.31
-1.41
-6.56
-12.56
-19.73
-28.22
-37.84
-48.15
-58.37
-67.53
-74.49
-78.22
-77.82
-72.81
-63.16
-49.35
-32.32
-13.36
6.05
24.35
40.15
52.41
60.61
64.81
65.60
63.81
60.29
55.70
50.44
44.74
38.82
32.99
27.66
23.22
19.87
17.43
15.39
13.06
9.85
5.51
0.19
-5.62
-11.40
-16.84
-21.97
-27.11
-32.71
-39.16
-46.63
-55.00
-63.85
-72.45
-79.87
-85.12
-87.32
-85.90
-80.57
-71.38
-58.55
-42.48
-23.85
-3.71
16.50
35.10
50.47
61.52
67.96
70.30
69.64
67.28
64.26
61.13
57.96
54.55
50.77
46.76
42.89
39.57
36.91
34.49
31.51
27.15
21.03
13.41
5.12
-2.80
-9.59
-15.04
-19.44
-23.44
-27.65
-32.56
-38.47
-45.45
-53.34
-61.68
-69.67
-76.29
-80.44
-81.22
-78.07
-70.74
-59.33
-44.27
-26.33
-6.78
12.76
30.53
45.02
55.32
61.30
63.53
63.02
60.82
57.74
54.26
50.45
46.28
41.69
36.89
32.32
28.53
25.90
24.34
23.25
21.75
19.03
14.80
9.37
3.51
-1.98
-6.69
-10.70
-14.58
-19.02
-24.58
-31.51
-39.70
-48.77
-58.12
-66.98
-74.43
-79.56
-81.58
-79.93
-74.34
-64.85
-51.75
-35.70
-17.70
0.88
18.50
33.73
45.55
53.59
58.09
59.69
59.16
57.18
54.15
50.35
45.91
41.03
36.05
31.46
27.72
25.07
23.33
21.88
19.86
16.54
11.59
5.30
-1.62
-8.36
-14.38
-19.54
-24.10
-28.49
-33.22
-38.68
-45.11
-52.54
-60.72
-69.05
-76.60
-82.32
-85.23
-84.68
-80.34
-72.19
-60.51
-45.73
-28.58
-10.07
8.56
26.05
41.32
53.61
62.60
68.28
70.97
71.11
69.26
65.92
61.51
56.28
50.46
44.42
38.69
33.94
30.62
28.69
27.42
25.69
22.39
16.96
9.65
1.39
-6.62
-13.45
-18.79
-22.95
-26.63
-30.63
-35.46
-41.36
-48.17
-55.57
-63.15
-70.44
-76.97
-82.23
-85.55
-86.18
-83.29
-76.16
-64.48
-48.56
-29.51
-9.00
11.05
28.89
43.38
53.97
60.76
64.14
64.69
63.01
59.78
55.58
50.94
46.26
41.78
37.64
33.93
30.77
28.11
25.74
23.25
20.13
15.95
10.63
4.50
-1.88
-7.88
-13.19
-17.93
-22.53
-27.59
-33.59
-40.68
-48.66
-57.07
-65.29
-72.60
-78.34
-81.78
-82.19
-78.89
-71.37
-59.55
-43.89
-25.45
-5.79
13.37
30.41
44.10
53.83
59.59
61.88
61.51
59.37
56.21
52.42
48.16
43.35
38.03
32.43
27.07
22.54
19.32
17.38
16.24
15.06
12.90
9.17
3.81
-2.75
-9.79
-16.61
-22.89
-28.78
-34.80
-41.58
-49.60
-58.85
-68.86
-78.70
-87.26
-93.47
-96.44
-95.50
-90.23
-80.45
-66.34
-48.58
-28.44
-7.53
12.42
29.97
44.24
54.89
61.99
65.91
67.13
66.27
64.04
61.07
57.88
54.65
51.35
47.85
44.13
40.34
36.71
33.34
30.02
26.24
21.38
15.06
7.35
-1.18
-9.73
-17.59
-24.46
-30.62
-36.75
-43.58
-51.64
-61.02
-71.35
-81.95
-91.94
-100.38
-106.35
-108.88
-107.12
-100.49
-88.80
-72.51
-52.62
-30.64
-8.18
13.31
32.80
49.69
63.69
74.63
82.37
86.82
88.18
86.93
83.80
79.62
74.94
70.06
65.04
59.95
54.97
50.38
46.30
42.49
38.41
33.34
26.81
18.86
10.04
1.24
-6.76
-13.60
-19.43
-24.85
-30.59
-37.30
-45.40
-55.05
-66.14
-78.27
-90.60
-101.91
-110.66
-115.28
-114.50
-107.69
-94.88
-76.83
-54.76
-30.24
-4.89
19.70
42.13
61.32
76.52
87.43
94.21
97.39
97.74
96.04
92.91
88.69
83.50
77.45
70.90
64.50
59.01
54.97
52.35
50.42
48.05
44.14
38.16
30.31
21.34
12.19
3.61
-4.19
-11.45
-18.57
-26.02
-34.10
-43.01
-52.84
-63.55
-74.83
-86.02
-95.96
-103.27
-106.48
-104.40
-96.37
-82.44
-63.44
-40.87
-16.57
7.54
29.90
49.43
65.54
78.01
86.79
91.93
93.73
92.68
89.53
85.02
79.72
73.97
67.95
61.89
56.18
51.25
47.32
44.16
41.12
37.43
32.48
26.18
18.96
11.49
4.41
-1.98
-7.77
-13.25
-18.73
-24.42
-30.40
-36.82
-43.95
-52.17
-61.74
-72.52
-83.76
-94.13
-101.94
-105.58
-103.90
-96.37
-83.19
-65.18
-43.63
-20.15
3.51
25.68
45.01
60.59
71.98
79.19
82.67
83.19
81.67
79.02
75.85
72.37
68.46
63.89
58.64
53.02
47.60
42.88
39.01
35.61
32.01
27.56
21.96
15.36
8.31
1.40
-4.92
-10.49
-15.46
-20.19
-25.10
-30.63
-37.19
-45.02
-54.18
-64.40
-75.02
-84.91
-92.67
-96.85
-96.33
-90.61
-79.93
-65.09
-47.18
-27.34
-6.67
13.77
32.91
49.63
62.98
72.36
77.71
79.46
78.44
75.52
71.49
66.85
61.89
56.72
51.45
46.28
41.55
37.65
34.82
32.94
31.45
29.51
26.33
21.48
15.08
7.71
0.21
-6.68
-12.54
-17.33
-21.34
-25.01
-28.78
-33.09
-38.31
-44.81
-52.80
-62.10
-71.92
-80.90
-87.36
-89.74
-87.13
-79.52
-67.60
-52.45
-35.11
-16.42
2.84
21.78
39.27
54.04
65.03
71.68
74.15
73.26
70.21
66.25
62.34
58.91
55.85
52.76
49.24
45.25
41.18
37.72
35.39
34.27
33.78
32.94
30.75
26.66
20.82
13.97
7.06
0.86
-4.30
-8.59
-12.48
-16.51
-21.15
-26.67
-33.31
-41.16
-50.13
-59.86
-69.46
-77.65
-82.92
-83.95
-80.02
-71.20
-58.31
-42.53
-25.13
-7.23
10.20
26.16
39.63
49.66
55.71
57.92
57.07
54.32
50.73
46.93
42.98
38.61
33.64
28.32
23.23
19.06
16.17
14.30
12.71
10.50
7.12
2.59
-2.48
-7.28
-11.24
-14.26
-16.71
-19.23
-22.38
-26.48
-31.55
-37.42
-43.82
-50.55
-57.42
-64.18
-70.42
-75.49
-78.47
-78.37
-74.31
-65.86
-53.21
-37.27
-19.47
-1.52
14.92
28.46
38.23
43.97
46.08
45.48
43.29
40.45
37.44
34.28
30.69
26.55
22.06
17.80
14.38
12.03
10.51
9.19
7.42
4.83
1.53
-2.14
-5.74
-9.02
-12.01
-14.89
-17.86
-21.14
-24.98
-29.64
-35.32
-42.03
-49.46
-56.96
-63.71
-68.87
-71.73
-71.76
-68.55
-61.87
-51.69
-38.36
-22.64
-5.76
10.71
25.16
36.29
43.45
46.70
46.69
44.46
41.07
37.26
33.41
29.58
25.66
21.64
17.61
13.85
10.58
7.87
5.53
3.18
0.42
-2.94
-6.81
-10.89
-14.83
-18.56
-22.26
-26.36
-31.21
-36.83
-42.96
-49.24
-55.45
-61.57
-67.75
-73.84
-79.24
-82.88
-83.50
-80.05
-72.03
-59.64
-43.66
-25.31
-6.06
12.55
29.14
42.66
52.56
58.85
61.97
62.55
61.19
58.33
54.27
49.25
43.52
37.44
31.48
26.13
21.88
18.90
16.95
15.32
13.07
9.43
4.19
-2.22
-8.88
-14.91
-19.88
-24.01
-28.07
-33.06
-39.75
-48.48
-58.95
-70.26
-81.03
-89.65
-94.57
-94.65
-89.40
-79.11
-64.62
-47.10
-27.77
-7.74
12.02
30.59
47.05
60.53
70.42
76.51
79.06
78.79
76.61
73.30
69.33
64.87
59.94
54.73
49.64
45.13
41.50
38.50
35.42
31.33
25.61
18.25
9.90
1.53
-6.07
-12.60
-18.27
-23.62
-29.20
-35.40
-42.47
-50.53
-59.62
-69.59
-79.93
-89.74
-97.85
-102.99
-104.09
-100.47
-91.79
-78.18
-60.21
-38.88
-15.69
7.48
28.70
46.27
59.16
67.16
70.86
71.34
69.81
67.25
64.19
60.74
56.82
52.44
47.85
43.46
39.73
36.80
34.43
32.01
28.86
24.54
19.08
12.96
6.83
1.26
-3.57
-7.98
-12.57
-18.07
-24.94
-33.27
-42.66
-52.43
-61.65
-69.49
-75.18
-78.00
-77.30
-72.53
-63.43
-50.21
-33.64
-15.01
4.13
22.24
38.02
50.57
59.32
64.16
65.33
63.42
59.35
54.16
48.73
43.66
39.19
35.30
31.93
29.01
26.46
24.14
21.67
18.58
14.41
8.85
1.96
-5.86
-13.96
-21.69
-28.58
-34.56
-40.04
-45.79
-52.57
-60.88
-70.58
-80.83
-90.32
-97.56
-101.01
-99.08
-90.33
-73.89
-50.23
-21.48
8.70
36.20
57.80
72.21
80.25
83.84
84.83
84.17
81.85
77.64
71.77
65.11
58.86
53.85
50.22
47.50
45.02
42.28
38.98
34.99
30.28
24.84
18.70
12.07
5.19
-1.74
-8.73
-15.98
-23.83
-32.61
-42.50
-53.49
-65.18
-76.82
-87.34
-95.53
-100.19
-100.36
-95.41
-85.08
-69.57
-49.60
-26.54
-2.24
21.22
41.95
58.69
71.03
79.25
84.07
86.26
86.37
84.70
81.31
76.27
69.79
62.38
54.79
47.91
42.44
38.62
36.03
33.73
30.65
26.02
19.73
12.27
4.45
-3.01
-9.78
-16.06
-22.42
-29.46
-37.64
-47.08
-57.47
-68.13
-78.09
-86.24
-91.50
-92.90
-89.65
-81.23
-67.50
-48.95
-26.82
-3.05
20.09
40.50
56.81
68.58
76.15
80.35
82.09
82.04
80.63
78.09
74.59
70.32
65.59
60.80
56.43
52.88
50.25
48.23
46.10
43.01
38.29
31.82
24.06
15.79
7.85
0.71
-5.61
-11.54
-17.76
-25.01
-33.79
-44.26
-56.03
-68.20
-79.52
-88.58
-94.11
-95.24
-91.55
-83.06
-70.11
-53.36
-33.78
-12.63
8.59
28.40
45.49
59.02
68.70
74.75
77.80
78.65
78.05
76.52
74.25
71.17
67.15
62.21
56.70
51.23
46.46
42.74
39.94
37.45
34.51
30.54
25.48
19.70
13.83
8.39
3.44
-1.47
-7.05
-13.91
-22.28
-31.86
-42.03
-52.10
-61.47
-69.67
-76.20
-80.31
-81.04
-77.42
-68.88
-55.66
-38.90
-20.39
-2.02
14.69
28.83
40.09
48.49
54.16
57.23
57.86
56.40
53.32
49.14
44.28
38.97
33.46
28.10
23.40
19.87
17.78
16.85
16.30
15.14
12.62
8.53
3.23
-2.54
-8.08
-12.93
-17.10
-20.87
-24.72
-29.16
-34.58
-41.14
-48.67
-56.66
-64.34
-70.78
-75.12
-76.62
-74.75
-69.13
-59.60
-46.37
-30.14
-12.12
6.10
22.90
37.04
47.85
55.23
59.52
61.19
60.75
58.64
55.21
50.73
45.52
39.89
34.34
29.45
25.69
23.35
22.24
21.73
20.98
19.23
16.10
11.68
6.37
0.67
-5.08
-10.69
-16.11
-21.30
-26.13
-30.57
-34.76
-39.06
-43.92
-49.61
-56.00
-62.47
-67.98
-71.46
-72.02
-69.11
-62.57
-52.51
-39.32
-23.69
-6.66
10.41
26.09
39.19
49.03
55.51
59.01
60.12
59.42
57.34
54.17
50.12
45.43
40.39
35.36
30.76
26.95
24.14
22.27
21.02
19.82
18.19
15.73
12.33
8.08
3.17
-2.25
-8.07
-14.14
-20.24
-26.01
-31.18
-35.61
-39.52
-43.42
-47.95
-53.54
-60.16
-67.23
-73.74
-78.51
-80.53
-79.12
-73.92
-64.96
-52.58
-37.53
-20.86
-3.96
11.78
25.12
35.32
42.11
45.68
46.54
45.40
43.04
40.15
37.18
34.24
31.22
27.96
24.57
21.40
18.93
17.39
16.46
15.40
13.33
9.73
4.69
-1.11
-6.79
-11.62
-15.39
-18.34
-20.99
-23.90
-27.47
-31.90
-37.18
-43.12
-49.42
-55.67
-61.41
-66.08
-69.05
-69.59
-66.99
-60.65
-50.41
-36.72
-20.67
-3.77
12.37
26.39
37.49
45.43
50.34
52.60
52.61
50.79
47.57
43.38
38.70
33.99
29.57
25.67
22.34
19.48
16.92
14.43
11.78
8.81
5.39
1.57
-2.48
-6.50
-10.20
-13.46
-16.35
-19.14
-22.23
-26.00
-30.72
-36.48
-43.25
-50.82
-58.85
-66.86
-74.23
-80.29
-84.37
-85.85
-84.19
-78.99
-70.11
-57.85
-42.89
-26.31
-9.33
6.88
21.42
33.63
43.10
49.62
53.19
54.02
52.57
49.41
45.13
40.25
35.19
30.33
26.12
23.03
21.31
20.87
21.15
21.27
20.38
17.95
13.95
8.83
3.24
-2.25
-7.34
-12.07
-16.67
-21.47
-26.76
-32.81
-39.75
-47.65
-56.37
-65.50
-74.42
-82.33
-88.38
-91.79
-91.83
-87.97
-79.88
-67.60
-51.64
-33.08
-13.41
5.74
22.96
37.29
48.27
55.88
60.45
62.44
62.45
61.06
58.73
55.74
52.22
48.28
44.21
40.47
37.58
35.78
34.81
33.92
32.15
28.77
23.64
17.18
10.13
3.16
-3.37
-9.46
-15.37
-21.31
-27.46
-33.98
-41.11
-49.11
-58.11
-67.90
-77.74
-86.52
-92.99
-96.03
-94.84
-89.05
-78.76
-64.42
-46.90
-27.43
-7.46
11.53
28.32
42.12
52.60
59.86
64.24
66.15
66.08
64.45
61.69
58.20
54.37
50.56
47.11
44.19
41.77
39.52
36.98
33.69
29.41
24.21
18.47
12.63
7.00
1.58
-3.90
-9.74
-16.07
-22.73
-29.34
-35.60
-41.62
-47.87
-55.02
-63.49
-73.04
-82.64
-90.78
-95.64
-95.46
-88.76
-74.72
-53.57
-26.96
2.09
29.80
52.73
68.85
78.03
81.75
82.15
80.94
78.89
75.91
71.67
66.21
60.12
54.30
49.51
45.94
43.23
40.64
37.46
33.26
28.04
22.11
15.89
9.64
3.44
-2.80
-9.25
-16.06
-23.29
-30.98
-39.23
-48.14
-57.75
-67.99
-78.49
-88.53
-97.02
-102.61
-103.88
-99.62
-89.26
-73.03
-52.02
-28.05
-3.25
20.32
41.03
57.86
70.40
78.75
83.39
85.04
84.49
82.46
79.45
75.65
70.99
65.43
59.12
52.55
46.41
41.32
37.46
34.41
31.34
27.37
21.98
15.17
7.43
-0.60
-8.43
-15.91
-23.13
-30.45
-38.29
-47.11
-57.30
-68.93
-81.55
-94.05
-104.72
-111.74
-113.60
-109.57
-99.75
-84.93
-66.13
-44.40
-20.76
3.69
27.58
49.34
67.44
80.82
89.17
92.96
93.29
91.42
88.34
84.60
80.28
75.30
69.71
63.88
58.42
53.93
50.62
48.18
45.78
42.37
37.20
30.11
21.56
12.44
3.63
-4.36
-11.55
-18.38
-25.44
-33.28
-42.21
-52.31
-63.42
-75.12
-86.66
-96.95
-104.65
-108.49
-107.57
-101.58
-90.88
-76.17
-58.11
-37.16
-13.63
11.86
37.94
62.42
82.71
96.69
103.55
104.11
100.46
95.00
89.48
84.52
79.80
74.82
69.49
64.38
60.37
57.88
56.56
55.25
52.51
47.36
39.78
30.61
21.25
12.90
6.12
0.65
-4.35
-9.88
-16.73
-25.22
-35.26
-46.42
-58.06
-69.35
-79.33
-86.84
-90.66
-89.65
-83.02
-70.64
-53.19
-32.11
-9.37
13.03
33.35
50.39
63.52
72.56
77.70
79.41
78.34
75.27
70.95
65.90
60.41
54.63
48.76
43.22
38.51
35.01
32.67
30.95
29.02
26.13
21.92
16.51
10.41
4.19
-1.79
-7.45
-13.03
-18.94
-25.63
-33.49
-42.64
-52.81
-63.28
-72.98
-80.66
-85.15
-85.54
-81.17
-71.77
-57.50
-39.07
-17.87
4.11
24.68
41.92
54.67
62.75
66.83
67.93
67.06
64.93
61.87
58.01
53.44
48.37
43.10
38.05
33.65
30.19
27.75
26.03
24.40
22.03
18.26
12.85
6.18
-0.98
-7.74
-13.57
-18.48
-22.88
-27.40
-32.50
-38.46
-45.36
-53.20
-61.87
-71.08
-80.11
-87.79
-92.64
-93.28
-88.77
-78.92
-64.29
-46.06
-25.71
-4.84
15.07
32.71
47.11
57.74
64.54
67.89
68.49
67.11
64.41
60.85
56.68
52.11
47.37
42.82
38.87
35.83
33.77
32.40
31.11
29.14
25.86
21.05
14.89
8.00
1.17
-4.94
-9.95
-13.96
-17.54
-21.50
-26.70
-33.78
-42.83
-53.31
-64.10
-73.74
-80.79
-84.19
-83.46
-78.61
-70.01
-58.20
-43.81
-27.58
-10.44
6.60
22.45
36.18
47.13
54.95
59.70
61.75
61.73
60.42
58.54
56.53
54.52
52.28
49.58
46.41
43.03
39.86
37.19
34.86
32.30
28.83
24.01
17.91
11.07
4.14
-2.36
-8.27
-13.64
-18.58
-23.15
-27.39
-31.56
-36.14
-41.78
-48.86
-57.17
-65.75
-73.17
-77.94
-78.99
-75.91
-68.86
-58.35
-45.05
-29.72
-13.20
3.46
19.10
32.55
42.99
50.02
53.78
54.86
54.07
52.19
49.77
46.98
43.68
39.58
34.66
29.31
24.31
20.52
18.43
17.81
17.76
17.04
14.67
10.31
4.39
-2.25
-8.76
-14.72
-20.15
-25.37
-30.71
-36.33
-42.23
-48.33
-54.60
-61.03
-67.50
-73.69
-78.98
-82.54
-83.44
-80.89
-74.39
-63.91
-49.97
-33.61
-16.24
0.58
15.49
27.57
36.43
42.21
45.36
46.51
46.20
44.85
42.67
39.72
36.06
31.84
27.39
23.19
19.69
17.15
15.42
14.05
12.50
10.32
7.43
4.03
0.44
-3.06
-6.44
-9.87
-13.67
-18.18
-23.64
-30.19
-37.75
-46.04
-54.50
-62.33
-68.66
-72.67
-73.70
-71.36
-65.53
-56.33
-44.18
-29.86
-14.49
0.58
14.05
24.97
32.91
38.04
40.89
42.03
41.91
40.72
38.54
35.36
31.31
26.73
22.17
18.29
15.71
14.73
15.08
16.00
16.35
15.09
11.66
6.26
-0.30
-6.89
-12.62
-17.17
-20.79
-24.20
-28.14
-33.21
-39.64
-47.31
-55.84
-64.62
-72.87
-79.65
-83.99
-85.01
-82.02
-74.73
-63.30
-48.42
-31.25
-13.25
4.09
19.51
32.15
41.68
48.14
51.89
53.37
53.05
51.35
48.68
45.37
41.73
38.05
34.56
31.47
28.96
27.01
25.40
23.60
20.93
16.86
11.16
4.09
-3.64
-11.17
-17.76
-23.05
-27.14
-30.63
-34.30
-38.99
-45.27
-53.23
-62.33
-71.55
-79.51
-84.91
-86.79
-84.65
-78.44
-68.36
-54.77
-38.17
-19.38
0.42
19.75
37.05
51.04
60.99
66.86
69.22
68.98
67.15
64.53
61.61
58.56
55.28
51.71
47.91
44.19
40.92
38.42
36.68
35.27
33.54
30.85
26.78
21.29
14.66
7.30
-0.43
-8.26
-16.01
-23.57
-30.87
-37.97
-45.09
-52.57
-60.75
-69.73
-79.15
-88.18
-95.67
-100.41
-101.47
-98.34
-90.89
-79.30
-63.96
-45.54
-25.00
-3.68
16.83
34.98
49.56
60.01
66.40
69.42
70.02
69.08
67.14
64.40
60.82
56.43
51.56
46.82
42.94
40.27
38.60
37.13
34.91
31.17
25.83
19.44
12.85
6.77
1.49
-3.22
-7.85
-12.85
-18.49
-24.82
-31.80
-39.44
-47.76
-56.59
-65.41
-73.26
-78.81
-80.71
-77.85
-69.79
-56.87
-40.06
-20.84
-0.79
18.65
36.25
51.06
62.40
69.85
73.39
73.44
70.82
66.51
61.42
56.17
51.04
46.19
41.81
38.18
35.53
33.83
32.59
31.04
28.35
24.07
18.23
11.42
4.39
-2.16
-7.85
-12.66
-16.84
-20.87
-25.30
-30.72
-37.57
-46.02
-55.85
-66.30
-76.24
-84.28
-89.09
-89.65
-85.34
-76.06
-62.20
-44.57
-24.45
-3.44
16.73
34.47
48.65
58.80
65.11
68.22
68.99
68.21
66.37
63.75
60.45
56.54
52.20
47.79
43.75
40.50
38.24
36.77
35.50
33.64
30.46
25.65
19.42
12.43
5.48
-0.93
-6.69
-12.14
-17.85
-24.37
-32.01
-40.83
-50.55
-60.64
-70.30
-78.56
-84.42
-86.96
-85.55
-79.88
-70.00
-56.24
-39.21
-19.87
0.57
20.63
38.77
53.65
64.44
70.94
73.54
73.06
70.47
66.65
62.17
57.43
52.68
48.20
44.32
41.28
39.09
37.35
35.39
32.41
27.91
21.86
14.80
7.63
1.20
-3.94
-7.73
-10.59
-13.19
-16.22
-20.24
-25.51
-32.04
-39.64
-47.99
-56.70
-65.26
-72.98
-78.95
-82.12
-81.40
-76.01
-65.68
-50.92
-32.96
-13.52
5.59
22.82
37.12
47.96
55.26
59.25
60.39
59.37
56.96
53.92
50.76
47.62
44.38
40.91
37.28
33.84
31.04
29.04
27.55
25.89
23.32
19.52
14.68
9.47
4.53
0.12
-4.00
-8.41
-13.62
-19.82
-26.83
-34.26
-41.78
-49.24
-56.58
-63.65
-69.99
-74.74
-76.79
-75.09
-68.97
-58.41
-44.07
-27.17
-9.22
8.37
24.45
38.31
49.51
57.76
62.87
64.82
63.83
60.51
55.69
50.25
44.83
39.79
35.31
31.56
28.73
26.99
26.21
25.81
24.82
22.27
17.60
10.97
3.22
-4.52
-11.30
-16.74
-21.08
-24.94
-29.06
-34.01
-40.09
-47.23
-55.12
-63.13
-70.46
-76.17
-79.40
-79.49
-76.10
-69.17
-58.87
-45.57
-29.91
-12.82
4.51
20.75
34.71
45.67
53.41
58.19
60.49
60.85
59.67
57.22
53.75
49.54
44.96
40.45
36.48
33.48
31.63
30.81
30.52
29.97
28.34
25.06
20.04
13.72
6.84
0.21
-5.60
-10.36
-14.28
-17.77
-21.40
-25.74
-31.27
-38.24
-46.63
-55.96
-65.30
-73.32
-78.62
-79.99
-76.71
-68.73
-56.58
-41.25
-23.99
-6.07
11.22
26.74
39.58
49.16
55.33
58.42
59.07
58.06
56.10
53.68
51.01
48.06
44.73
40.97
36.92
32.94
29.47
26.84
25.00
23.47
21.50
18.46
14.06
8.58
2.64
-3.06
-8.12
-12.66
-17.09
-21.86
-27.18
-32.95
-38.94
-44.99
-51.14
-57.52
-64.09
-70.46
-75.88
-79.36
-79.97
-77.02
-70.23
-59.74
-46.05
-30.03
-12.81
4.30
19.97
33.02
42.68
48.62
51.03
50.61
48.35
45.29
42.23
39.44
36.78
33.94
30.71
27.24
23.94
21.15
18.89
16.84
14.45
11.32
7.39
2.94
-1.61
-6.02
-10.34
-14.76
-19.47
-24.49
-29.61
-34.65
-39.57
-44.46
-49.53
-54.84
-60.17
-65.00
-68.45
-69.57
-67.38
-61.19
-50.75
-36.46
-19.47
-1.55
15.25
29.10
38.86
44.34
46.13
45.34
43.11
40.30
37.37
34.45
31.56
28.68
25.90
23.34
21.11
19.21
17.51
15.75
13.58
10.73
7.07
2.75
-1.94
-6.63
-11.12
-15.42
-19.70
-24.14
-28.87
-33.97
-39.52
-45.67
-52.54
-60.05
-67.69
-74.52
-79.40
-81.24
-79.36
-73.54
-63.97
-51.13
-35.73
-18.75
-1.51
14.54
28.05
38.18
44.77
48.29
49.62
49.58
48.79
47.50
45.72
43.47
40.83
38.08
35.62
33.80
32.72
32.09
31.25
29.34
25.66
20.01
12.77
4.82
-2.86
-9.52
-14.91
-19.30
-23.28
-27.53
-32.64
-39.01
-46.81
-55.91
-65.87
-75.86
-84.77
-91.30
-94.28
-92.89
-86.80
-76.23
-61.75
-44.26
-24.84
-4.73
14.78
32.45
47.30
58.79
66.84
71.75
73.98
74.01
72.27
69.12
64.94
60.10
55.01
50.06
45.57
41.78
38.79
36.44
34.30
31.72
28.09
23.02
16.57
9.25
1.76
-5.25
-11.48
-16.97
-22.08
-27.31
-33.15
-40.06
-48.33
-57.99
-68.66
-79.49
-89.14
-96.02
-98.72
-96.24
-88.28
-75.28
-58.16
-38.20
-16.74
4.80
25.09
42.83
57.01
66.93
72.49
74.25
73.25
70.76
67.79
64.83
61.83
58.45
54.51
50.25
46.27
43.22
41.28
40.02
38.52
35.83
31.42
25.44
18.55
11.57
5.00
-1.10
-7.01
-13.07
-19.47
-26.11
-32.79
-39.48
-46.36
-53.75
-61.85
-70.33
-78.29
-84.29
-86.82
-84.74
-77.58
-65.61
-49.75
-31.27
-11.66
7.53
24.82
38.93
49.06
55.03
57.27
56.71
54.39
51.19
47.66
44.02
40.33
36.66
33.19
30.16
27.75
25.91
24.24
22.19
19.18
15.02
9.97
4.64
-0.34
-4.72
-8.78
-13.17
-18.52
-25.02
-32.39
-40.05
-47.58
-54.89
-62.29
-69.94
-77.66
-84.51
-89.08
-89.85
-85.64
-75.91
-60.74
-40.82
-17.47
7.44
31.45
51.99
66.94
75.34
77.69
75.71
71.64
67.36
63.68
60.49
57.15
53.23
48.97
45.11
42.34
40.76
39.67
37.81
34.03
27.81
19.56
10.42
1.66
-5.77
-11.68
-16.56
-21.30
-26.78
-33.57
-41.83
-51.31
-61.51
-71.71
-81.06
-88.58
-93.20
-93.93
-90.01
-81.13
-67.47
-49.79
-29.27
-7.41
14.19
34.01
50.77
63.64
72.28
76.93
78.22
77.05
74.33
70.76
66.73
62.35
57.59
52.57
47.62
43.22
39.89
37.78
36.57
35.42
33.23
29.04
22.36
13.33
2.68
-8.50
-19.03
-27.85
-34.21
-37.77
-38.85
-38.48
-38.26
-39.92
-44.70
-52.72
-62.71
-72.26
-78.49
-78.93
-72.18
-58.24
-38.38
-14.84
9.67
32.43
51.12
64.28
71.55
73.65
72.23
69.26
66.68
65.78
67.16
70.57
75.13
79.54
82.46
82.93
80.59
75.82
69.54
62.81
56.44
50.70
45.38
40.04
34.32
28.18
21.77
15.25
8.53
1.26
-7.02
-16.56
-27.19
-38.37
-49.39
-59.72
-69.06
-77.29
-84.23
-89.36
-91.87
-90.85
-85.61
-75.94
-62.14
-44.93
-25.29
-4.42
16.25
35.06
50.29
60.55
65.20
64.61
60.10
53.63
47.11
41.90
38.40
36.29
34.81
33.32
31.62
29.97
28.76
28.22
28.10
27.76
26.46
23.69
19.36
13.83
7.65
1.37
-4.70
-10.50
-16.15
-21.93
-28.12
-34.95
-42.43
-50.23
-57.72
-63.97
-68.00
-68.94
-66.22
-59.71
-49.68
-36.76
-21.88
-6.16
9.21
23.00
34.21
42.11
46.49
47.67
46.47
43.97
41.15
38.61
36.48
34.43
32.10
29.35
26.36
23.56
21.32
19.65
18.12
16.07
12.96
8.63
3.52
-1.69
-6.27
-9.84
-12.52
-14.81
-17.40
-20.88
-25.63
-31.76
-39.13
-47.37
-55.86
-63.81
-70.19
-74.00
-74.43
-71.05
-63.85
-53.24
-39.90
-24.64
-8.46
7.62
22.50
35.21
45.01
51.56
54.94
55.60
54.27
51.74
48.74
45.81
43.18
40.84
38.57
36.13
33.51
30.85
28.41
26.24
24.09
21.44
17.76
12.76
6.66
0.07
-6.24
-11.69
-16.11
-19.84
-23.59
-28.19
-34.37
-42.40
-51.95
-61.95
-70.88
-77.12
-79.41
-77.19
-70.58
-60.19
-46.86
-31.35
-14.42
3.15
20.39
36.18
49.31
58.80
64.19
65.57
63.67
59.60
54.50
49.32
44.54
40.23
36.18
32.21
28.37
24.94
22.28
20.43
19.04
17.38
14.63
10.31
4.55
-1.94
-8.17
-13.28
-16.97
-19.50
-21.60
-24.18
-28.00
-33.50
-40.69
-49.15
-58.02
-66.18
-72.43
-75.72
-75.42
-71.27
-63.39
-52.13
-37.99
-21.73
-4.48
12.28
26.97
38.23
45.41
48.68
48.92
47.39
45.20
43.01
40.96
38.84
36.34
33.34
30.01
26.66
23.61
20.93
18.39
15.54
11.99
7.56
2.55
-2.48
-6.98
-10.65
-13.64
-16.44
-19.61
-23.57
-28.44
-34.12
-40.42
-47.07
-53.72
-59.92
-65.03
-68.32
-69.07
-66.72
-60.99
-51.91
-39.87
-25.59
-10.11
5.32
19.39
31.01
39.50
44.66
46.82
46.58
44.68
41.70
37.97
33.69
29.00
24.21
19.84
16.51
14.67
14.30
14.75
14.93
13.75
10.52
5.25
-1.36
-8.32
-14.74
-20.15
-24.68
-28.93
-33.62
-39.34
-46.31
-54.32
-62.75
-70.73
-77.31
-81.52
-82.54
-79.71
-72.70
-61.61
-47.00
-29.96
-11.83
5.94
22.15
35.84
46.54
54.00
58.35
59.92
59.24
56.96
53.64
49.73
45.43
40.85
36.09
31.40
27.09
23.42
20.44
17.86
15.21
12.05
8.09
3.36
-1.87
-7.31
-12.76
-18.19
-23.70
-29.49
-35.75
-42.64
-50.24
-58.49
-67.09
-75.49
-82.78
-87.90
-89.82
-87.75
-81.34
-70.71
-56.39
-39.24
-20.35
-0.94
17.70
34.34
48.00
58.04
64.30
67.02
66.78
64.35
60.49
55.91
51.07
46.29
41.71
37.44
33.71
30.65
28.30
26.34
24.14
20.89
16.07
9.63
2.20
-5.22
-11.66
-16.61
-20.19
-23.08
-26.23
-30.51
-36.47
-44.24
-53.42
-63.12
-72.04
-78.74
-81.94
-80.82
-75.18
-65.34
-51.95
-35.81
-17.77
1.28
20.17
37.57
52.13
62.75
68.97
71.12
70.22
67.61
64.45
61.36
58.29
54.78
50.39
45.15
39.59
34.58
30.77
28.23
26.33
24.11
20.72
15.87
9.90
3.42
-2.99
-9.04
-14.76
-20.31
-25.78
-31.26
-36.87
-42.90
-49.70
-57.50
-66.12
-74.81
-82.40
-87.45
-88.76
-85.53
-77.55
-65.23
-49.42
-31.33
-12.35
6.10
22.72
36.47
46.75
53.40
56.70
57.26
55.83
53.11
49.63
45.76
41.73
37.80
34.29
31.51
29.57
28.30
27.16
25.42
22.42
17.87
11.98
5.41
-1.03
-6.70
-11.45
-15.63
-19.91
-25.01
-31.36
-39.00
-47.58
-56.54
-65.24
-72.99
-79.04
-82.54
-82.56
-78.24
-69.07
-55.15
-37.27
-16.91
4.10
23.85
40.80
53.99
63.07
68.22
69.96
69.01
66.10
61.94
57.11
52.03
47.01
42.25
37.95
34.26
31.25
28.81
26.57
24.08
20.81
16.52
11.18
5.12
-1.30
-7.80
-14.28
-20.90
-27.89
-35.55
-43.98
-53.24
-63.16
-73.40
-83.30
-91.91
-98.02
-100.43
-98.18
-90.75
-78.29
-61.47
-41.41
-19.49
2.82
24.05
42.89
58.27
69.56
76.62
79.83
79.92
77.83
74.44
70.44
66.24
62.05
57.90
53.79
49.75
45.85
42.07
38.40
34.66
30.60
25.98
20.65
14.63
8.12
1.40
-5.27
-11.78
-18.17
-24.67
-31.53
-39.02
-47.37
-56.64
-66.68
-76.96
-86.52
-94.05
-98.06
-97.29
-90.95
-79.01
-62.21
-41.86
-19.64
2.76
23.78
42.18
57.08
67.94
74.72
77.79
77.91
76.05
73.12
69.78
66.31
62.72
58.96
55.11
51.44
48.31
45.90
44.02
42.09
39.33
35.12
29.23
21.96
13.97
6.08
-1.04
-7.10
-12.19
-16.85
-21.84
-27.95
-35.76
-45.31
-56.06
-66.88
-76.32
-82.95
-85.71
-84.02
-77.86
-67.57
-53.73
-37.12
-18.64
0.60
19.32
36.24
50.21
60.51
66.95
69.92
70.22
68.73
66.15
62.86
58.93
54.44
49.63
45.02
41.28
38.91
38.00
38.11
38.39
37.87
35.77
31.69
25.70
18.30
10.23
2.31
-4.78
-10.72
-15.57
-19.78
-24.06
-29.19
-35.77
-44.12
-54.01
-64.68
-74.79
-82.68
-86.68
-85.52
-78.68
-66.40
-49.66
-29.97
-9.10
11.18
29.24
43.83
54.20
60.20
62.32
61.47
58.79
55.24
51.54
47.95
44.44
40.88
37.24
33.67
30.41
27.65
25.31
23.10
20.55
17.26
13.07
8.13
2.79
-2.64
-8.00
-13.27
-18.57
-23.96
-29.45
-35.07
-40.98
-47.43
-54.68
-62.71
-71.07
-78.75
-84.42
-86.69
-84.46
-77.18
-64.94
-48.53
-29.27
-8.90
10.76
28.05
41.79
51.42
56.96
58.96
58.20
55.57
51.85
47.66
43.42
39.43
35.84
32.74
30.12
27.90
25.95
24.03
21.82
19.03
15.42
10.99
5.93
0.62
-4.56
-9.36
-13.80
-18.16
-22.96
-28.74
-35.91
-44.57
-54.40
-64.65
-74.19
-81.66
-85.70
-85.27
-79.84
-69.55
-55.15
-37.82
-18.94
0.12
18.09
33.93
46.79
56.15
61.85
64.18
63.78
61.47
57.98
53.79
49.17
44.24
39.21
34.43
30.28
27.07
24.76
22.97
21.04
18.35
14.50
9.51
3.71
-2.36
-8.20
-13.47
-18.04
-21.99
-25.53
-29.14
-33.45
-39.10
-46.52
-55.49
-65.09
-73.67
-79.38
-80.74
-77.04
-68.45
-55.81
-40.15
-22.50
-3.81
14.92
32.47
47.53
58.96
66.19
69.39
69.44
67.52
64.68
61.57
58.31
54.70
50.55
45.90
41.10
36.71
33.16
30.54
28.52
26.44
23.64
19.75
14.84
9.38
3.95
-0.97
-5.30
-9.29
-13.40
-18.10
-23.76
-30.63
-38.79
-48.18
-58.43
-68.75
-77.89
-84.40
-86.89
-84.44
-76.86
-64.59
-48.61
-30.18
-10.66
8.57
26.21
41.22
52.87
60.90
65.49
67.18
66.65
64.57
61.51
57.82
53.69
49.24
44.63
40.19
36.36
33.59
32.04
31.43
31.02
29.86
27.16
22.59
16.41
9.27
1.93
-5.03
-11.35
-17.13
-22.63
-28.17
-34.03
-40.36
-47.22
-54.52
-62.05
-69.37
-75.82
-80.51
-82.49
-80.88
-75.14
-65.19
-51.59
-35.37
-17.88
-0.58
15.22
28.48
38.54
45.15
48.56
49.32
48.20
45.85
42.74
39.04
34.87
30.35
25.84
21.85
18.82
16.92
15.88
15.09
13.83
11.59
8.31
4.31
0.09
-3.98
-7.84
-11.73
-16.00
-20.92
-26.59
-32.95
-39.86
-47.16
-54.64
-61.89
-68.28
-72.93
-74.90
-73.29
-67.47
-57.29
-43.17
-26.11
-7.61
10.58
26.81
39.85
49.07
54.48
56.54
55.98
53.61
50.13
46.09
41.78
37.37
32.98
28.82
25.18
22.30
20.22
18.59
16.76
14.04
10.03
4.79
-1.10
-6.97
-12.26
-16.88
-21.20
-25.81
-31.24
-37.79
-45.40
-53.78
-62.46
-70.88
-78.45
-84.49
-88.29
-89.11
-86.29
-79.39
-68.29
-53.28
-35.21
-15.34
4.70
23.26
38.93
50.83
58.74
63.03
64.42
63.77
61.76
58.85
55.26
51.05
46.29
41.18
36.13
31.58
27.91
25.15
22.93
20.52
17.18
12.42
6.28
-0.76
-7.91
-14.53
-20.29
-25.34
-30.14
-35.28
-41.31
-48.64
-57.40
-67.37
-77.88
-87.74
-95.52
-99.70
-99.25
-93.75
-83.47
-69.19
-51.83
-32.32
-11.60
9.25
28.99
46.26
59.91
69.38
74.79
76.88
76.66
74.94
72.13
68.31
63.38
57.49
51.12
45.10
40.27
37.12
35.53
34.77
33.65
31.11
26.52
19.97
12.15
4.07
-3.45
-10.10
-16.09
-22.03
-28.56
-36.09
-44.79
-54.51
-64.88
-75.28
-84.79
-92.20
-96.12
-95.31
-88.97
-77.00
-60.11
-39.63
-17.29
5.07
25.78
43.53
57.48
67.36
73.40
76.21
76.60
75.28
72.80
69.53
65.65
61.31
56.72
52.15
47.88
44.13
40.92
38.03
35.02
31.41
26.86
21.33
15.08
8.53
2.10
-4.03
-9.93
-15.82
-21.91
-28.28
-34.97
-42.04
-49.58
-57.62
-65.87
-73.68
-79.99
-83.60
-83.42
-78.77
-69.39
-55.54
-37.91
-17.71
3.46
23.70
41.13
54.41
62.95
67.06
67.77
66.31
63.78
60.79
57.55
53.95
49.93
45.59
41.31
37.50
34.40
31.92
29.58
26.79
23.10
18.42
13.06
7.52
2.27
-2.52
-6.94
-11.27
-15.80
-20.70
-26.03
-31.84
-38.15
-45.07
-52.59
-60.43
-67.92
-74.01
-77.38
-76.84
-71.56
-61.42
-47.02
-29.59
-10.75
7.85
24.71
38.74
49.22
55.97
59.21
59.62
58.11
55.58
52.70
49.76
46.69
43.24
39.39
35.38
31.70
28.83
26.82
25.20
23.18
19.95
15.12
9.00
2.31
-4.10
-9.70
-14.50
-18.95
-23.68
-29.21
-35.80
-43.47
-51.99
-60.94
-69.64
-77.15
-82.31
-83.99
-81.38
-74.13
-62.54
-47.41
-29.90
-11.31
7.11
24.19
38.96
50.76
59.22
64.37
66.49
66.14
63.92
60.38
55.97
51.04
45.93
41.03
36.83
33.69
31.71
30.51
29.39
27.49
24.14
19.21
13.05
6.39
0.01
-5.55
-10.19
-14.24
-18.28
-23.01
-29.02
-36.60
-45.65
-55.55
-65.23
-73.32
-78.46
-79.59
-76.17
-68.24
-56.34
-41.34
-24.31
-6.39
11.23
27.48
41.49
52.70
60.97
66.42
69.38
70.25
69.44
67.38
64.46
61.04
57.34
53.49
49.62
45.92
42.70
40.25
38.60
37.29
35.49
32.31
27.20
20.27
12.19
3.93
-3.66
-10.25
-16.01
-21.43
-27.07
-33.35
-40.51
-48.53
-57.16
-65.85
-73.70
-79.52
-82.13
-80.62
-74.67
-64.52
-50.87
-34.74
-17.17
0.81
18.15
33.82
46.89
56.67
62.90
65.81
66.07
64.52
61.95
58.94
55.68
52.15
48.25
44.05
39.83
36.05
33.05
30.88
29.11
27.02
23.93
19.50
13.92
7.75
1.70
-3.65
-8.12
-11.87
-15.24
-18.69
-22.63
-27.32
-32.93
-39.48
-46.81
-54.52
-61.98
-68.29
-72.44
-73.56
-71.04
-64.74
-54.96
-42.34
-27.74
-12.14
3.42
17.85
30.14
39.57
45.84
49.19
50.21
49.62
47.99
45.65
42.66
39.10
35.10
30.97
27.13
23.96
21.60
19.94
18.56
16.90
14.46
11.02
6.68
1.85
-2.95
-7.34
-11.27
-15.00
-18.84
-23.03
-27.62
-32.50
-37.60
-42.96
-48.64
-54.58
-60.40
-65.30
-68.29
-68.34
-64.65
-56.90
-45.26
-30.50
-13.78
3.35
19.37
32.89
42.97
49.26
51.95
51.67
49.27
45.63
41.51
37.46
33.76
30.50
27.62
25.03
22.68
20.57
18.66
16.82
14.72
11.98
8.32
3.75
-1.42
-6.69
-11.61
-15.99
-19.91
-23.65
-27.52
-31.67
-36.13
-40.89
-46.04
-51.72
-58.03
-64.69
-70.98
-75.77
-77.83
-76.18
-70.37
-60.54
-47.47
-32.26
-16.16
-0.39
14.04
26.34
36.04
42.88
46.86
48.23
47.39
44.93
41.52
37.71
33.91
30.29
26.86
23.60
20.65
18.16
16.21
14.66
13.07
10.92
7.76
3.56
-1.37
-6.51
-11.39
-15.75
-19.65
-23.37
-27.30
-31.86
-37.36
-43.94
-51.39
-59.12
-66.18
-71.48
-74.06
-73.30
-69.04
-61.49
-51.09
-38.40
-24.04
-8.75
6.59
21.01
33.63
43.73
50.88
55.06
56.53
55.81
53.52
50.27
46.53
42.60
38.64
34.74
31.08
27.91
25.44
23.68
22.32
20.75
18.29
14.48
9.29
3.16
-3.19
-9.10
-14.14
-18.28
-21.74
-24.94
-28.28
-32.08
-36.57
-41.89
-48.15
-55.31
-63.08
-70.88
-77.82
-82.88
-85.06
-83.62
-78.26
-69.07
-56.53
-41.35
-24.45
-6.82
10.41
26.06
39.05
48.63
54.57
57.24
57.46
56.14
54.03
51.47
48.50
45.04
41.18
37.34
34.05
31.77
30.60
30.20
29.87
28.80
26.38
22.37
17.02
10.82
4.45
-1.63
-7.20
-12.34
-17.35
-22.52
-28.05
-34.03
-40.51
-47.61
-55.41
-63.82
-72.29
-79.83
-85.10
-86.80
-83.97
-76.30
-64.20
-48.62
-30.90
-12.47
5.21
20.92
33.74
43.20
49.34
52.64
53.84
53.67
52.63
50.90
48.44
45.15
41.13
36.69
32.41
28.81
26.17
24.37
22.85
20.88
17.81
13.35
7.66
1.25
-5.29
-11.54
-17.35
-22.89
-28.36
-33.96
-39.75
-45.84
-52.43
-59.85
-68.21
-77.18
-85.80
-92.59
-95.96
-94.69
-88.32
-77.13
-62.02
-44.26
-25.12
-5.79
12.68
29.35
43.50
54.58
62.43
67.18
69.26
69.28
67.85
65.46
62.46
59.04
55.40
51.80
48.58
46.02
44.17
42.68
40.92
38.13
33.74
27.58
19.91
11.37
2.72
-5.36
-12.53
-18.81
-24.59
-30.53
-37.41
-45.84
-56.10
-67.85
-80.18
-91.70
-100.80
-106.01
-106.30
-101.17
-90.69
-75.39
-56.19
-34.32
-11.27
11.39
32.16
49.88
63.90
74.03
80.49
83.72
84.28
82.75
79.73
75.82
71.55
67.30
63.36
59.80
56.54
53.36
49.92
45.87
40.94
35.07
28.45
21.40
14.28
7.36
0.84
-5.26
-11.01
-16.61
-22.34
-28.60
-35.77
-44.18
-53.89
-64.59
-75.61
-85.87
-94.13
-99.12
-99.82
-95.62
-86.42
-72.64
-55.07
-34.78
-13.05
8.74
29.15
46.87
60.91
70.82
76.72
79.22
79.23
77.67
75.25
72.33
69.02
65.37
61.53
57.81
54.62
52.23
50.58
49.16
47.29
44.32
39.97
34.37
28.00
21.35
14.73
8.18
1.57
-5.26
-12.29
-19.48
-26.85
-34.59
-43.05
-52.49
-62.78
-73.11
-82.14
-88.14
-89.55
-85.39
-75.54
-60.77
-42.56
-22.66
-2.83
15.47
31.17
43.65
52.69
58.46
61.36
62.00
60.99
58.88
56.03
52.71
49.09
45.34
41.68
38.29
35.22
32.31
29.23
25.61
21.19
15.94
10.13
4.15
-1.62
-6.95
-11.86
-16.60
-21.54
-27.11
-33.61
-41.19
-49.81
-59.15
-68.66
-77.43
-84.35
-88.18
-87.85
-82.68
-72.56
-58.06
-40.32
-20.77
-0.86
18.17
35.48
50.52
62.98
72.62
79.32
83.02
83.84
81.98
77.78
71.64
64.07
55.78
47.66
40.64
35.40
32.05
29.94
27.96
24.90
20.09
13.56
6.05
-1.55
-8.56
-14.85
-20.77
-26.86
-33.53
-40.91
-48.92
-57.31
-65.86
-74.28
-82.01
-88.30
-92.14
-92.50
-88.56
-79.81
-66.11
-47.78
-25.63
-1.17
23.45
45.73
63.39
75.06
80.69
81.47
79.24
75.75
72.03
68.28
64.22
59.56
54.44
49.42
45.14
41.94
39.57
37.27
34.09
29.36
22.95
15.31
7.26
-0.41
-7.28
-13.39
-19.13
-24.99
-31.35
-38.40
-46.13
-54.52
-63.43
-72.55
-81.27
-88.55
-93.06
-93.56
-89.13
-79.53
-65.21
-47.26
-27.11
-6.30
13.72
31.76
46.94
58.78
67.22
72.57
75.36
76.23
75.63
73.80
70.80
66.67
61.57
55.92
50.34
45.47
41.73
39.14
37.28
35.36
32.60
28.38
22.53
15.33
7.41
-0.52
-7.91
-14.60
-20.85
-27.17
-34.19
-42.36
-51.86
-62.37
-73.20
-83.22
-91.15
-95.75
-96.09
-91.75
-82.81
-69.82
-53.56
-34.99
-15.11
4.96
24.04
40.97
54.80
64.98
71.41
74.49
74.95
73.65
71.31
68.40
65.09
61.35
57.20
52.84
48.65
45.02
42.18
39.97
37.83
35.04
31.05
25.70
19.30
12.41
5.55
-1.01
-7.27
-13.47
-19.84
-26.58
-33.81
-41.69
-50.35
-59.81
-69.73
-79.29
-87.15
-91.83
-92.05
-87.16
-77.33
-63.38
-46.51
-28.00
-8.97
9.60
26.81
41.75
53.65
62.04
66.89
68.69
68.25
66.42
63.77
60.50
56.53
51.78
46.42
40.94
36.05
32.33
29.94
28.46
27.01
24.60
20.56
14.85
7.99
0.82
-5.85
-11.61
-16.50
-20.88
-25.27
-30.09
-35.56
-41.77
-48.65
-56.03
-63.57
-70.72
-76.61
-80.09
-79.96
-75.25
-65.49
-51.05
-33.12
-13.55
5.57
22.37
35.62
44.81
50.12
52.21
51.94
50.14
47.51
44.45
41.17
37.71
34.06
30.37
26.84
23.67
20.96
18.57
16.18
13.47
10.26
6.55
2.54
-1.59
-5.76
-10.03
-14.56
-19.51
-24.92
-30.79
-37.07
-43.69
-50.57
-57.54
-64.25
-70.12
-74.30
-75.83
-73.71
-67.27
-56.29
-41.33
-23.61
-4.87
12.96
28.24
39.91
47.62
51.66
52.73
51.73
49.50
46.68
43.62
40.47
37.23
33.93
30.70
27.82
25.56
23.99
22.80
21.31
18.69
14.31
8.07
0.44
-7.61
-15.16
-21.62
-26.94
-31.51
-35.88
-40.57
-45.93
-52.14
-59.17
-66.78
-74.36
-80.95
-85.31
-86.31
-83.17
-75.66
-64.11
-49.25
-32.05
-13.60
4.88
22.16
37.09
48.83
57.08
62.00
64.15
64.18
62.66
59.95
56.21
51.56
46.24
40.67
35.44
31.11
27.93
25.67
23.63
20.82
16.48
10.34
2.87
-4.96
-12.10
-17.86
-22.23
-25.83
-29.58
-34.35
-40.67
-48.56
-57.65
-67.22
-76.30
-83.74
-88.34
-89.03
-85.08
-76.31
-63.19
-46.72
-28.29
-9.28
9.04
25.70
39.99
51.52
60.08
65.75
68.79
69.70
69.00
67.20
64.60
61.33
57.39
52.82
47.87
43.00
38.76
35.47
33.01
30.78
27.94
23.79
18.06
11.14
3.80
-3.10
-8.98
-13.77
-17.75
-21.42
-25.27
-29.75
-35.26
-42.22
-50.83
-60.84
-71.43
-81.15
-88.29
-91.32
-89.33
-82.24
-70.61
-55.48
-37.97
-19.23
-0.34
17.62
33.59
46.61
56.01
61.53
63.47
62.59
59.91
56.41
52.77
49.21
45.65
41.94
38.10
34.39
31.23
28.80
26.94
25.08
22.54
18.81
13.84
7.94
1.63
-4.63
-10.53
-15.98
-20.98
-25.65
-30.17
-34.85
-40.03
-45.97
-52.74
-60.03
-67.19
-73.25
-77.06
-77.48
-73.60
-64.96
-51.73
-34.82
-15.72
3.68
21.59
36.50
47.52
54.43
57.59
57.82
56.10
53.30
49.98
46.32
42.29
37.85
33.15
28.55
24.47
21.14
18.51
16.17
13.63
10.53
6.75
2.44
-2.11
-6.68
-11.21
-15.82
-20.66
-25.85
-31.42
-37.32
-43.52
-50.01
-56.77
-63.58
-69.93
-74.93
-77.40
-76.14
-70.25
-59.46
-44.29
-25.98
-6.35
12.65
29.31
42.49
51.76
57.34
59.86
60.06
58.56
55.79
52.12
47.84
43.29
38.80
34.69
31.14
28.17
25.68
23.35
20.81
17.65
13.58
8.53
2.73
-3.39
-9.37
-14.91
-20.04
-25.06
-30.44
-36.68
-44.09
-52.72
-62.34
-72.31
-81.73
-89.42
-94.15
-94.78
-90.57
-81.24
-67.09
-49.00
-28.29
-6.63
14.24
32.73
47.70
58.57
65.40
68.73
69.33
68.04
65.51
62.07
57.90
53.00
47.51
41.74
36.22
31.49
27.83
25.11
22.78
20.12
16.58
12.04
6.76
1.24
-4.14
-9.30
-14.39
-19.71
-25.43
-31.67
-38.53
-46.17
-54.72
-64.14
-73.91
-82.89
-89.49
-92.07
-89.43
-81.18
-67.81
-50.45
-30.50
-9.33
11.76
31.57
48.90
62.72
72.33
77.72
79.54
78.89
76.90
74.32
71.32
67.68
63.19
57.96
52.52
47.59
43.68
40.77
38.30
35.36
31.16
25.36
18.20
10.44
2.96
-3.64
-9.20
-14.06
-18.89
-24.39
-30.99
-38.91
-48.04
-58.04
-68.27
-77.80
-85.41
-89.80
-89.91
-85.15
-75.61
-61.93
-45.06
-26.05
-5.96
14.04
32.70
48.68
60.92
68.86
72.71
73.33
71.90
69.54
66.89
64.10
60.92
57.11
52.65
47.96
43.61
40.06
37.30
34.82
31.85
27.71
22.17
15.63
8.82
2.51
-2.96
-7.75
-12.38
-17.38
-23.09
-29.60
-36.80
-44.58
-52.79
-61.25
-69.53
-76.89
-82.29
-84.59
-82.77
-76.23
-64.93
-49.47
-30.99
-11.08
8.52
26.12
40.43
50.68
56.73
58.97
58.24
55.54
51.79
47.72
43.75
40.00
36.53
33.40
30.75
28.73
27.25
25.96
24.29
21.64
17.69
12.58
6.88
1.27
-3.74
-8.02
-11.84
-15.72
-20.15
-25.50
-31.94
-39.47
-47.90
-56.78
-65.43
-72.87
-77.95
-79.52
-76.63
-68.78
-56.14
-39.57
-20.65
-1.29
16.62
31.64
43.06
50.94
55.76
58.16
58.67
57.60
55.11
51.41
46.83
41.87
37.11
33.06
30.03
27.97
26.49
24.91
22.51
18.77
13.61
7.35
0.63
-5.89
-11.80
-17.05
-21.93
-26.88
-32.38
-38.74
-46.12
-54.48
-63.58
-72.90
-81.63
-88.62
-92.60
-92.39
-87.17
-76.74
-61.60
-42.89
-22.23
-1.41
17.79
34.01
46.46
54.96
59.93
62.12
62.39
61.43
59.74
57.52
54.84
51.74
48.32
44.85
41.62
38.93
36.76
34.79
32.36
28.76
23.49
16.57
8.54
0.29
-7.32
-13.76
-19.07
-23.70
-28.36
-33.73
-40.35
-48.43
-57.93
-68.40
-79.05
-88.69
-95.89
-99.25
-97.62
-90.51
-78.14
-61.47
-41.93
-21.10
-0.48
18.75
35.70
49.73
60.43
67.62
71.38
72.16
70.69
67.80
64.19
60.35
56.43
52.50
48.60
44.93
41.77
39.30
37.43
35.68
33.34
29.75
24.54
17.85
10.31
2.69
-4.38
-10.66
-16.39
-22.05
-28.26
-35.48
-44.00
-53.86
-64.80
-76.18
-86.87
-95.35
-100.01
-99.54
-93.29
-81.45
-65.00
-45.38
-24.23
-3.07
16.78
34.27
48.59
59.23
66.05
69.32
69.67
67.95
65.07
61.73
58.31
54.81
51.04
46.90
42.52
38.32
34.81
32.23
30.39
28.68
26.30
22.63
17.54
11.40
4.93
-1.19
-6.59
-11.33
-15.78
-20.45
-25.75
-31.99
-39.33
-47.85
-57.46
-67.75
-77.90
-86.56
-92.15
-93.23
-88.82
-78.81
-63.89
-45.43
-25.06
-4.45
14.91
31.82
45.34
54.94
60.50
62.45
61.66
59.25
56.20
53.16
50.30
47.47
44.48
41.35
38.36
35.85
34.03
32.74
31.49
29.72
26.96
23.05
18.08
12.29
5.95
-0.68
-7.33
-13.74
-19.72
-25.32
-30.87
-36.98
-44.27
-52.97
-62.72
-72.44
-80.60
-85.61
-86.25
-81.89
-72.59
-58.97
-42.10
-23.35
-4.29
13.54
28.79
40.57
48.61
53.16
54.84
54.41
52.48
49.51
45.79
41.60
37.25
33.12
29.58
26.92
25.18
24.14
23.33
22.13
19.97
16.55
11.90
6.39
0.52
-5.21
-10.58
-15.62
-20.61
-26.02
-32.33
-39.94
-49.02
-59.35
-70.16
-80.24
-87.98
-91.83
-90.64
-84.01
-72.36
-56.75
-38.60
-19.39
-0.39
17.38
33.17
46.48
56.95
64.47
69.10
71.08
70.71
68.34
64.36
59.20
53.33
47.25
41.45
36.31
32.04
28.63
25.79
23.00
19.66
15.23
9.52
2.73
-4.64
-12.00
-18.93
-25.39
-31.61
-37.95
-44.76
-52.24
-60.47
-69.32
-78.52
-87.34
-94.82
-99.74
-100.96
-97.71
-89.73
-77.08
-60.00
-38.75
-13.97
12.99
39.85
63.70
81.83
92.73
96.62
95.29
91.21
86.47
82.11
78.05
73.73
68.76
63.37
58.20
53.90
50.65
47.94
44.87
40.48
34.24
26.21
17.18
8.13
0.02
-6.71
-12.25
-17.33
-22.85
-29.54
-37.71
-47.21
-57.62
-68.28
-78.40
-87.03
-93.02
-95.20
-92.61
-84.80
-72.00
-55.04
-35.13
-13.65
8.04
28.65
46.96
61.96
72.98
79.80
82.77
82.64
80.36
76.75
72.46
67.82
63.07
58.35
53.92
49.98
46.74
44.20
42.07
39.83
36.79
32.37
26.34
18.92
10.69
2.41
-5.35
-12.37
-18.83
-25.23
-32.09
-39.82
-48.55
-58.11
-68.00
-77.43
-85.36
-90.60
-92.04
-88.79
-80.37
-66.88
-49.01
-28.09
-5.87
15.69
34.81
50.19
61.18
67.80
70.63
70.53
68.48
65.35
61.82
58.31
54.92
51.58
48.17
44.67
41.20
37.93
34.86
31.74
28.15
23.71
18.32
12.25
5.99
0.06
-5.31
-10.20
-15.00
-20.18
-26.12
-33.06
-41.02
-49.80
-58.88
-67.38
-74.07
-77.63
-76.90
-71.25
-60.73
-46.10
-28.62
-9.83
8.76
25.79
40.22
51.42
59.16
63.57
65.16
64.54
62.34
59.00
54.75
49.68
43.98
38.03
32.43
27.80
24.53
22.46
20.87
18.80
15.38
10.26
3.73
-3.45
-10.45
-16.71
-22.10
-26.92
-31.65
-36.78
-42.59
-49.15
-56.32
-63.73
-70.70
-76.28
-79.36
-78.79
-73.72
-63.81
-49.47
-31.81
-12.46
6.70
24.00
38.20
48.73
55.60
59.28
60.48
59.86
58.02
55.33
52.08
48.37
44.31
39.99
35.64
31.56
28.15
25.65
24.04
22.87
21.39
18.80
14.56
8.70
1.76
-5.45
-12.17
-18.04
-23.14
-27.98
-33.21
-39.45
-46.98
-55.69
-64.93
-73.63
-80.50
-84.32
-84.16
-79.61
-70.77
-58.14
-42.51
-24.89
-6.44
11.55
27.81
41.37
51.67
58.60
62.42
63.56
62.52
59.84
56.05
51.68
47.16
42.77
38.62
34.81
31.46
28.76
26.79
25.42
24.12
22.16
18.86
13.99
7.92
1.42
-4.62
-9.63
-13.61
-17.09
-20.79
-25.36
-31.12
-38.09
-46.06
-54.70
-63.49
-71.62
-78.03
-81.55
-81.24
-76.71
-68.13
-56.21
-41.83
-25.88
-9.13
7.68
23.68
37.89
49.35
57.35
61.63
62.52
60.78
57.41
53.36
49.29
45.48
41.89
38.36
34.77
31.24
27.97
25.18
22.94
21.08
19.27
17.11
14.34
10.79
6.57
1.84
-3.13
-8.11
-12.95
-17.60
-22.09
-26.52
-31.03
-35.75
-40.84
-46.45
-52.62
-59.15
-65.51
-70.84
-74.06
-74.15
-70.46
-62.85
-51.75
-38.08
-22.98
-7.53
7.32
20.87
32.53
41.83
48.45
52.27
53.53
52.81
50.88
48.44
45.90
43.23
40.16
36.43
32.09
27.56
23.44
20.22
17.98
16.33
14.58
12.13
8.67
4.34
-0.41
-5.01
-9.09
-12.53
-15.52
-18.45
-21.71
-25.50
-29.88
-34.70
-39.82
-45.14
-50.59
-55.99
-60.96
-64.76
-66.49
-65.30
-60.68
-52.64
-41.70
-28.71
-14.66
-0.53
12.79
24.50
33.87
40.38
43.82
44.39
42.72
39.68
36.11
32.59
29.34
26.34
23.58
21.13
19.20
17.89
17.09
16.37
15.21
13.14
10.10
6.33
2.22
-1.82
-5.59
-9.07
-12.35
-15.60
-18.93
-22.50
-26.42
-30.79
-35.70
-41.26
-47.54
-54.50
-61.82
-68.81
-74.43
-77.54
-77.17
-72.83
-64.66
-53.33
-39.77
-24.99
-9.90
4.68
17.96
29.19
37.74
43.24
45.79
45.90
44.41
42.19
39.90
37.79
35.71
33.32
30.40
26.99
23.46
20.29
17.75
15.80
13.95
11.60
8.28
3.89
-1.29
-6.78
-12.08
-16.96
-21.42
-25.61
-29.70
-33.77
-37.96
-42.50
-47.79
-54.25
-62.03
-70.74
-79.39
-86.53
-90.61
-90.43
-85.37
-75.59
-61.86
-45.43
-27.75
-10.19
6.14
20.52
32.56
42.07
49.00
53.37
55.36
55.38
54.02
51.89
49.42
46.76
43.84
40.60
37.20
34.01
31.39
29.46
27.91
26.11
23.39
19.39
14.20
8.30
2.21
-3.62
-9.05
-14.20
-19.30
-24.56
-30.17
-36.31
-43.20
-51.14
-60.21
-70.16
-80.19
-89.05
-95.26
-97.50
-94.97
-87.52
-75.58
-60.02
-41.91
-22.39
-2.60
16.28
33.07
46.76
56.70
62.79
65.50
65.70
64.38
62.34
59.96
57.32
54.32
50.98
47.54
44.39
41.87
39.99
38.33
36.29
33.30
29.10
23.87
18.04
12.04
6.07
0.11
-6.01
-12.43
-19.10
-25.90
-32.75
-39.71
-47.10
-55.24
-64.23
-73.67
-82.60
-89.67
-93.42
-92.69
-86.79
-75.76
-60.22
-41.35
-20.68
0.18
19.62
36.30
49.30
58.22
63.21
64.98
64.46
62.58
60.00
56.99
53.57
49.70
45.49
41.30
37.49
34.32
31.68
29.18
26.35
22.83
18.56
13.68
8.44
2.98
-2.65
-8.49
-14.61
-21.09
-28.02
-35.57
-43.96
-53.34
-63.62
-74.35
-84.59
-93.07
-98.37
-99.27
-94.94
-85.16
-70.26
-51.14
-29.15
-5.89
16.94
37.82
55.53
69.29
78.82
84.23
86.09
85.14
82.28
78.30
73.75
68.90
63.82
58.53
53.24
48.32
44.16
40.92
38.33
35.68
32.17
27.20
20.69
13.05
5.05
-2.62
-9.48
-15.54
-21.16
-26.90
-33.35
-41.00
-50.05
-60.41
-71.52
-82.39
-91.66
-97.76
-99.30
-95.40
-85.89
-71.32
-52.87
-32.02
-10.34
10.76
30.15
47.05
60.94
71.56
78.84
82.88
83.97
82.58
79.34
74.94
70.02
65.01
60.18
55.66
51.59
48.10
45.20
42.70
40.08
36.68
31.87
25.42
17.60
9.10
0.82
-6.55
-12.73
-17.93
-22.74
-27.90
-34.07
-41.73
-51.02
-61.68
-73.07
-84.16
-93.64
-100.18
-102.70
-100.61
-93.95
-83.30
-69.41
-52.87
-33.84
-12.35
11.35
36.17
60.06
80.42
94.98
102.72
104.20
101.29
96.30
91.00
86.17
81.71
77.15
72.30
67.44
63.12
59.78
57.37
55.25
52.52
48.29
42.17
34.32
25.45
16.42
7.95
0.31
-6.65
-13.31
-20.00
-26.81
-33.64
-40.40
-47.31
-54.87
-63.65
-73.81
-84.70
-94.81
-102.09
-104.62
-101.21
-91.78
-77.18
-58.89
-38.46
-17.21
3.83
23.81
41.91
57.36
69.50
77.96
82.76
84.33
83.33
80.55
76.67
72.18
67.38
62.52
57.86
53.78
50.64
48.64
47.61
46.97
45.83
43.39
39.18
33.24
26.12
18.57
11.27
4.60
-1.34
-6.76
-11.98
-17.34
-23.21
-29.91
-37.76
-46.89
-57.15
-67.94
-78.05
-85.97
-90.10
-89.29
-83.13
-72.10
-57.34
-40.28
-22.22
-4.19
13.11
29.00
42.78
53.73
61.28
65.32
66.24
64.86
62.10
58.67
54.94
51.02
46.94
42.88
39.20
36.34
34.45
33.35
32.46
31.00
28.42
24.49
19.42
13.76
8.09
2.85
-1.80
-5.91
-9.68
-13.35
-17.12
-21.26
-26.02
-31.69
-38.49
-46.43
-55.24
-64.23
-72.47
-78.83
-82.24
-81.77
-76.88
-67.51
-54.15
-37.83
-20.04
-2.31
13.91
27.63
38.32
45.85
50.43
52.44
52.37
50.80
48.22
45.08
41.66
38.12
34.60
31.30
28.48
26.32
24.74
23.38
21.63
18.89
14.86
9.70
3.90
-1.84
-7.01
-11.38
-15.17
-18.84
-22.90
-27.70
-33.40
-39.97
-47.22
-54.83
-62.23
-68.62
-72.96
-74.14
-71.30
-64.03
-52.56
-37.78
-21.04
-3.84
12.38
26.53
37.91
46.17
51.30
53.51
53.21
50.94
47.34
43.02
38.47
34.08
30.04
26.47
23.46
21.08
19.31
17.97
16.67
14.83
11.94
7.75
2.35
-3.72
-9.78
-15.23
-19.86
-23.92
-27.96
-32.66
-38.51
-45.64
-53.80
-62.39
-70.60
-77.46
-82.04
-83.55
-81.47
-75.53
-65.88
-52.94
-37.45
-20.41
-2.99
13.58
28.19
39.98
48.53
53.84
56.34
56.64
55.34
52.96
49.82
46.15
42.15
38.09
34.31
31.09
28.59
26.68
25.01
23.06
20.32
16.46
11.43
5.49
-0.82
-6.90
-12.29
-16.79
-20.61
-24.26
-28.40
-33.65
-40.32
-48.34
-57.23
-66.12
-73.89
-79.33
-81.37
-79.33
-72.98
-62.63
-48.99
-33.06
-15.96
1.16
17.20
31.19
42.41
50.43
55.21
57.07
56.65
54.71
51.97
48.98
45.90
42.70
39.17
35.28
31.27
27.62
24.80
22.97
21.81
20.61
18.62
15.41
11.01
5.83
0.42
-4.89
-10.01
-15.08
-20.32
-25.86
-31.79
-38.20
-45.22
-52.85
-60.81
-68.42
-74.62
-78.25
-78.29
-74.10
-65.59
-53.18
-37.71
-20.37
-2.62
14.05
28.32
39.25
46.46
50.18
51.09
50.12
48.18
46.00
43.94
42.03
40.01
37.59
34.65
31.37
28.08
25.05
22.27
19.39
15.95
11.68
6.66
1.37
-3.65
-8.07
-11.95
-15.64
-19.54
-23.94
-28.91
-34.42
-40.45
-47.04
-54.16
-61.54
-68.63
-74.52
-78.23
-78.81
-75.59
-68.31
-57.20
-42.90
-26.52
-9.41
7.03
21.52
33.18
41.52
46.50
48.45
48.07
46.14
43.41
40.39
37.28
34.06
30.77
27.53
24.70
22.58
21.17
20.07
18.59
16.04
12.07
6.91
1.15
-4.53
-9.73
-14.48
-19.14
-24.15
-29.85
-36.34
-43.58
-51.41
-59.53
-67.49
-74.54
-79.59
-81.47
-79.13
-72.01
-60.26
-44.72
-26.72
-7.83
10.47
26.93
40.67
51.14
58.20
62.05
63.14
62.16
59.80
56.60
52.88
48.68
44.03
39.04
34.00
29.38
25.54
22.54
20.06
17.52
14.26
9.91
4.52
-1.50
-7.56
-13.15
-18.06
-22.37
-26.40
-30.56
-35.31
-41.02
-47.94
-56.12
-65.25
-74.57
-82.95
-88.99
-91.40
-89.27
-82.22
-70.53
-55.03
-36.91
-17.56
1.68
19.63
35.40
48.42
58.38
65.23
69.21
70.71
70.26
68.39
65.49
61.75
57.25
52.16
46.86
41.95
38.03
35.35
33.61
32.02
29.58
25.57
19.84
12.79
5.20
-2.18
-8.89
-14.86
-20.31
-25.64
-31.31
-37.75
-45.34
-54.22
-64.10
-74.15
-82.99
-89.01
-90.83
-87.67
-79.53
-67.08
-51.37
-33.55
-14.71
4.17
22.15
38.36
52.06
62.75
70.29
74.83
76.71
76.37
74.24
70.71
66.18
61.10
55.93
51.16
47.18
44.28
42.42
41.27
40.22
38.56
35.73
31.45
25.87
19.37
12.44
5.54
-1.06
-7.29
-13.26
-19.18
-25.32
-31.93
-39.23
-47.37
-56.44
-66.31
-76.50
-86.12
-93.85
-98.25
-98.09
-92.83
-82.63
-68.33
-51.07
-31.92
-11.87
8.23
27.41
44.60
58.71
69.03
75.41
78.26
78.42
76.82
74.15
70.80
66.86
62.30
57.19
51.82
46.63
42.03
38.25
35.13
32.23
28.96
24.94
20.19
15.06
10.09
5.62
1.65
-2.26
-6.65
-11.99
-18.39
-25.71
-33.72
-42.27
-51.31
-60.69
-69.94
-78.08
-83.81
-85.76
-82.93
-75.04
-62.58
-46.66
-28.72
-10.26
7.39
23.18
36.36
46.51
53.50
57.50
58.94
58.36
56.40
53.61
50.45
47.26
44.28
41.63
39.35
37.38
35.58
33.74
31.60
28.91
25.48
21.27
16.33
10.85
5.14
-0.53
-5.96
-11.12
-16.12
-21.17
-26.53
-32.42
-38.99
-46.25
-54.05
-62.02
-69.53
-75.71
-79.53
-80.02
-76.46
-68.57
-56.63
-41.42
-24.07
-5.93
11.71
27.59
40.71
50.35
56.21
58.48
57.90
55.50
52.34
49.16
46.25
43.53
40.83
38.04
35.28
32.76
30.51
28.35
25.83
22.52
18.24
13.15
7.70
2.31
-2.74
-7.46
-12.05
-16.76
-21.77
-27.21
-33.20
-39.94
-47.64
-56.35
-65.74
-74.98
-82.75
-87.51
-87.94
-83.36
-73.89
-60.43
-44.34
-27.05
-9.69
6.86
22.07
35.49
46.66
55.15
60.72
63.48
63.90
62.72
60.66
58.17
55.38
52.14
48.33
44.08
39.76
35.88
32.77
30.32
28.06
25.35
21.67
16.86
11.11
4.81
-1.64
-7.97
-14.03
-19.75
-25.13
-30.32
-35.57
-41.37
-48.15
-56.17
-65.18
-74.37
-82.46
-87.97
-89.61
-86.58
-78.78
-66.73
-51.44
-34.11
-15.93
2.02
18.88
33.96
46.78
57.03
64.55
69.32
71.54
71.51
69.71
66.68
62.91
58.72
54.33
49.87
45.52
41.51
38.10
35.30
32.82
30.10
26.50
21.70
15.81
9.36
3.02
-2.65
-7.49
-11.75
-15.90
-20.47
-25.87
-32.29
-39.80
-48.25
-57.34
-66.46
-74.74
-81.08
-84.31
-83.51
-78.15
-68.29
-54.58
-38.05
-19.97
-1.59
15.92
31.51
44.30
53.64
59.27
61.42
60.75
58.19
54.70
50.89
47.07
43.20
39.21
35.21
31.46
28.32
25.93
23.99
21.87
18.84
14.39
8.60
2.05
-4.42
-10.09
-14.67
-18.36
-21.67
-25.19
-29.33
-34.28
-40.12
-46.84
-54.40
-62.49
-70.45
-77.22
-81.50
-82.07
-78.14
-69.54
-56.73
-40.69
-22.70
-4.17
13.48
28.94
41.20
49.76
54.58
56.24
55.63
53.64
50.95
47.88
44.45
40.63
36.57
32.65
29.34
26.93
25.33
24.03
22.35
19.65
15.72
10.79
5.33
-0.10
-5.19
-9.94
-14.56
-19.36
-24.61
-30.50
-37.13
-44.54
-52.74
-61.54
-70.41
-78.42
-84.29
-86.66
-84.46
-77.24
-65.29
-49.55
-31.41
-12.40
6.04
22.67
36.63
47.38
54.80
59.11
60.79
60.49
58.77
56.09
52.73
48.89
44.73
40.52
36.57
33.17
30.46
28.31
26.31
23.83
20.23
15.16
8.71
1.42
-5.90
-12.46
-17.83
-22.11
-25.93
-30.13
-35.51
-42.55
-51.31
-61.43
-72.19
-82.56
-91.27
-96.96
-98.44
-94.98
-86.41
-73.22
-56.41
-37.20
-16.95
3.08
21.74
38.03
51.23
60.95
67.18
70.31
70.92
69.68
67.12
63.62
59.38
54.57
49.43
44.34
39.76
36.07
33.32
31.16
28.87
25.61
20.74
14.11
6.12
-2.34
-10.27
-16.95
-22.21
-26.50
-30.71
-35.76
-42.36
-50.71
-60.47
-70.86
-80.74
-88.84
-93.81
-94.51
-90.20
-80.80
-66.87
-49.53
-30.14
-10.05
9.53
27.61
43.35
56.14
65.67
71.92
75.20
75.95
74.65
71.70
67.42
62.18
56.48
50.92
46.12
42.48
40.03
38.40
36.94
34.94
31.83
27.39
21.77
15.32
8.49
1.56
-5.34
-12.19
-19.01
-25.80
-32.57
-39.45
-46.71
-54.59
-63.24
-72.41
-81.34
-88.83
-93.59
-94.47
-90.75
-82.32
-69.55
-53.22
-34.36
-14.13
6.23
25.46
42.35
55.84
65.23
70.37
71.75
70.29
67.19
63.44
59.70
56.19
52.88
49.70
46.71
44.08
41.92
40.09
38.21
35.72
32.24
27.62
22.09
16.03
9.80
3.54
-2.81
-9.45
-16.55
-24.17
-32.24
-40.63
-49.25
-57.99
-66.68
-74.92
-81.98
-86.86
-88.42
-85.65
-78.04
-65.71
-49.52
-30.85
-11.35
7.35
23.96
37.56
47.72
54.39
57.81
58.47
57.02
54.13
50.44
46.44
42.47
38.75
35.50
32.82
30.75
29.16
27.66
25.77
22.99
19.07
14.08
8.36
2.40
-3.38
-8.82
-14.04
-19.32
-25.05
-31.55
-39.03
-47.59
-57.08
-67.11
-76.97
-85.69
-92.15
-95.33
-94.52
-89.45
-80.26
-67.42
-51.52
-33.20
-13.20
7.61
28.16
47.22
63.53
76.06
84.13
87.65
87.11
83.46
77.89
71.45
64.82
58.30
51.93
45.70
39.77
34.37
29.61
25.30
20.90
15.74
9.36
1.68
-6.88
-15.62
-23.85
-31.19
-37.58
-43.42
-49.36
-56.17
-64.41
-74.25
-85.18
-96.11
-105.59
-112.10
-114.27
-110.79
-100.58
-83.09
-58.92
-30.10
0.03
27.70
49.97
65.60
75.28
80.83
84.09
86.00
86.58
85.40
82.36
77.93
73.02
68.42
64.43
60.83
57.24
53.41
49.34
45.05
40.57
35.67
29.98
23.25
15.41
6.78
-2.10
-10.60
-18.20
-24.65
-30.16
-35.33
-41.07
-48.42
-58.09
-70.18
-83.90
-97.60
-109.08
-116.20
-117.33
-111.82
-99.91
-82.62
-61.33
-37.60
-12.90
11.36
33.82
53.37
69.12
80.63
87.93
91.53
92.15
90.63
87.71
83.96
79.73
75.26
70.74
66.39
62.54
59.41
57.01
55.02
52.78
49.56
44.83
38.47
30.78
22.36
13.85
5.69
-1.93
-9.10
-16.05
-23.14
-30.83
-39.60
-49.86
-61.62
-74.27
-86.48
-96.42
-102.23
-102.52
-96.75
-85.32
-69.26
-49.94
-28.68
-6.73
14.73
34.55
51.54
64.80
73.83
78.79
80.42
79.81
78.03
75.83
73.51
70.92
67.79
63.97
59.64
55.24
51.32
48.14
45.51
42.85
39.36
34.51
28.21
20.88
13.26
5.98
-0.63
-6.59
-12.21
-17.73
-23.32
-29.08
-35.23
-42.16
-50.29
-59.75
-70.07
-80.05
-87.95
-92.00
-90.86
-84.02
-71.82
-55.34
-36.08
-15.62
4.47
22.85
38.53
50.90
59.81
65.43
68.14
68.39
66.56
63.02
58.14
52.41
46.43
40.91
36.47
33.52
32.10
31.80
31.82
31.20
29.04
24.91
18.94
11.83
4.50
-2.17
-7.68
-12.04
-15.62
-19.06
-23.06
-28.19
-34.81
-42.92
-52.11
-61.51
-69.91
-75.90
-78.22
-75.94
-68.73
-56.81
-41.01
-22.53
-2.92
16.21
33.37
47.37
57.50
63.60
66.06
65.62
63.20
59.67
55.67
51.56
47.44
43.33
39.34
35.66
32.58
30.25
28.48
26.77
24.40
20.70
15.44
8.83
1.51
-5.77
-12.43
-18.27
-23.43
-28.27
-33.25
-38.75
-44.99
-52.05
-59.83
-67.91
-75.55
-81.71
-85.17
-84.85
-80.05
-70.69
-57.27
-40.76
-22.38
-3.44
14.83
31.33
45.17
55.70
62.60
65.88
65.98
63.59
59.56
54.78
49.90
45.37
41.30
37.64
34.31
31.35
28.85
26.84
25.10
23.14
20.30
16.10
10.52
4.05
-2.48
-8.30
-13.01
-16.73
-19.99
-23.51
-27.94
-33.66
-40.75
-48.97
-57.61
-65.62
-71.71
-74.64
-73.48
-67.93
-58.32
-45.45
-30.40
-14.23
2.06
17.57
31.41
42.79
51.11
56.14
58.09
57.54
55.28
52.12
48.60
44.99
41.32
37.58
33.83
30.40
27.67
25.98
25.23
24.91
24.13
22.09
18.42
13.37
7.79
2.59
-1.56
-4.62
-7.02
-9.50
-12.74
-17.10
-22.65
-29.27
-36.75
-44.83
-53.15
-60.98
-67.31
-71.01
-71.14
-67.27
-59.64
-49.09
-36.64
-23.28
-9.76
3.36
15.45
25.80
33.68
38.65
40.75
40.56
38.94
36.67
34.18
31.54
28.63
25.44
22.25
19.54
17.78
17.11
17.14
17.08
15.98
13.21
8.68
2.96
-2.99
-8.28
-12.39
-15.44
-17.99
-20.78
-24.30
-28.72
-33.91
-39.64
-45.69
-51.80
-57.57
-62.25
-64.81
-64.21
-59.68
-51.14
-39.22
-25.12
-10.37
3.65
15.88
25.68
32.80
37.31
39.42
39.57
38.25
36.02
33.34
30.50
27.56
24.40
21.00
17.56
14.48
12.22
11.01
10.58
10.26
9.15
6.61
2.51
-2.67
-8.11
-13.05
-17.08
-20.35
-23.42
-26.93
-31.33
-36.76
-42.96
-49.39
-55.43
-60.40
-63.72
-64.85
-63.35
-58.92
-51.46
-41.12
-28.46
-14.43
-0.24
12.86
23.83
32.05
37.47
40.41
41.39
40.96
39.46
37.09
33.98
30.25
26.07
21.71
17.57
14.05
11.50
9.95
9.06
8.18
6.55
3.65
-0.60
-5.77
-11.15
-16.04
-20.01
-23.05
-25.52
-27.91
-30.70
-34.22
-38.69
-44.16
-50.53
-57.45
-64.31
-70.17
-73.98
-74.79
-71.93
-65.26
-55.10
-42.16
-27.36
-11.75
3.56
17.49
29.08
37.68
43.08
45.56
45.73
44.38
42.24
39.83
37.43
35.09
32.83
30.64
28.59
26.75
25.15
23.68
21.99
19.69
16.41
12.03
6.73
0.98
-4.66
-9.77
-14.20
-18.09
-21.79
-25.76
-30.40
-36.01
-42.72
-50.41
-58.71
-66.91
-74.09
-79.28
-81.54
-80.22
-75.01
-66.01
-53.74
-38.98
-22.73
-6.05
10.04
24.59
36.86
46.32
52.77
56.30
57.31
56.38
54.13
51.07
47.57
43.82
40.02
36.39
33.20
30.63
28.67
26.96
24.94
22.07
18.06
13.04
7.44
1.81
-3.43
-8.12
-12.37
-16.42
-20.51
-24.85
-29.54
-34.71
-40.52
-47.13
-54.60
-62.75
-71.05
-78.63
-84.28
-86.78
-85.06
-78.54
-67.30
-52.12
-34.26
-15.29
3.25
19.96
33.84
44.26
51.03
54.40
55.00
53.67
51.20
48.20
44.91
41.39
37.68
34.00
30.72
28.23
26.66
25.72
24.74
22.99
19.91
15.43
9.88
3.77
-2.42
-8.46
-14.31
-20.03
-25.72
-31.49
-37.45
-43.83
-50.82
-58.44
-66.40
-73.98
-80.11
-83.53
-83.07
-77.94
-67.95
-53.57
-35.94
-16.66
2.50
19.94
34.57
45.92
54.07
59.45
62.54
63.69
63.09
60.86
57.23
52.63
47.68
43.03
39.20
36.40
34.49
32.93
31.01
28.01
23.42
17.14
9.44
0.96
-7.58
-15.54
-22.60
-28.86
-34.80
-41.16
-48.65
-57.74
-68.38
-79.92
-91.08
-100.24
-105.72
-106.26
-101.21
-90.68
-75.39
-56.40
-34.96
-12.32
10.24
31.43
50.07
65.17
76.17
83.04
86.31
86.81
85.46
82.96
79.69
75.76
71.17
65.98
60.44
54.97
49.91
45.42
41.31
37.15
32.46
26.99
20.80
14.29
7.93
2.04
-3.40
-8.78
-14.72
-21.87
-30.70
-41.30
-53.30
-65.84
-77.65
-87.23
-93.08
-94.04
-89.52
-79.62
-65.06
-46.99
-26.75
-5.70
14.95
34.11
50.78
64.24
74.00
80.00
82.66
82.76
81.21
78.72
75.65
71.97
67.52
62.26
56.53
50.95
46.15
42.48
39.74
37.24
34.08
29.59
23.68
16.87
9.96
3.68
-1.69
-6.43
-11.14
-16.52
-23.07
-31.04
-40.34
-50.69
-61.58
-72.27
-81.70
-88.65
-91.90
-90.56
-84.22
-73.11
-57.97
-39.90
-20.08
0.33
20.24
38.64
54.57
67.24
76.19
81.42
83.35
82.64
79.96
75.75
70.24
63.65
56.41
49.25
43.01
38.37
35.46
33.75
32.29
30.05
26.40
21.30
15.24
8.98
3.10
-2.18
-7.11
-12.18
-17.90
-24.42
-31.61
-39.11
-46.61
-54.04
-61.51
-69.08
-76.39
-82.54
-86.15
-85.78
-80.35
-69.45
-53.38
-33.02
-9.69
14.87
38.40
58.39
72.64
79.98
80.73
76.66
70.27
63.74
58.26
53.85
49.89
45.89
41.83
38.19
35.40
33.42
31.60
29.02
24.98
19.35
12.63
5.64
-0.85
-6.46
-11.32
-15.85
-20.55
-25.78
-31.73
-38.47
-46.02
-54.31
-63.12
-71.94
-79.90
-85.88
-88.68
-87.21
-80.76
-69.16
-52.87
-33.11
-11.67
9.38
28.13
43.30
54.41
61.74
66.04
68.04
68.29
67.03
64.40
60.57
55.83
50.65
45.54
41.00
37.35
34.65
32.66
30.81
28.41
24.85
19.90
13.79
7.13
0.65
-5.17
-10.21
-14.81
-19.62
-25.32
-32.41
-41.10
-51.16
-61.96
-72.54
-81.73
-88.26
-91.07
-89.36
-82.79
-71.50
-56.19
-37.99
-18.35
1.16
19.24
34.92
47.69
57.37
64.02
67.80
69.02
68.08
65.53
61.90
57.64
53.02
48.30
43.77
39.75
36.52
34.11
32.11
29.85
26.58
21.91
15.98
9.30
2.54
-3.81
-9.65
-15.13
-20.47
-25.79
-31.12
-36.57
-42.44
-49.20
-57.26
-66.54
-76.28
-85.05
-91.12
-92.92
-89.57
-81.01
-67.91
-51.44
-32.90
-13.57
5.36
22.88
38.12
50.49
59.74
65.91
69.28
70.28
69.35
66.95
63.50
59.39
54.88
50.14
45.29
40.49
35.94
31.88
28.40
25.36
22.32
18.68
13.97
8.10
1.40
-5.45
-11.80
-17.22
-21.68
-25.49
-29.11
-33.01
-37.63
-43.37
-50.56
-59.27
-69.10
-79.05
-87.57
-92.94
-93.68
-89.07
-79.26
-65.13
-47.99
-29.19
-9.91
8.83
26.13
41.13
53.15
61.79
67.08
69.45
69.63
68.35
66.20
63.38
59.89
55.64
50.73
45.57
40.81
37.09
34.72
33.48
32.60
31.05
27.97
23.01
16.41
8.88
1.25
-5.81
-12.00
-17.43
-22.44
-27.53
-33.20
-39.87
-47.81
-57.07
-67.27
-77.62
-86.84
-93.45
-96.09
-93.82
-86.38
-74.25
-58.38
-40.01
-20.49
-1.05
17.18
33.22
46.33
56.05
62.34
65.54
66.23
65.05
62.50
58.90
54.47
49.50
44.53
40.25
37.33
36.07
36.16
36.66
36.36
34.22
29.91
23.84
17.03
10.58
5.15
0.77
-3.05
-6.99
-11.63
-17.11
-23.33
-30.04
-37.00
-44.26
-51.91
-60.05
-68.51
-76.71
-83.56
-87.64
-87.49
-82.05
-71.07
-55.15
-35.76
-14.78
5.82
24.33
39.51
50.56
57.29
60.00
59.51
56.88
53.29
49.64
46.39
43.65
41.17
38.78
36.34
33.88
31.41
28.72
25.40
20.90
14.91
7.49
-0.80
-9.08
-16.48
-22.54
-27.29
-31.22
-35.08
-39.54
-45.06
-51.69
-59.22
-67.13
-74.77
-81.44
-86.28
-88.46
-87.04
-81.25
-70.65
-55.52
-36.97
-16.80
2.83
19.99
33.44
42.73
48.19
50.57
50.73
49.42
47.22
44.56
41.65
38.57
35.29
31.75
28.01
24.29
20.90
18.15
16.08
14.44
12.68
10.20
6.60
1.91
-3.41
-8.65
-13.16
-16.63
-19.25
-21.68
-24.84
-29.59
-36.40
-45.09
-54.79
-64.02
-71.10
-74.47
-73.08
-66.57
-55.29
-40.17
-22.45
-3.52
15.21
32.45
47.04
58.17
65.47
69.14
69.90
68.76
66.71
64.31
61.60
58.27
54.01
48.83
43.25
38.08
34.04
31.36
29.58
27.78
25.00
20.62
14.59
7.34
-0.56
-8.59
-16.42
-23.86
-30.81
-37.26
-43.27
-49.20
-55.51
-62.61
-70.54
-78.72
-86.02
-91.03
-92.40
-89.26
-81.31
-68.78
-52.36
-33.15
-12.50
7.92
26.45
41.59
52.48
58.97
61.65
61.54
59.78
57.30
54.62
51.85
48.83
45.34
41.32
37.05
33.06
29.93
27.93
26.84
25.91
24.15
20.80
15.57
8.81
1.23
-6.39
-13.45
-19.73
-25.29
-30.42
-35.55
-41.13
-47.68
-55.56
-64.85
-75.17
-85.56
-94.66
-100.89
-102.97
-100.08
-92.10
-79.49
-63.14
-44.07
-23.38
-2.19
18.30
36.82
52.17
63.47
70.41
73.35
73.17
71.01
67.90
64.47
60.94
57.21
53.11
48.66
44.15
40.04
36.69
34.11
31.87
29.19
25.36
19.98
13.24
5.80
-1.53
-8.16
-13.86
-18.86
-23.61
-28.59
-34.21
-40.72
-48.30
-56.87
-66.09
-75.20
-83.04
-88.28
-89.72
-86.56
-78.63
-66.30
-50.36
-31.87
-11.98
8.05
27.01
43.73
57.25
66.96
72.69
74.85
74.28
72.09
69.28
66.51
63.90
61.19
58.11
54.58
50.96
47.81
45.51
44.04
42.85
41.10
38.13
33.69
28.09
21.92
15.76
9.94
4.45
-0.92
-6.37
-12.01
-17.90
-24.11
-30.83
-38.32
-46.66
-55.60
-64.29
-71.49
-75.82
-76.18
-72.07
-63.70
-51.83
-37.43
-21.49
-4.89
11.60
27.20
41.14
52.69
61.32
66.79
69.25
69.09
66.85
63.12
58.44
53.24
47.95
43.07
39.14
36.65
35.74
36.09
36.86
36.94
35.42
31.91
26.74
20.80
15.10
10.34
6.61
3.47
0.13
-4.08
-9.50
-16.08
-23.45
-31.16
-38.78
-45.93
-52.08
-56.62
-58.73
-57.68
-53.11
-45.26
-34.89
-23.08
-10.84
1.12
12.46
22.98
32.42
40.34
46.24
49.78
50.95
50.17
48.03
45.13
41.84
38.31
34.57
30.77
27.16
24.04
21.66
19.96
18.59
17.04
14.88
11.91
8.24
4.16
-0.02
-4.13
-8.16
-12.12
-16.03
-19.85
-23.54
-27.23
-31.07
-35.14
-39.29
-42.95
-45.36
-45.70
-43.39
-38.24
-30.48
-20.65
-9.47
2.21
13.46
23.32
30.93
35.74
37.63
37.01
34.69
31.56
28.45
25.77
23.63
21.76
19.86
17.66
15.08
12.22
9.21
6.15
3.14
0.29
-2.30
-4.49
-6.30
-7.84
-9.29
-10.91
-12.86
-15.24
-18.10
-21.42
-25.19
-29.26
-33.25
-36.51
-38.29
-37.94
-35.07
-29.77
-22.45
-13.73
-4.29
5.21
14.15
21.94
28.06
32.12
33.95
33.68
31.77
28.93
25.87
23.09
20.70
18.42
15.87
12.83
9.50
6.38
3.97
2.39
1.24
-0.19
-2.54
-5.83
-9.55
-12.80
-14.89
-15.73
-15.87
-16.26
-17.75
-20.75
-25.04
-29.92
-34.51
-37.93
-39.58
-39.17
-36.69
-32.35
-26.44
-19.36
-11.55
-3.50
4.25
11.15
16.70
20.53
22.54
22.89
21.94
20.21
18.14
16.02
13.93
11.79
9.49
7.07
4.70
2.65
1.20
0.40
0.03
-0.34
-1.16
-2.75
-5.13
-8.04
-11.05
-13.82
-16.14
-18.11
-20.00
-22.18
-24.98
-28.51
-32.62
-36.84
-40.49
-42.83
-43.22
-41.30
-37.10
-30.99
-23.57
-15.50
-7.41
0.19
6.87
12.30
16.18
18.29
18.65
17.54
15.44
12.97
10.65
8.75
7.25
5.98
4.78
3.63
2.66
1.91
1.24
0.23
-1.62
-4.67
-8.85
-13.65
-18.27
-21.99
-24.42
-25.66
-26.19
-26.68
-27.74
-29.73
-32.65
-36.24
-39.95
-43.12
-45.04
-45.10
-42.90
-38.27
-31.38
-22.77
-13.24
-3.78
4.67
11.37
15.86
18.08
18.26
16.98
14.92
12.78
11.04
9.82
8.89
7.82
6.32
4.34
2.15
0.10
-1.62
-3.06
-4.53
-6.33
-8.63
-11.36
-14.29
-17.16
-19.88
-22.60
-25.62
-29.24
-33.58
-38.54
-43.71
-48.53
-52.41
-54.86
-55.55
-54.26
-50.85
-45.20
-37.38
-27.66
-16.69
-5.36
5.32
14.40
21.19
25.37
27.03
26.60
24.74
22.18
19.50
17.01
14.74
12.51
10.19
7.82
5.58
3.70
2.19
0.81
-0.90
-3.34
-6.69
-10.77
-15.15
-19.41
-23.34
-27.05
-31.01
-35.69
-41.44
-48.19
-55.49
-62.56
-68.51
-72.56
-74.19
-73.17
-69.42
-62.90
-53.68
-41.96
-28.29
-13.69
0.57
13.22
23.42
30.92
36.03
39.36
41.50
42.75
43.14
42.55
40.88
38.24
34.96
31.45
28.06
25.01
22.18
19.32
15.98
11.87
6.85
1.08
-5.09
-11.21
-16.92
-22.13
-27.03
-32.01
-37.70
-44.59
-52.83
-62.08
-71.38
-79.41
-84.77
-86.41
-83.90
-77.42
-67.57
-55.10
-40.79
-25.32
-9.43
5.97
19.90
31.48
40.23
46.20
49.97
52.29
53.72
54.46
54.31
53.03
50.63
47.56
44.59
42.47
41.49
41.25
40.80
39.03
35.13
28.97
21.17
12.83
5.12
-1.23
-6.23
-10.60
-15.60
-22.51
-32.24
-45.09
-60.48
-76.84
-91.72
-102.17
-105.67
-101.06
-89.05
-72.01
-52.96
-34.26
-16.80
-0.04
17.02
34.68
51.90
66.80
77.59
83.61
85.60
85.24
84.14
83.06
81.85
79.77
76.30
71.52
66.17
61.41
58.12
56.44
55.66
54.43
51.39
45.79
37.81
28.51
19.30
11.25
4.67
-0.94
-6.57
-13.11
-21.14
-30.65
-41.31
-52.48
-63.35
-72.87
-79.80
-82.89
-81.22
-74.54
-63.31
-48.56
-31.55
-13.48
4.71
22.23
38.34
52.34
63.59
71.69
76.73
79.20
79.88
79.52
78.58
77.11
74.86
71.58
67.34
62.63
58.19
54.69
52.22
50.28
47.88
44.10
38.53
31.51
23.92
16.69
10.29
4.58
-1.05
-7.23
-14.25
-21.99
-30.00
-37.91
-45.66
-53.37
-61.25
-69.10
-76.28
-81.67
-84.08
-82.52
-76.46
-65.71
-50.23
-30.26
-6.59
19.07
44.00
65.06
79.59
86.51
86.65
82.30
76.17
70.26
65.28
60.93
56.63
52.19
48.07
44.92
43.10
42.22
41.29
39.14
35.08
29.23
22.45
16.02
10.82
7.08
4.20
1.15
-3.02
-8.81
-16.09
-24.35
-33.05
-41.78
-50.24
-57.99
-64.25
-67.92
-67.81
-63.11
-53.65
-40.03
-23.54
-5.77
11.68
27.47
40.69
50.86
57.88
61.95
63.51
63.07
61.17
58.20
54.42
50.00
45.13
40.17
35.60
31.91
29.34
27.70
26.44
24.79
22.18
18.34
13.46
8.05
2.60
-2.57
-7.38
-12.02
-16.77
-21.89
-27.66
-34.27
-41.78
-49.99
-58.37
-66.01
-71.78
-74.52
-73.39
-68.00
-58.57
-45.82
-30.81
-14.80
0.95
15.31
27.41
36.79
43.43
47.68
50.07
51.15
51.21
50.32
48.35
45.26
41.25
36.86
32.79
29.63
27.61
26.47
25.54
24.00
21.16
16.77
11.05
4.53
-2.11
-8.33
-13.90
-18.80
-23.34
-27.95
-33.11
-39.22
-46.50
-54.80
-63.50
-71.51
-77.48
-80.16
-78.74
-73.04
-63.58
-51.22
-36.94
-21.57
-5.85
9.54
23.80
36.12
45.75
52.28
55.80
56.83
56.15
54.53
52.52
50.31
47.82
44.85
41.33
37.45
33.60
30.19
27.41
25.10
22.77
19.78
15.76
10.70
4.99
-0.78
-6.13
-10.87
-15.14
-19.28
-23.75
-28.89
-34.93
-41.95
-49.79
-58.01
-65.77
-71.95
-75.40
-75.19
-70.91
-62.80
-51.52
-38.02
-23.20
-7.87
7.24
21.46
34.07
44.38
51.89
56.43
58.19
57.61
55.34
51.97
47.96
43.61
39.10
34.58
30.19
26.21
22.88
20.33
18.43
16.76
14.71
11.75
7.73
2.90
-2.09
-6.62
-10.40
-13.63
-16.86
-20.74
-25.71
-31.85
-38.94
-46.56
-54.15
-61.08
-66.54
-69.62
-69.46
-65.56
-57.90
-47.02
-33.83
-19.35
-4.60
9.56
22.39
33.20
41.37
46.53
48.68
48.25
46.08
43.08
39.99
37.18
34.62
32.10
29.47
26.76
24.17
21.87
19.88
17.97
15.77
12.93
9.32
5.12
0.66
-3.71
-7.77
-11.50
-15.05
-18.67
-22.60
-27.01
-32.01
-37.71
-44.15
-51.28
-58.81
-66.11
-72.23
-76.07
-76.57
-73.04
-65.31
-53.80
-39.43
-23.47
-7.30
7.83
20.92
31.36
38.90
43.64
45.92
46.26
45.18
43.14
40.41
37.14
33.46
29.54
25.64
22.12
19.26
17.11
15.46
13.89
11.94
9.30
5.94
2.06
-2.08
-6.29
-10.53
-14.94
-19.63
-24.66
-29.97
-35.42
-41.01
-46.87
-53.16
-59.87
-66.50
-72.09
-75.45
-75.54
-71.76
-64.12
-53.17
-39.71
-24.69
-9.03
6.38
20.63
32.87
42.46
49.08
52.80
54.00
53.25
51.12
48.05
44.31
40.12
35.71
31.40
27.62
24.73
22.85
21.70
20.67
19.06
16.30
12.26
7.21
1.74
-3.59
-8.42
-12.74
-16.73
-20.72
-24.98
-29.78
-35.32
-41.80
-49.37
-58.01
-67.40
-76.81
-85.20
-91.34
-94.15
-92.91
-87.43
-77.99
-65.26
-50.09
-33.34
-15.85
1.53
17.97
32.64
44.84
54.12
60.33
63.73
64.79
64.19
62.58
60.49
58.20
55.81
53.28
50.53
47.55
44.39
41.12
37.78
34.27
30.43
26.11
21.22
15.74
9.75
3.38
-3.26
-10.10
-17.05
-24.01
-30.87
-37.58
-44.25
-51.10
-58.39
-66.20
-74.18
-81.50
-86.89
-89.04
-86.92
-80.11
-68.92
-54.18
-37.02
-18.58
0.05
17.84
33.86
47.26
57.54
64.49
68.42
69.92
69.77
68.61
66.86
64.69
62.08
59.06
55.72
52.26
48.97
45.98
43.21
40.34
36.86
32.35
26.62
19.85
12.50
5.15
-1.81
-8.28
-14.36
-20.28
-26.20
-32.19
-38.31
-44.81
-52.07
-60.41
-69.70
-79.17
-87.40
-92.81
-94.13
-90.82
-83.08
-71.55
-57.02
-40.17
-21.68
-2.48
16.24
33.05
46.68
56.46
62.47
65.46
66.38
66.10
65.05
63.26
60.63
57.14
53.04
48.83
45.05
42.01
39.65
37.52
34.98
31.44
26.59
20.48
13.43
5.92
-1.71
-9.15
-16.35
-23.27
-29.91
-36.33
-42.58
-48.79
-55.14
-61.66
-68.18
-74.17
-78.77
-80.98
-79.83
-74.71
-65.45
-52.42
-36.45
-18.65
-0.28
17.45
33.48
46.94
57.27
64.16
67.70
68.32
66.77
63.94
60.62
57.35
54.32
51.49
48.77
46.13
43.65
41.43
39.40
37.24
34.40
30.38
24.86
17.94
10.08
1.98
-5.71
-12.60
-18.64
-24.12
-29.55
-35.51
-42.41
-50.46
-59.56
-69.27
-78.78
-87.01
-92.68
-94.64
-92.04
-84.63
-72.73
-57.18
-39.16
-19.98
-0.87
17.12
33.12
46.49
56.88
64.19
68.61
70.51
70.42
68.90
66.45
63.43
60.07
56.49
52.86
49.39
46.32
43.80
41.73
39.78
37.37
33.95
29.20
23.22
16.43
9.46
2.84
-3.23
-8.97
-14.82
-21.25
-28.53
-36.68
-45.52
-54.87
-64.55
-74.21
-83.18
-90.32
-94.24
-93.64
-87.80
-76.87
-61.78
-43.88
-24.59
-5.09
13.69
30.96
45.90
57.81
66.24
71.25
73.43
73.70
72.95
71.73
70.08
67.78
64.54
60.40
55.75
51.19
47.14
43.73
40.58
37.14
32.88
27.55
21.24
14.34
7.26
0.40
-6.02
-11.95
-17.54
-23.05
-28.87
-35.36
-42.84
-51.43
-60.92
-70.62
-79.46
-86.02
-88.91
-87.11
-80.26
-68.73
-53.49
-35.83
-17.07
1.66
19.40
35.34
48.75
59.06
65.97
69.60
70.47
69.32
66.93
63.88
60.44
56.65
52.49
48.12
43.82
40.00
36.92
34.55
32.45
29.97
26.49
21.70
15.67
8.89
2.02
-4.37
-10.00
-14.95
-19.60
-24.41
-29.78
-35.98
-43.06
-50.92
-59.20
-67.32
-74.39
-79.32
-80.96
-78.45
-71.40
-60.03
-45.16
-28.03
-10.08
7.29
22.84
35.64
45.10
51.08
53.83
54.01
52.45
49.98
47.20
44.33
41.27
37.77
33.71
29.26
24.91
21.24
18.65
17.05
15.90
14.39
11.89
8.17
3.48
-1.59
-6.48
-10.90
-14.95
-18.98
-23.41
-28.53
-34.53
-41.44
-49.16
-57.38
-65.53
-72.68
-77.68
-79.38
-76.95
-70.05
-58.99
-44.55
-27.88
-10.27
6.93
22.45
35.29
44.87
51.12
54.49
55.71
55.53
54.46
52.63
50.01
46.54
42.40
38.01
33.94
30.62
28.14
26.23
24.26
21.65
17.96
13.17
7.53
1.50
-4.51
-10.25
-15.73
-21.13
-26.75
-32.94
-40.05
-48.21
-57.27
-66.68
-75.42
-82.29
-86.11
-86.04
-81.77
-73.47
-61.70
-47.22
-30.82
-13.35
4.30
21.16
36.22
48.57
57.63
63.20
65.59
65.46
63.61
60.76
57.39
53.69
49.71
45.51
41.33
37.52
34.41
32.03
30.00
27.63
24.19
19.27
12.99
5.96
-0.99
-7.20
-12.41
-16.86
-21.12
-25.94
-31.91
-39.35
-48.19
-57.91
-67.56
-75.93
-81.66
-83.66
-81.26
-74.34
-63.32
-49.02
-32.49
-14.83
2.83
19.52
34.43
46.95
56.69
63.52
67.52
68.99
68.42
66.39
63.44
59.91
55.96
51.63
47.03
42.50
38.45
35.21
32.81
30.89
28.82
25.98
22.01
16.92
11.03
4.77
-1.46
-7.44
-13.09
-18.48
-23.80
-29.31
-35.31
-42.17
-50.10
-58.99
-68.21
-76.64
-82.83
-85.38
-83.33
-76.40
-64.98
-49.97
-32.56
-13.96
4.61
21.95
36.97
48.72
56.67
60.87
61.92
60.79
58.43
55.50
52.24
48.52
44.22
39.45
34.69
30.60
27.66
25.84
24.50
22.76
19.84
15.48
10.01
4.17
-1.37
-6.24
-10.44
-14.27
-18.04
-21.95
-26.06
-30.40
-35.10
-40.36
-46.34
-53.01
-59.98
-66.49
-71.44
-73.62
-72.04
-66.11
-55.86
-42.04
-25.92
-9.06
7.04
21.15
32.48
40.73
45.98
48.66
49.38
48.74
47.21
45.02
42.19
38.65
34.48
29.98
25.68
22.09
19.48
17.64
16.04
13.98
10.96
6.86
1.96
-3.23
-8.22
-12.71
-16.66
-20.26
-23.83
-27.79
-32.57
-38.48
-45.50
-53.15
-60.46
-66.21
-69.24
-68.77
-64.53
-56.72
-45.77
-32.27
-16.98
-0.90
14.71
28.49
39.31
46.60
50.55
51.87
51.47
50.01
47.80
44.74
40.81
36.17
31.20
26.48
22.42
19.21
16.67
14.45
12.08
9.15
5.41
0.81
-4.41
-9.81
-14.90
-19.32
-23.00
-26.19
-29.38
-33.10
-37.80
-43.75
-51.02
-59.36
-68.17
-76.39
-82.66
-85.64
-84.42
-78.67
-68.79
-55.62
-40.18
-23.45
-6.34
10.27
25.51
38.51
48.65
55.65
59.71
61.35
61.24
59.95
57.74
54.72
50.94
46.61
42.20
38.26
35.27
33.28
31.94
30.51
28.22
24.55
19.44
13.29
6.77
0.49
-5.20
-10.30
-15.09
-20.03
-25.55
-32.01
-39.59
-48.29
-57.76
-67.28
-75.75
-81.84
-84.32
-82.42
-76.03
-65.59
-51.91
-35.84
-18.17
0.30
18.64
35.65
50.03
60.72
67.26
69.88
69.48
67.24
64.18
60.95
57.76
54.52
51.03
47.23
43.25
39.34
35.72
32.42
29.17
25.53
21.04
15.53
9.20
2.56
-3.85
-9.71
-15.09
-20.30
-25.67
-31.31
-37.24
-43.32
-49.65
-56.36
-63.52
-70.90
-77.75
-82.92
-85.21
-83.67
-77.91
-68.11
-54.89
-39.10
-21.75
-3.86
13.41
28.94
41.70
51.03
56.83
59.56
60.11
59.36
57.91
55.89
53.13
49.43
44.93
40.12
35.70
32.24
29.80
27.97
25.97
23.09
18.99
13.82
8.09
2.36
-3.00
-7.97
-12.75
-17.63
-22.80
-28.32
-34.20
-40.49
-47.28
-54.50
-61.87
-68.65
-73.81
-76.21
-74.87
-69.21
-59.22
-45.48
-29.04
-11.31
6.22
22.13
35.37
45.29
51.71
54.87
55.26
53.61
50.61
46.87
42.84
38.71
34.64
30.79
27.43
24.85
23.23
22.37
21.68
20.34
17.67
13.43
7.90
1.78
-4.26
-9.83
-14.98
-20.02
-25.28
-30.99
-37.26
-44.16
-51.81
-60.19
-68.99
-77.50
-84.56
-88.87
-89.29
-85.04
-75.97
-62.43
-45.30
-25.84
-5.56
13.97
31.41
45.75
56.50
63.64
67.50
68.69
67.94
66.10
63.86
61.68
59.63
57.45
54.74
51.30
47.22
42.88
38.62
34.47
30.11
25.01
18.78
11.50
3.70
-3.86
-10.57
-16.19
-20.99
-25.49
-30.27
-35.85
-42.56
-50.58
-59.74
-69.47
-78.66
-85.88
-89.60
-88.71
-82.82
-72.26
-57.93
-40.91
-22.33
-3.27
15.19
31.93
45.93
56.53
63.59
67.50
69.06
69.09
68.20
66.71
64.63
61.96
58.74
55.22
51.79
48.82
46.50
44.71
43.01
40.83
37.65
33.25
27.75
21.56
15.17
8.92
3.00
-2.65
-8.23
-13.93
-20.00
-26.74
-34.42
-43.25
-53.16
-63.57
-73.40
-81.12
-85.15
-84.26
-78.00
-66.70
-51.42
-33.62
-14.81
3.69
20.89
36.03
48.59
58.21
64.73
68.27
69.20
68.15
65.87
62.97
59.84
56.54
52.96
49.00
44.76
40.59
36.89
33.86
31.25
28.50
24.96
20.24
14.43
8.10
1.94
-3.44
-7.86
-11.60
-15.24
-19.40
-24.56
-30.89
-38.31
-46.49
-54.94
-63.03
-69.95
-74.79
-76.61
-74.65
-68.42
-57.95
-43.85
-27.21
-9.50
7.71
23.01
35.34
44.14
49.43
51.67
51.63
50.15
47.92
45.33
42.54
39.52
36.31
33.06
30.02
27.48
25.53
23.99
22.45
20.45
17.72
14.23
10.28
6.30
2.61
-0.64
-3.56
-6.44
-9.64
-13.46
-18.11
-23.72
-30.25
-37.53
-45.11
-52.33
-58.38
-62.43
-63.72
-61.65
-55.85
-46.34
-33.56
-18.45
-2.39
13.05
26.42
36.76
43.70
47.47
48.77
48.43
47.22
45.64
43.90
41.96
39.63
36.77
33.45
29.94
26.68
24.02
22.01
20.36
18.59
16.17
12.82
8.54
3.55
-1.82
-7.30
-12.73
-18.00
-23.03
-27.77
-32.25
-36.62
-41.17
-46.22
-51.91
-57.99
-63.81
-68.37
-70.59
-69.61
-64.98
-56.71
-45.25
-31.33
-15.90
-0.04
15.09
28.40
39.02
46.42
50.53
51.73
50.74
48.44
45.62
42.88
40.46
38.25
35.95
33.35
30.45
27.52
25.01
23.12
21.75
20.37
18.27
14.89
10.12
4.35
-1.71
-7.31
-12.02
-15.75
-18.76
-21.48
-24.35
-27.75
-32.09
-37.71
-44.77
-53.07
-61.79
-69.59
-74.88
-76.34
-73.37
-66.20
-55.70
-42.93
-28.85
-14.20
0.36
14.10
26.19
35.88
42.71
46.77
48.56
48.82
48.28
47.36
46.21
44.70
42.64
39.87
36.50
32.80
29.24
26.23
23.92
22.11
20.28
17.86
14.43
9.96
4.78
-0.61
-5.79
-10.59
-15.09
-19.44
-23.77
-28.13
-32.52
-37.05
-41.98
-47.54
-53.75
-60.17
-65.87
-69.65
-70.41
-67.55
-61.03
-51.34
-39.27
-25.63
-11.15
3.43
17.29
29.48
39.08
45.47
48.59
48.98
47.65
45.58
43.46
41.45
39.37
37.04
34.48
31.98
29.89
28.40
27.32
26.15
24.35
21.57
17.85
13.53
9.03
4.63
0.34
-4.03
-8.73
-13.84
-19.21
-24.50
-29.36
-33.75
-37.92
-42.43
-47.73
-53.88
-60.39
-66.23
-70.25
-71.45
-69.27
-63.61
-54.77
-43.35
-30.09
-15.90
-1.82
11.10
21.98
30.26
35.78
38.79
39.73
39.12
37.36
34.76
31.55
27.97
24.34
21.13
18.78
17.59
17.47
17.93
18.12
17.18
14.60
10.36
4.96
-0.84
-6.35
-11.17
-15.28
-18.91
-22.41
-26.10
-30.19
-34.85
-40.19
-46.27
-52.99
-60.04
-66.87
-72.63
-76.43
-77.36
-74.82
-68.62
-59.00
-46.58
-32.31
-17.18
-2.23
11.62
23.54
32.95
39.54
43.37
44.82
44.51
43.09
41.09
38.81
36.29
33.52
30.53
27.55
24.88
22.77
21.22
19.87
18.12
15.39
11.42
6.35
0.71
-4.86
-9.90
-14.25
-18.10
-21.71
-25.35
-29.27
-33.72
-39.04
-45.57
-53.39
-62.13
-70.77
-77.88
-81.89
-81.67
-76.83
-67.71
-55.21
-40.43
-24.34
-7.77
8.49
23.61
36.72
47.06
54.25
58.40
60.05
59.91
58.58
56.31
53.17
49.20
44.67
40.09
36.08
33.11
31.19
29.86
28.38
26.03
22.43
17.65
12.18
6.64
1.54
-3.05
-7.45
-12.17
-17.73
-24.36
-32.01
-40.43
-49.31
-58.33
-67.05
-74.85
-80.75
-83.69
-82.69
-77.19
-67.24
-53.52
-37.12
-19.30
-1.31
15.72
30.82
43.23
52.48
58.47
61.50
62.20
61.36
59.66
57.52
55.06
52.19
48.86
45.22
41.62
38.49
36.00
33.93
31.74
28.78
24.68
19.49
13.63
7.67
1.98
-3.40
-8.64
-13.96
-19.44
-25.03
-30.73
-36.67
-43.22
-50.79
-59.56
-69.21
-78.87
-87.21
-92.67
-93.84
-89.72
-79.95
-64.95
-45.90
-24.54
-2.91
17.07
33.97
47.03
56.20
61.96
64.99
65.98
65.37
63.39
60.17
55.90
50.93
45.80
41.13
37.45
34.89
33.17
31.67
29.61
26.41
21.88
16.29
10.19
4.20
-1.28
-6.17
-10.75
-15.49
-20.87
-27.28
-34.87
-43.60
-53.19
-63.00
-72.09
-79.28
-83.37
-83.39
-78.76
-69.41
-55.76
-38.67
-19.37
0.67
19.92
37.01
50.96
61.27
67.94
71.35
72.07
70.78
68.14
64.71
60.95
57.13
53.30
49.45
45.60
41.83
38.26
34.88
31.43
27.44
22.46
16.28
9.14
1.65
-5.55
-12.04
-17.84
-23.35
-29.15
-35.76
-43.49
-52.41
-62.29
-72.60
-82.40
-90.47
-95.48
-96.29
-92.25
-83.33
-70.06
-53.29
-34.06
-13.44
7.44
27.39
45.25
59.97
70.84
77.65
80.74
80.86
79.01
76.12
72.81
69.32
65.62
61.58
57.30
53.18
49.73
47.32
45.83
44.60
42.62
38.97
33.26
25.76
17.33
8.99
1.50
-4.91
-10.59
-16.18
-22.37
-29.64
-38.22
-47.98
-58.54
-69.10
-78.57
-85.56
-88.74
-87.09
-80.23
-68.46
-52.64
-34.02
-13.96
6.13
24.94
41.28
54.30
63.58
69.25
71.90
72.37
71.47
69.81
67.67
65.06
61.84
57.96
53.57
49.10
45.08
41.94
39.75
38.03
36.05
33.07
28.74
23.24
17.14
11.07
5.40
0.07
-5.31
-11.15
-17.67
-24.85
-32.56
-40.72
-49.37
-58.51
-67.84
-76.50
-83.19
-86.47
-85.28
-79.20
-68.61
-54.40
-37.73
-19.79
-1.72
15.34
30.26
42.06
50.17
54.56
55.77
54.72
52.33
49.40
46.31
43.18
40.02
36.87
33.96
31.59
30.01
29.23
28.89
28.36
26.94
24.19
20.05
14.93
9.49
4.31
-0.26
-4.29
-8.11
-12.12
-16.61
-21.76
-27.59
-34.08
-41.20
-48.77
-56.36
-63.26
-68.44
-70.74
-69.16
-63.08
-52.50
-38.19
-21.59
-4.48
11.37
24.64
34.70
41.58
45.81
48.08
48.94
48.75
47.65
45.68
42.93
39.58
35.92
32.31
29.14
26.66
24.90
23.62
22.34
20.56
17.83
13.99
9.07
3.34
-2.86
-9.12
-15.07
-20.48
-25.28
-29.62
-33.96
-38.89
-44.96
-52.47
-61.18
-70.20
-78.18
-83.53
-84.94
-81.68
-73.75
-61.90
-47.23
-30.97
-14.23
2.02
16.92
29.73
39.84
46.96
51.18
52.93
52.88
51.73
50.03
48.02
45.73
43.04
39.87
36.39
32.93
29.90
27.56
25.86
24.34
22.39
19.42
15.13
9.61
3.23
-3.45
-9.93
-15.90
-21.32
-26.44
-31.77
-37.96
-45.55
-54.65
-64.72
-74.52
-82.35
-86.54
-85.88
-80.02
-69.48
-55.38
-39.01
-21.55
-3.89
13.22
29.07
42.85
53.74
61.14
64.97
65.74
64.34
61.76
58.65
55.21
51.30
46.72
41.62
36.55
32.32
29.51
28.14
27.58
26.74
24.60
20.69
15.23
8.98
2.85
-2.54
-7.06
-11.02
-14.93
-19.24
-24.25
-30.08
-36.88
-44.74
-53.63
-63.11
-72.26
-79.66
-83.83
-83.59
-78.44
-68.69
-55.28
-39.45
-22.38
-5.13
11.44
26.45
39.07
48.61
54.76
57.69
57.95
56.34
53.60
50.26
46.61
42.85
39.18
35.84
33.03
30.82
29.00
27.13
24.68
21.26
16.79
11.55
6.17
1.29
-2.63
-5.53
-7.80
-10.09
-13.09
-17.25
-22.75
-29.44
-37.10
-45.43
-54.12
-62.69
-70.37
-76.14
-78.76
-77.14
-70.65
-59.37
-44.14
-26.51
-8.32
8.71
23.22
34.41
42.01
46.20
47.47
46.56
44.28
41.46
38.69
36.29
34.29
32.49
30.65
28.63
26.35
23.77
20.70
16.96
12.36
6.94
0.99
-5.00
-10.58
-15.55
-19.99
-24.23
-28.66
-33.67
-39.48
-46.10
-53.41
-60.98
-68.16
-74.09
-77.82
-78.54
-75.74
-69.31
-59.49
-46.80
-31.94
-15.68
1.06
17.33
32.12
44.59
54.15
60.57
63.98
64.87
63.81
61.39
58.00
53.85
49.05
43.80
38.50
33.70
29.87
27.15
25.21
23.29
20.52
16.32
10.65
3.94
-3.05
-9.73
-15.86
-21.59
-27.38
-33.69
-40.88
-49.16
-58.48
-68.54
-78.57
-87.34
-93.33
-95.16
-92.03
-84.00
-71.90
-56.92
-40.22
-22.58
-4.61
13.07
29.50
43.54
54.13
60.77
63.72
63.87
62.41
60.31
58.04
55.60
52.78
49.45
45.79
42.20
39.08
36.54
34.22
31.42
27.51
22.30
16.21
10.13
4.89
0.85
-2.37
-5.73
-10.29
-16.81
-25.47
-35.88
-47.32
-58.92
-69.74
-78.75
-84.97
-87.46
-85.68
-79.49
-69.32
-55.92
-40.18
-22.99
-5.20
12.33
28.62
42.66
53.57
60.79
64.34
64.83
63.29
60.84
58.29
56.00
53.86
51.57
48.94
46.06
43.19
40.61
38.27
35.67
32.11
27.01
20.25
12.41
4.51
-2.39
-7.66
-11.37
-14.21
-17.20
-21.20
-26.72
-33.79
-42.11
-51.19
-60.52
-69.54
-77.57
-83.69
-86.86
-86.02
-80.41
-69.81
-54.77
-36.58
-17.03
1.89
18.50
31.75
41.29
47.44
50.86
52.34
52.50
51.76
50.29
48.16
45.36
41.96
38.14
34.23
30.59
27.48
24.93
22.60
19.91
16.29
11.46
5.54
-0.90
-7.16
-12.70
-17.44
-21.69
-26.09
-31.20
-37.32
-44.33
-51.87
-59.40
-66.34
-72.05
-75.84
-76.97
-74.71
-68.50
-58.09
-43.69
-25.99
-6.12
14.53
34.54
52.58
67.59
78.85
86.04
89.18
88.64
84.94
78.75
70.78
61.75
52.48
43.83
36.62
31.29
27.75
25.21
22.50
18.48
12.64
5.34
-2.36
-9.26
-14.57
-18.39
-21.56
-25.34
-30.74
-38.19
-47.31
-57.26
-66.93
-75.30
-81.49
-84.86
-84.96
-81.53
-74.59
-64.42
-51.45
-36.17
-19.00
-0.32
19.31
39.04
57.58
73.40
85.13
91.96
94.00
92.08
87.47
81.36
74.50
67.20
59.57
51.84
44.49
38.12
33.08
29.13
25.50
21.16
15.35
7.95
-0.42
-8.68
-15.81
-21.29
-25.36
-28.83
-32.74
-37.93
-44.74
-52.92
-61.89
-70.85
-79.00
-85.58
-89.84
-91.12
-88.92
-83.00
-73.42
-60.46
-44.43
-25.53
-4.11
18.98
42.06
62.74
78.52
87.68
89.97
86.75
80.43
73.44
67.42
62.83
59.20
55.88
52.50
49.25
46.61
44.91
43.90
42.85
40.80
37.06
31.51
24.60
17.16
9.95
3.37
-2.56
-8.11
-13.56
-19.11
-24.83
-30.85
-37.38
-44.70
-52.95
-61.91
-70.85
-78.51
-83.45
-84.33
-80.35
-71.45
-58.27
-42.00
-23.99
-5.56
12.16
28.29
42.12
53.19
61.26
66.40
68.93
69.39
68.39
66.41
63.69
60.30
56.24
51.62
46.77
42.21
38.44
35.74
34.00
32.64
30.84
27.88
23.37
17.47
10.77
4.02
-2.12
-7.40
-11.91
-16.01
-20.07
-24.31
-28.84
-33.79
-39.32
-45.66
-52.85
-60.50
-67.64
-72.99
-75.22
-73.46
-67.47
-57.72
-45.13
-30.76
-15.66
-0.71
13.27
25.51
35.35
42.31
46.29
47.61
46.94
45.07
42.66
40.16
37.68
35.26
32.92
30.81
29.11
27.90
27.01
25.89
23.89
20.54
15.79
10.11
4.35
-0.73
-4.78
-7.96
-10.83
-13.93
-17.57
-21.65
-25.83
-29.77
-33.33
-36.69
-40.16
-44.01
-48.34
-52.94
-57.17
-60.16
-60.82
-58.15
-51.52
-40.95
-27.22
-11.71
3.91
18.11
29.78
38.35
43.75
46.31
46.61
45.30
43.02
40.28
37.38
34.39
31.28
28.02
24.72
21.65
19.08
17.16
15.72
14.34
12.41
9.57
5.77
1.43
-2.84
-6.54
-9.58
-12.28
-15.19
-18.81
-23.39
-28.92
-35.29
-42.40
-50.09
-57.94
-65.22
-70.82
-73.57
-72.52
-67.31
-58.14
-45.80
-31.34
-15.94
-0.75
13.20
25.09
34.35
40.75
44.41
45.78
45.49
44.25
42.58
40.78
38.86
36.64
33.90
30.63
27.05
23.61
20.73
18.68
17.36
16.33
14.99
12.75
9.28
4.59
-1.08
-7.26
-13.48
-19.34
-24.61
-29.18
-33.14
-36.73
-40.33
-44.51
-49.75
-56.18
-63.42
-70.44
-75.81
-78.08
-76.22
-69.96
-59.77
-46.65
-31.77
-16.26
-1.02
13.19
25.74
36.04
43.65
48.41
50.52
50.52
49.17
47.21
45.11
42.97
40.55
37.54
33.82
29.68
25.75
22.66
20.63
19.27
17.71
15.01
10.70
5.05
-1.08
-6.69
-11.15
-14.48
-17.26
-20.21
-23.85
-28.28
-33.37
-38.92
-44.90
-51.24
-57.68
-63.53
-67.71
-69.13
-67.02
-61.29
-52.44
-41.35
-28.82
-15.38
-1.32
12.99
26.91
39.38
49.15
55.13
56.79
54.44
49.09
42.27
35.46
29.78
25.72
23.23
21.88
21.16
20.62
19.88
18.50
16.07
12.30
7.20
1.25
-4.72
-9.86
-13.64
-16.15
-17.92
-19.68
-21.99
-25.04
-28.73
-32.87
-37.40
-42.39
-47.93
-53.92
-59.93
-65.22
-68.85
-69.90
-67.61
-61.53
-51.64
-38.44
-22.87
-6.31
9.70
23.71
34.68
42.19
46.44
48.12
48.09
47.06
45.38
43.07
39.89
35.74
30.87
25.85
21.38
18.00
15.88
14.70
13.89
12.80
10.88
7.85
3.70
-1.40
-7.15
-13.15
-19.03
-24.50
-29.41
-33.86
-38.12
-42.67
-47.97
-54.33
-61.67
-69.42
-76.44
-81.33
-82.68
-79.56
-71.76
-59.91
-45.21
-29.01
-12.58
3.13
17.44
29.81
39.80
47.13
51.71
53.77
53.73
52.18
49.62
46.42
42.79
38.95
35.18
31.84
29.23
27.44
26.20
24.90
22.85
19.50
14.71
8.81
2.43
-3.77
-9.39
-14.42
-19.17
-24.11
-29.72
-36.39
-44.44
-53.99
-64.74
-75.94
-86.25
-94.08
-97.90
-96.78
-90.52
-79.72
-65.39
-48.68
-30.53
-11.66
7.22
25.33
41.69
55.27
65.31
71.52
74.19
74.11
72.31
69.67
66.72
63.57
60.10
56.22
52.05
47.94
44.21
40.97
37.93
34.55
30.28
24.86
18.48
11.63
4.91
-1.30
-6.96
-12.38
-18.04
-24.38
-31.68
-40.08
-49.52
-59.80
-70.42
-80.55
-89.04
-94.51
-95.72
-91.78
-82.39
-67.95
-49.39
-28.12
-5.73
16.16
36.06
52.76
65.53
74.16
79.03
80.94
80.94
79.93
78.37
76.25
73.24
69.01
63.66
57.80
52.35
48.05
45.02
42.65
39.87
35.75
29.94
22.86
15.34
8.19
1.80
-3.93
-9.45
-15.20
-21.38
-28.01
-35.14
-42.90
-51.61
-61.42
-72.04
-82.59
-91.55
-97.23
-98.09
-93.24
-82.58
-66.82
-47.27
-25.61
-3.70
16.69
34.03
47.30
56.12
60.80
62.14
61.24
59.08
56.40
53.51
50.47
47.22
43.80
40.38
37.24
34.56
32.33
30.24
27.86
24.75
20.68
15.74
10.21
4.55
-0.93
-6.14
-11.25
-16.71
-23.01
-30.50
-39.25
-49.01
-59.23
-69.06
-77.50
-83.42
-85.72
-83.53
-76.45
-64.73
-49.31
-31.59
-13.15
4.66
20.90
35.01
46.69
55.76
62.09
65.66
66.67
65.48
62.61
58.59
53.90
49.00
44.30
40.20
36.96
34.63
32.84
30.91
28.06
23.69
17.71
10.56
2.96
-4.39
-11.19
-17.53
-23.72
-30.11
-36.95
-44.39
-52.61
-61.81
-71.87
-82.20
-91.62
-98.53
-101.42
-99.28
-91.78
-79.02
-61.31
-39.25
-13.90
12.85
38.45
60.21
76.19
85.82
89.93
90.20
88.37
85.52
81.97
77.62
72.41
66.65
60.98
56.08
52.33
49.58
47.25
44.51
40.63
35.20
28.42
20.84
13.18
5.97
-0.59
-6.69
-12.70
-19.04
-25.98
-33.72
-42.30
-51.68
-61.58
-71.47
-80.43
-87.22
-90.43
-88.81
-81.60
-68.83
-51.41
-30.88
-9.11
12.17
31.61
48.39
62.06
72.38
79.32
83.07
84.06
82.97
80.50
77.15
73.20
68.68
63.67
58.49
53.64
49.59
46.52
44.08
41.48
37.87
32.73
26.15
18.74
11.35
4.63
-1.19
-6.31
-11.21
-16.42
-22.42
-29.59
-38.21
-48.35
-59.57
-70.84
-80.46
-86.56
-87.56
-82.74
-72.43
-57.83
-40.53
-22.06
-3.63
13.86
29.71
43.21
53.77
61.04
65.09
66.46
65.96
64.40
62.30
59.82
56.82
53.15
48.86
44.37
40.27
37.04
34.72
32.81
30.48
26.96
21.95
15.77
9.15
2.86
-2.68
-7.52
-12.05
-16.74
-21.89
-27.66
-34.02
-40.94
-48.24
-55.60
-62.45
-68.02
-71.38
-71.62
-68.04
-60.26
-48.46
-33.38
-16.31
1.09
17.14
30.55
40.62
47.30
51.02
52.43
52.20
50.74
48.34
45.10
41.12
36.63
32.04
27.87
24.62
22.52
21.40
20.71
19.72
17.80
14.71
10.57
5.82
0.95
-3.69
-8.06
-12.38
-17.05
-22.53
-29.08
-36.70
-45.00
-53.26
-60.57
-65.99
-68.67
-68.05
-63.86
-56.14
-45.27
-31.91
-16.98
-1.53
13.33
26.59
37.47
45.44
50.35
52.41
52.16
50.32
47.61
44.55
41.38
38.10
34.65
31.15
27.90
25.29
23.47
22.17
20.75
18.39
14.46
8.91
2.20
-4.79
-11.19
-16.39
-20.29
-23.26
-25.90
-28.90
-32.84
-38.05
-44.60
-52.15
-60.00
-67.07
-72.19
-74.32
-72.73
-67.23
-58.14
-46.13
-32.06
-16.86
-1.50
13.11
26.09
36.67
44.39
49.18
51.35
51.48
50.18
48.00
45.26
42.08
38.51
34.65
30.76
27.22
24.47
22.75
21.94
21.53
20.70
18.65
14.87
9.39
2.79
-4.01
-10.09
-14.95
-18.57
-21.47
-24.36
-27.91
-32.57
-38.47
-45.42
-52.97
-60.41
-66.82
-71.15
-72.46
-70.13
-64.07
-54.60
-42.43
-28.36
-13.25
1.93
16.15
28.30
37.52
43.44
46.27
46.75
45.72
43.86
41.47
38.53
34.97
30.92
26.73
22.93
19.92
17.93
16.89
16.47
16.14
15.28
13.31
9.91
5.19
-0.33
-5.83
-10.55
-14.14
-16.74
-18.88
-21.22
-24.30
-28.40
-33.58
-39.71
-46.53
-53.47
-59.70
-64.14
-65.77
-63.90
-58.36
-49.47
-37.92
-24.62
-10.56
3.20
15.57
25.58
32.54
36.37
37.53
36.98
35.76
34.61
33.78
33.05
32.00
30.31
27.97
25.23
22.48
19.97
17.72
15.46
12.90
9.77
6.04
1.89
-2.41
-6.63
-10.62
-14.37
-18.01
-21.63
-25.37
-29.31
-33.55
-38.23
-43.46
-49.27
-55.37
-61.14
-65.64
-67.89
-67.11
-62.97
-55.58
-45.43
-33.16
-19.50
-5.22
8.71
21.19
31.09
37.63
40.64
40.66
38.74
35.99
33.23
30.72
28.31
25.75
23.00
20.22
17.76
15.81
14.19
12.37
9.78
6.12
1.52
-3.43
-8.06
-11.98
-15.21
-18.19
-21.41
-25.21
-29.57
-34.23
-38.93
-43.59
-48.39
-53.55
-59.11
-64.75
-69.80
-73.32
-74.39
-72.33
-66.76
-57.71
-45.67
-31.47
-16.16
-0.92
13.15
25.13
34.41
40.74
44.23
45.33
44.57
42.51
39.59
36.11
32.31
28.49
25.06
22.44
20.92
20.38
20.29
19.81
18.07
14.57
9.33
2.96
-3.64
-9.59
-14.39
-18.07
-21.20
-24.54
-28.78
-34.32
-41.22
-49.17
-57.62
-65.79
-72.77
-77.49
-78.98
-76.55
-69.97
-59.55
-46.06
-30.62
-14.45
1.25
15.46
27.46
36.82
43.52
47.79
50.03
50.63
49.90
47.99
44.99
41.05
36.52
31.94
27.93
24.93
22.98
21.66
20.12
17.52
13.32
7.52
0.72
-6.22
-12.55
-17.91
-22.42
-26.64
-31.28
-37.04
-44.38
-53.34
-63.41
-73.56
-82.25
-87.92
-89.26
-85.62
-77.10
-64.45
-48.77
-31.22
-12.90
5.20
22.16
37.19
49.65
59.20
65.80
69.73
71.43
71.29
69.68
66.86
63.08
58.73
54.24
50.17
46.94
44.73
43.31
42.01
39.94
36.31
30.81
23.70
15.73
7.82
0.66
-5.53
-10.98
-16.26
-22.04
-28.82
-36.92
-46.39
-56.97
-68.00
-78.41
-86.75
-91.54
-91.59
-86.31
-75.92
-61.26
-43.56
-24.09
-3.99
15.84
34.60
51.43
65.48
76.03
82.77
85.91
86.17
84.46
81.51
77.66
72.96
67.36
61.15
54.99
49.67
45.78
43.25
41.41
39.26
35.89
30.95
24.70
17.82
11.04
4.82
-0.79
-6.07
-11.41
-17.21
-23.76
-31.30
-40.06
-50.13
-61.30
-72.88
-83.61
-91.86
-95.97
-94.77
-87.81
-75.58
-59.29
-40.46
-20.64
-1.14
17.07
33.28
47.01
57.85
65.57
70.14
71.81
71.07
68.61
65.05
60.92
56.55
52.25
48.28
44.96
42.45
40.51
38.45
35.36
30.51
23.73
15.56
7.06
-0.67
-6.92
-11.63
-15.28
-18.64
-22.42
-27.21
-33.33
-40.89
-49.64
-58.92
-67.67
-74.60
-78.41
-78.10
-73.14
-63.58
-49.94
-33.21
-14.69
4.17
22.00
37.64
50.33
59.66
65.63
68.53
68.87
67.31
64.52
61.03
57.23
53.32
49.48
45.94
42.98
40.76
39.10
37.44
35.01
31.18
25.75
19.09
11.95
5.06
-1.14
-6.64
-11.82
-17.16
-23.11
-29.95
-37.79
-46.59
-56.06
-65.67
-74.51
-81.41
-85.12
-84.68
-79.61
-70.05
-56.67
-40.44
-22.46
-3.88
14.15
30.54
44.27
54.63
61.31
64.51
64.85
63.22
60.50
57.32
54.00
50.57
46.97
43.24
39.60
36.45
34.08
32.52
31.37
29.96
27.58
23.84
18.86
13.16
7.39
2.03
-2.78
-7.24
-11.69
-16.53
-22.17
-28.98
-37.19
-46.70
-56.88
-66.50
-74.02
-77.97
-77.42
-72.18
-62.72
-49.89
-34.67
-18.02
-0.93
15.53
30.28
42.42
51.37
57.05
59.81
60.21
58.92
56.54
53.51
50.17
46.76
43.48
40.55
38.19
36.57
35.67
35.16
34.39
32.53
28.93
23.39
16.37
8.81
1.80
-3.92
-8.22
-11.61
-14.89
-18.87
-24.06
-30.63
-38.44
-47.10
-55.97
-64.11
-70.33
-73.46
-72.61
-67.47
-58.27
-45.80
-31.04
-15.06
1.10
16.44
30.03
41.09
49.15
54.15
56.44
56.59
55.24
52.90
49.89
46.35
42.37
38.08
33.70
29.46
25.60
22.22
19.28
16.55
13.72
10.51
6.81
2.70
-1.53
-5.57
-9.19
-12.42
-15.49
-18.83
-22.81
-27.70
-33.52
-40.09
-47.05
-53.83
-59.68
-63.75
-65.14
-63.13
-57.39
-47.94
-35.33
-20.46
-4.52
11.15
25.27
36.72
44.80
49.37
50.81
49.95
47.72
44.93
42.03
39.06
35.84
32.14
27.93
23.48
19.27
15.75
