1624886055.00
64.000000
-0.00
-0.00
-0.00
-0.00
-0.00
-0.00
-0.00
-0.00
-0.00
-0.00
0.00
0.01
0.01
-0.00
-0.03
-0.05
-0.05
0.00
0.13
0.36
0.66
1.01
1.37
1.72
2.06
2.40
2.79
3.24
3.80
4.42
5.06
5.66
6.20
6.68
7.15
7.68
8.31
9.14
10.09
11.04
11.88
12.56
13.14
13.76
14.65
15.96
17.91
20.32
22.90
25.38
27.58
29.57
31.68
34.32
37.81
42.54
48.15
54.10
59.83
64.97
69.58
74.14
79.34
85.71
93.76
103.00
112.62
121.73
129.77
136.75
143.30
150.75
157.77
166.64
177.95
191.79
206.97
220.57
228.25
225.36
208.53
176.87
132.76
80.05
23.07
-34.94
-92.44
-149.16
-205.23
-260.37
-313.74
-363.87
-409.83
-450.91
-486.50
-515.74
-537.23
-549.22
-549.96
-538.37
-514.21
-478.67
-433.88
-382.45
-327.02
-269.84
-212.63
-156.66
-102.95
-52.37
-5.90
35.58
71.43
101.35
125.50
144.38
158.69
169.15
176.37
180.75
182.57
182.07
179.51
175.23
169.65
163.18
156.15
148.81
141.30
133.69
126.02
118.33
110.69
103.16
95.80
88.68
81.83
75.25
68.95
62.95
57.25
51.86
46.78
42.03
37.59
33.45
29.61
26.07
22.81
19.83
17.11
14.67
12.48
10.54
8.83
7.35
6.07
4.97
4.05
3.27
2.62
2.09
1.66
1.31
1.03
0.82
0.66
0.54
0.46
0.41
0.38
0.37
0.38
0.39
0.42
0.45
0.49
0.53
0.58
0.62
0.67
0.73
0.79
0.85
0.93
1.00
1.09
1.18
1.29
1.41
1.55
1.70
1.87
2.06
2.27
2.50
2.76
3.04
3.36
3.70
4.08
4.49
4.94
5.43
5.95
6.51
7.12
7.77
8.46
9.19
9.98
10.81
11.68
12.60
13.57
14.59
15.68
16.84
18.05
19.32
20.63
21.92
23.14
24.20
24.98
25.37
25.25
24.48
23.01
20.79
17.86
14.27
10.13
5.65
1.02
-3.54
-7.81
-11.59
-14.74
-17.16
-18.82
-19.70
-19.87
-19.44
-18.50
-17.20
-15.65
-13.93
-12.13
-10.30
-8.43
-6.52
-4.62
-2.70
-0.78
1.17
3.17
5.26
7.44
9.78
12.31
14.97
17.71
20.52
23.39
26.34
29.37
32.50
35.78
39.36
43.07
46.87
50.80
54.89
59.18
63.69
68.46
73.56
79.17
84.99
90.93
96.94
103.04
109.21
115.46
121.73
128.09
134.68
141.05
147.01
152.38
156.95
160.30
161.71
160.07
153.66
145.05
134.96
123.96
112.57
101.15
89.86
78.59
67.10
55.20
42.99
30.22
17.17
4.29
-8.03
-19.75
-31.21
-43.01
-55.69
-69.40
-84.33
-100.04
-115.90
-131.36
-146.23
-160.76
-175.49
-191.11
-208.35
-228.21
-251.14
-276.61
-302.61
-325.69
-341.73
-347.26
-340.68
-322.97
-297.39
-268.04
-238.46
-210.77
-185.66
-163.02
-142.68
-124.72
-109.37
-96.58
-85.82
-76.15
-66.69
-57.03
-47.38
-38.48
-31.15
-25.82
-22.26
-19.56
-16.55
-12.25
-6.24
1.11
8.97
16.35
22.60
27.63
31.84
35.78
39.81
43.86
47.46
49.97
50.94
50.32
48.54
46.29
44.26
42.87
42.16
41.88
41.70
41.32
40.59
39.41
37.68
35.28
32.08
28.06
23.34
18.26
13.24
8.69
4.93
2.18
0.63
0.45
1.83
4.85
9.39
15.07
21.31
27.47
32.96
37.29
40.06
40.94
39.79
36.72
32.25
27.22
22.66
19.37
17.70
17.44
17.99
18.70
19.10
19.11
18.87
18.64
18.59
18.74
19.02
19.19
18.92
17.67
14.87
10.02
3.02
-5.62
-14.67
-22.55
-27.79
-29.56
-27.88
-23.47
-17.38
-10.44
-3.08
4.61
12.59
20.54
27.76
33.34
36.53
37.00
35.00
31.20
26.44
21.52
17.02
13.33
10.69
9.15
8.53
8.41
8.18
7.25
5.26
2.21
-1.59
-5.61
-9.41
-12.80
-15.79
-18.64
-21.61
-24.85
-28.39
-32.05
-35.49
-38.25
-39.78
-39.63
-37.54
-33.58
-28.19
-22.00
-15.76
-9.98
-4.97
-0.75
2.81
5.81
8.32
10.33
11.85
12.95
13.78
14.43
14.98
15.44
15.73
15.85
15.77
15.43
14.72
13.52
11.73
9.37
6.61
3.68
0.83
-1.85
-4.41
-7.06
-9.99
-13.37
-17.28
-21.68
-26.43
-31.14
-35.26
-38.13
-39.12
-37.85
-34.37
-29.17
-23.00
-16.66
-10.77
-5.68
-1.37
2.32
5.61
8.62
11.36
13.75
15.67
17.10
18.05
18.66
19.09
19.44
19.74
19.93
19.86
19.36
18.35
16.83
14.91
12.74
10.42
8.00
5.45
2.76
-0.06
-2.92
-5.78
-8.67
-11.70
-14.88
-18.01
-20.59
-21.94
-21.35
-18.46
-13.46
-7.03
-0.15
6.20
11.36
15.13
17.66
19.28
20.29
20.84
21.04
21.02
21.00
21.29
22.09
23.31
24.50
24.99
24.19
21.88
18.32
14.10
9.91
6.25
3.29
0.95
-0.93
-2.56
-4.16
-6.09
-8.76
-12.48
-17.21
-22.41
-27.05
-30.03
-30.57
-28.57
-24.59
-19.63
-14.64
-10.20
-6.37
-2.84
0.78
4.67
8.63
12.22
14.88
16.23
16.18
14.98
13.10
11.09
9.36
8.04
6.96
5.65
3.61
0.44
-3.99
-9.43
-15.41
-21.39
-27.02
-32.23
-37.31
-42.82
-49.40
-57.67
-67.83
-79.44
-91.30
-101.55
-108.23
-109.86
-106.05
-97.61
-86.28
-74.08
-62.57
-52.47
-43.51
-34.78
-25.13
-13.70
-0.01
15.85
33.39
51.88
70.34
87.73
103.10
115.69
125.19
131.78
136.13
139.14
141.64
144.11
146.67
149.20
151.55
153.60
155.15
155.70
154.33
149.98
141.73
129.43
113.75
96.14
78.27
61.52
46.57
33.36
21.41
10.18
-0.58
-10.85
-20.40
-29.00
-36.44
-42.54
-47.01
-49.42
-49.43
-47.02
-42.76
-37.85
-33.84
-32.15
-33.60
-38.20
-45.19
-53.46
-61.94
-69.94
-77.22
-83.87
-90.03
-95.75
-100.90
-105.38
-109.21
-112.62
-115.89
-119.22
-122.48
-125.17
-126.64
-126.29
-123.87
-119.49
-113.48
-106.11
-97.39
-87.12
-75.03
-61.18
-46.02
-30.42
-15.41
-1.88
9.74
19.49
27.70
34.78
40.98
46.37
50.99
54.98
58.63
62.25
65.91
69.29
71.77
72.69
71.75
69.17
65.58
61.70
57.95
54.32
50.48
46.07
41.02
35.60
30.31
25.56
21.49
17.91
14.50
11.17
8.27
6.60
7.11
10.44
16.48
24.34
32.62
39.97
45.77
50.34
54.87
60.79
69.09
79.80
91.96
103.90
113.83
120.38
122.89
121.46
116.80
109.93
101.99
93.96
86.56
80.11
74.62
69.86
65.54
61.36
57.05
52.30
46.86
40.53
33.38
25.82
18.48
12.05
7.03
3.52
1.29
-0.08
-1.07
-1.98
-3.04
-4.39
-6.12
-8.17
-10.29
-12.06
-13.01
-12.83
-11.66
-10.11
-9.15
-9.79
-12.61
-17.54
-23.89
-30.63
-36.85
-42.16
-46.73
-51.08
-55.57
-60.11
-64.04
-66.36
-66.16
-63.04
-57.21
-49.42
-40.63
-31.77
-23.56
-16.44
-10.66
-6.23
-3.03
-0.85
0.56
1.43
1.95
2.33
2.71
3.04
3.07
2.29
0.18
-3.52
-8.63
-14.50
-20.27
-25.26
-29.28
-32.69
-36.10
-40.04
-44.62
-49.50
-53.97
-57.32
-59.02
-58.89
-57.08
-53.94
-49.91
-45.30
-40.30
-34.91
-29.16
-23.19
-17.36
-12.14
-8.00
-5.19
-3.67
-3.11
-3.08
-3.11
-2.86
-2.09
-0.65
1.52
4.36
7.67
11.08
14.15
16.55
18.15
19.11
19.77
20.46
21.27
22.00
22.24
21.51
19.53
16.32
12.19
7.63
3.14
-0.85
-4.03
-6.19
-7.28
-7.38
-6.73
-5.73
-4.78
-4.20
-4.19
-4.73
-5.74
-7.14
-8.92
-11.15
-13.94
-17.25
-20.86
-24.34
-27.15
-28.78
-28.98
-27.78
-25.51
-22.70
-19.86
-17.34
-15.25
-13.45
-11.71
-9.86
-7.97
-6.24
-4.97
-4.31
-4.26
-4.70
-5.49
-6.64
-8.19
-10.08
-11.96
-13.20
-13.09
-11.18
-7.43
-2.32
3.39
8.91
13.77
17.79
21.06
23.71
25.82
27.42
28.51
29.21
29.69
30.11
30.54
30.87
30.89
30.45
29.52
28.24
26.82
25.45
24.19
22.98
21.75
20.46
19.22
18.08
17.12
16.25
15.30
14.04
12.30
9.97
7.12
3.89
0.66
-2.11
-3.84
-3.97
-2.03
2.16
8.49
16.59
25.93
35.97
46.27
56.46
66.13
74.70
81.44
85.70
87.09
85.75
82.32
77.59
72.23
66.46
60.07
52.56
43.55
32.90
20.78
7.47
-6.79
-21.78
-37.20
-52.56
-67.13
-80.12
-90.90
-99.27
-105.41
-109.82
-113.16
-116.01
-118.75
-121.54
-124.29
-126.68
-128.24
-128.41
-126.71
-122.82
-116.68
-108.47
-98.56
-87.35
-75.17
-62.20
-48.57
-34.43
-20.06
-5.88
7.53
19.68
30.17
38.89
45.94
51.59
56.20
60.10
63.49
66.44
68.83
70.46
71.07
70.54
68.89
66.27
62.88
58.87
54.31
49.27
43.80
38.07
32.25
26.47
20.73
14.94
9.06
3.24
-2.02
-6.05
-8.16
-8.00
-5.68
-1.82
2.72
7.16
11.06
14.45
17.63
20.97
24.62
28.40
31.89
34.68
36.51
37.40
37.55
37.24
36.63
35.76
34.60
33.17
31.60
30.05
28.66
27.39
26.08
24.54
22.65
20.54
18.46
16.66
15.25
14.12
12.98
11.49
9.46
6.87
4.00
1.32
-0.67
-1.49
-0.93
0.90
3.50
6.08
7.84
8.21
7.09
4.75
1.67
-1.83
-5.73
-10.23
-15.62
-22.01
-29.28
-37.26
-45.86
-55.30
-65.86
-77.67
-90.39
-103.15
-114.82
-124.42
-131.41
-135.83
-138.19
-139.20
-139.62
-140.14
-141.34
-143.58
-146.84
-150.59
-153.79
-154.97
-152.65
-145.63
-133.26
-115.46
-92.62
-65.40
-34.71
-1.74
31.98
64.55
93.91
118.34
136.94
150.04
159.13
166.36
173.61
181.73
190.12
196.99
200.28
198.53
191.61
180.65
167.46
153.70
140.31
127.39
114.51
101.24
87.42
73.27
59.20
45.55
32.57
20.42
9.33
-0.33
-8.10
-13.54
-16.43
-16.85
-15.30
-12.57
-9.65
-7.42
-6.46
-6.93
-8.54
-10.76
-13.02
-14.93
-16.27
-17.07
-17.50
-17.79
-18.18
-18.92
-20.19
-22.05
-24.45
-27.22
-30.24
-33.52
-37.31
-42.02
-48.03
-55.38
-63.60
-71.61
-78.07
-81.70
-81.77
-78.35
-72.21
-64.58
-56.66
-49.40
-43.34
-38.67
-35.40
-33.39
-32.46
-32.30
-32.54
-32.74
-32.56
-31.83
-30.60
-29.09
-27.54
-26.14
-24.96
-23.95
-23.03
-22.20
-21.50
-21.17
-21.55
-23.00
-25.70
-29.44
-33.54
-36.98
-38.65
-37.74
-34.07
-28.06
-20.60
-12.62
-4.84
2.30
8.62
13.97
18.19
21.18
22.99
23.88
24.28
24.61
25.10
25.74
26.25
26.34
25.82
24.72
23.22
21.52
19.74
17.81
15.58
12.83
9.39
5.22
0.37
-4.91
-10.19
-14.87
-18.29
-19.86
-19.30
-16.72
-12.63
-7.75
-2.75
1.94
6.10
9.65
12.48
14.45
15.38
15.26
14.26
12.66
10.70
8.47
5.86
2.75
-0.78
-4.31
-7.24
-8.94
-9.16
-8.08
-6.28
-4.58
-3.77
-4.37
-6.51
-9.92
-13.90
-17.53
-20.00
-20.85
-20.28
-19.05
-18.15
-18.35
-19.81
-21.93
-23.62
-23.80
-21.79
-17.69
-12.22
-6.55
-1.82
1.15
2.13
1.39
-0.51
-2.98
-5.70
-8.70
-12.19
-16.35
-21.06
-25.79
-29.80
-32.35
-32.93
-31.33
-27.65
-22.09
-15.01
-6.96
1.29
8.86
14.92
19.03
21.21
21.94
21.99
22.12
22.91
24.63
27.34
30.87
34.92
39.09
42.99
46.37
49.10
51.25
52.95
54.27
55.14
55.38
54.80
53.31
51.00
48.06
44.81
41.57
38.61
36.07
33.94
32.06
30.12
27.81
24.90
21.34
17.21
12.75
8.24
3.82
-0.58
-5.30
-10.73
-17.03
-23.77
-29.80
-33.50
-33.44
-29.03
-20.93
-10.86
-0.83
7.63
14.06
19.00
23.35
27.69
31.95
35.57
37.91
38.78
38.61
38.16
38.16
38.89
40.13
41.30
41.78
41.13
39.21
36.14
32.21
27.80
23.27
18.89
14.81
11.05
7.54
4.20
1.02
-2.01
-4.87
-7.67
-10.64
-14.05
-18.04
-22.53
-27.02
-30.76
-32.90
-32.77
-30.08
-25.01
-18.08
-10.03
-1.59
6.67
14.35
21.19
27.00
31.53
34.52
35.74
35.13
32.91
29.62
26.00
22.79
20.46
19.06
18.27
17.56
16.46
14.75
12.50
9.93
7.28
4.70
2.18
-0.38
-3.07
-5.92
-8.89
-11.85
-14.69
-17.28
-19.62
-21.72
-23.72
-25.75
-27.99
-30.60
-33.67
-37.13
-40.72
-44.02
-46.46
-47.51
-46.76
-44.02
-39.40
-33.21
-25.94
-18.06
-9.99
-1.99
5.77
13.14
19.87
25.63
30.10
33.10
34.79
35.60
36.15
36.90
38.02
39.34
40.48
41.12
41.10
40.48
39.43
38.05
36.37
34.28
31.69
28.59
25.11
21.47
17.86
14.44
11.21
8.05
4.84
1.47
-2.06
-5.64
-9.08
-12.27
-15.22
-18.07
-21.13
-24.70
-28.92
-33.64
-38.39
-42.46
-45.11
-45.82
-44.45
-41.24
-36.70
-31.36
-25.58
-19.54
-13.24
-6.74
-0.24
5.93
11.36
15.71
18.87
20.89
22.00
22.47
22.53
22.34
22.08
21.90
21.97
22.38
23.07
23.79
24.16
23.86
22.79
21.11
19.14
17.22
15.50
13.96
12.46
10.87
9.13
7.32
5.50
3.69
1.84
-0.19
-2.63
-5.81
-10.11
-16.02
-23.81
-33.38
-44.03
-54.47
-63.18
-68.83
-70.80
-69.29
-65.11
-59.24
-52.47
-45.12
-37.24
-28.86
-20.28
-12.04
-4.73
1.25
5.92
9.64
12.88
16.04
19.17
22.11
24.63
26.60
28.09
29.30
30.40
31.38
32.04
32.07
31.25
29.51
27.00
23.98
20.78
17.71
15.02
12.84
11.09
9.58
7.96
5.93
3.31
0.22
-3.08
-6.29
-9.21
-11.91
-14.64
-17.72
-21.37
-25.52
-29.88
-33.93
-37.12
-38.96
-39.22
-37.89
-35.12
-31.21
-26.52
-21.44
-16.35
-11.59
-7.36
-3.71
-0.57
2.19
4.65
6.76
8.37
9.34
9.68
9.65
9.63
9.91
10.51
11.04
10.91
9.63
7.13
3.84
0.48
-2.28
-4.18
-5.45
-6.62
-8.19
-10.33
-12.85
-15.39
-17.66
-19.56
-21.25
-22.91
-24.66
-26.46
-28.23
-29.84
-31.31
-32.74
-34.24
-35.85
-37.42
-38.64
-39.07
-38.28
-35.98
-32.15
-27.03
-21.08
-14.80
-8.64
-2.81
2.66
7.90
12.99
17.92
22.51
26.56
29.90
32.48
34.35
35.56
36.20
36.27
35.80
34.83
33.47
31.82
29.99
28.08
26.09
24.04
21.92
19.69
17.34
14.86
12.24
9.54
6.76
3.89
0.92
-2.17
-5.36
-8.54
-11.63
-14.56
-17.34
-20.12
-23.09
-26.43
-30.16
-34.12
-37.90
-40.97
-42.75
-42.87
-41.21
-38.02
-33.73
-28.82
-23.67
-18.44
-13.15
-7.82
-2.53
2.49
6.99
10.77
13.82
16.25
18.20
19.75
20.86
21.49
21.61
21.36
20.99
20.74
20.75
21.00
21.24
21.14
20.45
19.10
17.21
15.10
13.06
11.26
9.69
8.23
6.75
5.21
3.69
2.30
1.07
-0.12
-1.45
-3.13
-5.28
-7.93
-10.99
-14.24
-17.34
-19.84
-21.23
-21.11
-19.33
-16.05
-11.73
-6.91
-2.09
2.43
6.59
10.47
14.23
17.99
21.81
25.57
29.03
31.81
33.55
34.03
33.33
31.82
30.02
28.41
27.18
26.20
25.14
23.61
21.39
18.55
15.35
12.11
9.15
6.58
4.34
2.25
0.03
-2.54
-5.55
-8.91
-12.36
-15.61
-18.43
-20.91
-23.38
-26.38
-30.33
-35.33
-41.02
-46.52
-50.74
-52.64
-51.57
-47.47
-40.88
-32.77
-24.27
-16.37
-9.76
-4.65
-0.91
1.79
3.81
5.30
6.28
6.71
6.61
6.20
5.81
5.75
6.12
6.80
7.43
7.68
7.37
6.61
5.67
4.87
4.32
3.92
3.37
2.38
0.84
-1.16
-3.38
-5.64
-7.84
-10.03
-12.23
-14.41
-16.51
-18.58
-20.78
-23.42
-26.67
-30.42
-34.06
-36.72
-37.52
-35.97
-32.10
-26.47
-19.88
-13.11
-6.70
-0.86
4.39
9.16
13.52
17.41
20.68
23.13
24.60
25.05
24.69
23.87
23.03
22.49
22.38
22.57
22.80
22.82
22.44
21.59
20.21
18.23
15.64
12.55
9.28
6.29
3.95
2.28
0.87
-0.96
-3.82
-7.89
-12.78
-17.62
-21.37
-23.17
-22.69
-20.21
-16.51
-12.64
-9.47
-7.38
-6.12
-4.99
-3.20
-0.33
3.42
7.41
10.88
13.40
14.95
15.90
16.57
17.01
16.99
16.21
14.58
12.31
9.90
7.89
6.59
5.89
5.41
4.63
3.17
0.88
-2.13
-5.60
-9.35
-13.31
-17.54
-22.06
-26.68
-30.84
-33.74
-34.55
-32.80
-28.62
-22.75
-16.40
-10.75
-6.55
-3.85
-2.13
-0.58
1.39
3.87
6.50
8.73
10.18
10.89
11.23
11.72
12.68
14.08
15.57
16.65
16.87
16.04
14.26
11.82
9.12
6.50
4.19
2.31
0.95
0.24
0.24
0.83
1.57
1.71
0.52
-2.27
-6.12
-9.69
-11.29
-9.72
-4.83
2.28
9.74
15.79
19.51
21.04
21.27
21.12
20.96
20.49
19.13
16.46
12.66
8.37
4.39
1.15
-1.37
-3.66
-6.20
-9.09
-12.00
-14.26
-15.29
-14.96
-13.69
-12.34
-11.82
-12.68
-14.89
-17.95
-21.10
-23.78
-25.83
-27.46
-29.02
-30.69
-32.28
-33.29
-33.12
-31.40
-28.12
-23.65
-18.49
-13.04
-7.46
-1.71
4.20
10.03
15.32
19.56
22.45
24.16
25.20
26.23
27.68
29.52
31.34
32.50
32.41
30.78
27.63
23.18
17.82
11.94
5.99
0.42
-4.33
-7.93
-10.20
-11.19
-11.17
-10.60
-10.03
-10.01
-10.89
-12.71
-15.12
-17.55
-19.37
-20.16
-19.76
-18.35
-16.17
-13.37
-9.89
-5.56
-0.30
5.66
11.70
17.01
20.92
23.10
23.75
23.44
22.77
22.17
21.65
20.98
19.87
18.15
15.92
13.39
10.79
8.22
5.61
2.89
0.04
-2.92
-5.85
-8.67
-11.42
-14.28
-17.58
-21.61
-26.42
-31.76
-36.94
-41.04
-43.16
-42.72
-39.66
-34.50
-28.08
-21.31
-14.86
-9.07
-3.95
0.67
4.96
8.95
12.55
15.49
17.50
18.36
18.06
16.88
15.26
13.75
12.73
12.23
11.94
11.36
10.02
7.77
4.81
1.61
-1.37
-3.85
-5.93
-7.87
-9.94
-12.23
-14.55
-16.66
-18.41
-19.92
-21.44
-23.22
-25.16
-26.83
-27.63
-27.00
-24.77
-21.21
-16.80
-12.03
-7.20
-2.39
2.47
7.45
12.55
17.68
22.64
27.12
30.74
33.13
34.07
33.58
32.01
29.91
27.80
26.06
24.78
23.82
22.95
21.95
20.71
19.18
17.35
15.26
12.92
10.36
7.61
4.67
1.57
-1.72
-5.23
-9.01
-13.05
-17.28
-21.48
-25.32
-28.36
-30.18
-30.44
-29.04
-26.13
-22.09
-17.38
-12.51
-7.80
-3.49
0.33
3.60
6.29
8.33
9.67
10.28
10.20
9.63
8.82
8.12
7.76
7.81
8.09
8.28
8.03
7.11
5.54
3.51
1.28
-0.96
-3.23
-5.64
-8.33
-11.25
-14.12
-16.59
-18.40
-19.48
-20.00
-20.20
-20.20
-19.86
-18.89
-16.92
-13.76
-9.51
-4.45
1.03
6.55
11.82
16.65
20.90
24.41
27.05
28.70
29.29
28.84
27.49
25.56
23.42
21.42
19.78
18.42
17.00
15.01
11.98
7.66
2.13
-4.23
-10.88
-17.37
-23.49
-29.34
-35.15
-41.10
-47.17
-53.03
-58.17
-62.00
-64.00
-63.73
-60.98
-55.71
-48.16
-38.87
-28.59
-18.11
-8.10
1.15
9.64
17.56
25.01
31.87
37.77
42.31
45.18
46.34
45.95
44.30
41.61
38.10
33.98
29.55
25.22
21.42
18.47
16.45
15.15
14.12
12.89
11.14
8.86
6.32
3.98
2.20
1.07
0.34
-0.48
-1.81
-3.90
-6.69
-9.90
-13.13
-15.98
-18.03
-18.92
-18.36
-16.25
-12.84
-8.62
-4.23
-0.22
3.16
5.94
8.31
10.41
12.19
13.48
14.06
13.90
13.13
12.03
10.91
9.97
9.27
8.77
8.41
8.18
8.06
8.07
8.10
7.99
7.48
6.39
4.70
2.64
0.64
-0.81
-1.40
-1.11
-0.24
0.73
1.36
1.40
0.90
0.05
-1.02
-2.41
-4.37
-7.16
-10.73
-14.55
-17.69
-19.14
-18.17
-14.64
-9.02
-2.19
4.96
11.72
17.68
22.66
26.60
29.48
31.33
32.31
32.70
32.89
33.17
33.64
34.14
34.35
33.94
32.70
30.66
28.06
25.24
22.46
19.81
17.26
14.63
11.78
8.70
5.44
2.15
-1.12
-4.40
-7.83
-11.64
-15.93
-20.57
-25.17
-29.15
-31.93
-33.09
-32.50
-30.37
-27.15
-23.37
-19.50
-15.87
-12.62
-9.79
-7.35
-5.28
-3.60
-2.30
-1.35
-0.63
-0.01
0.62
1.25
1.83
2.30
2.63
2.83
2.98
3.09
3.11
2.95
2.49
1.66
0.44
-1.11
-2.90
-4.87
-6.98
-9.19
-11.49
-13.84
-16.13
-18.19
-19.79
-20.62
-20.42
-18.98
-16.29
-12.50
-7.93
-2.98
1.98
6.62
10.80
14.40
17.29
19.41
20.65
21.07
20.87
20.37
19.89
19.59
19.40
19.08
18.39
17.24
15.61
13.60
11.25
8.56
5.56
2.37
-0.84
-3.93
-6.93
-10.06
-13.62
-17.74
-22.28
-26.78
-30.64
-33.33
-34.51
-34.05
-32.02
-28.62
-24.13
-18.95
-13.53
-8.26
-3.41
0.85
4.50
7.54
9.97
11.79
13.07
13.93
14.52
14.93
15.13
15.07
14.68
14.05
13.29
12.53
11.75
10.80
9.41
7.37
4.61
1.28
-2.28
-5.70
-8.76
-11.44
-13.90
-16.32
-18.85
-21.45
-23.96
-26.13
-27.69
-28.38
-27.99
-26.30
-23.20
-18.72
-13.03
-6.53
0.31
7.02
13.18
18.50
22.79
26.02
28.27
29.83
30.99
32.05
33.09
34.04
34.71
34.88
34.48
33.54
32.18
30.55
28.76
26.90
25.02
23.10
21.06
18.82
16.29
13.44
10.34
7.15
4.06
1.25
-1.19
-3.32
-5.30
-7.48
-10.15
-13.52
-17.60
-22.06
-26.37
-29.92
-32.27
-33.25
-32.94
-31.57
-29.36
-26.40
-22.65
-18.06
-12.69
-6.80
-0.77
4.98
10.14
14.56
18.27
21.37
23.91
25.91
27.36
28.29
28.83
29.14
29.34
29.42
29.24
28.62
27.43
25.64
23.37
20.80
18.13
15.51
13.06
10.84
8.85
7.00
5.17
3.24
1.19
-1.01
-3.29
-5.63
-8.03
-10.52
-13.10
-15.75
-18.46
-21.25
-24.18
-27.27
-30.38
-33.17
-35.21
-36.12
-35.72
-34.05
-31.38
-28.01
-24.20
-20.15
-15.99
-11.82
-7.72
-3.72
0.16
3.85
7.23
10.12
12.34
13.80
14.57
14.83
14.82
14.73
14.73
14.85
15.06
15.24
15.25
14.91
14.15
13.03
11.65
10.11
8.44
6.60
4.51
2.17
-0.34
-2.87
-5.33
-7.70
-10.08
-12.62
-15.42
-18.48
-21.68
-24.84
-27.77
-30.20
-31.88
-32.50
-31.85
-29.88
-26.87
-23.24
-19.46
-15.77
-12.09
-8.12
-3.59
1.52
6.92
12.12
16.74
20.48
23.17
24.60
24.57
22.99
20.13
16.66
13.48
11.30
10.19
9.53
8.31
5.66
1.35
-4.05
-9.43
-13.60
-15.78
-15.89
-14.31
-11.72
-8.63
-5.24
-1.46
2.85
7.64
12.58
16.99
20.05
21.00
19.33
15.01
8.62
1.38
-5.17
-9.45
-10.41
-7.74
-1.98
5.76
14.26
22.49
29.89
36.35
42.02
47.11
51.69
55.65
58.73
60.67
61.44
61.42
61.28
61.76
63.29
65.74
68.30
69.75
68.76
64.35
56.15
44.58
30.75
16.24
2.70
-8.52
-16.69
-21.65
-23.77
-23.67
-22.03
-19.61
-17.15
-15.41
-14.98
-16.08
-18.51
-21.63
-24.71
-27.11
-28.46
-28.68
-27.85
-26.08
-23.51
-20.38
-17.04
-13.90
-11.34
-9.62
-8.79
-8.83
-9.62
-11.08
-13.06
-15.39
-17.74
-19.72
-20.98
-21.30
-20.69
-19.36
-17.68
-15.99
-14.52
-13.31
-12.24
-11.18
-10.07
-9.02
-8.24
-7.97
-8.32
-9.19
-10.37
-11.58
-12.61
-13.46
-14.31
-15.40
-16.94
-18.99
-21.49
-24.27
-27.26
-30.45
-33.91
-37.57
-41.12
-44.01
-45.52
-45.13
-42.65
-38.41
-33.09
-27.55
-22.44
-18.12
-14.58
-11.58
-8.90
-6.34
-3.89
-1.61
0.44
2.22
3.72
4.94
5.80
6.29
6.40
6.21
5.90
5.64
5.48
5.31
4.88
3.95
2.40
0.34
-1.96
-4.22
-6.27
-8.16
-10.08
-12.24
-14.80
-17.77
-21.10
-24.72
-28.46
-32.08
-35.17
-37.12
-37.30
-35.26
-30.98
-24.94
-18.00
-11.19
-5.32
-0.84
2.29
4.36
5.78
6.88
7.81
8.61
9.30
9.92
10.60
11.43
12.46
13.59
14.65
15.38
15.62
15.30
14.46
13.15
11.33
8.84
5.52
1.39
-3.23
-7.74
-11.45
-13.95
-15.33
-16.20
-17.47
-19.88
-23.67
-28.46
-33.37
-37.40
-39.70
-39.88
-37.97
-34.38
-29.71
-24.56
-19.36
-14.37
-9.69
-5.37
-1.51
1.74
4.24
5.90
6.78
7.06
6.95
6.70
6.51
6.49
6.72
7.18
7.79
8.42
8.85
8.83
8.18
6.79
4.75
2.28
-0.32
-2.74
-4.87
-6.84
-9.02
-11.83
-15.51
-19.90
-24.40
-28.12
-30.19
-30.13
-27.96
-24.14
-19.31
-14.10
-8.93
-4.05
0.35
4.10
7.09
9.36
11.04
12.41
13.69
14.98
16.21
17.25
17.98
18.35
18.43
18.28
17.93
17.33
16.38
14.99
13.16
10.95
8.46
5.84
3.18
0.52
-2.18
-4.98
-8.02
-11.39
-15.11
-18.96
-22.48
-24.95
-25.68
-24.24
-20.71
-15.65
-9.97
-4.45
0.45
4.75
8.72
12.57
16.29
19.61
22.15
23.70
24.30
24.22
23.82
23.36
23.01
22.77
22.65
22.61
22.61
22.49
21.97
20.72
18.53
15.42
11.69
7.79
4.17
1.02
-1.74
-4.47
-7.61
-11.47
-16.06
-21.04
-25.79
-29.59
-31.74
-31.83
-29.80
-26.01
-21.09
-15.75
-10.58
-5.86
-1.67
2.10
5.58
8.80
11.78
14.46
16.86
18.94
20.64
21.89
22.62
22.79
22.52
21.93
21.15
20.20
19.01
17.46
15.48
13.14
10.67
8.32
6.33
4.75
3.42
1.93
-0.24
-3.51
-8.01
-13.42
-19.00
-23.79
-26.89
-27.74
-26.19
-22.48
-17.12
-10.81
-4.27
1.76
6.73
10.40
12.88
14.55
15.81
16.85
17.60
17.83
17.43
16.56
15.66
15.15
15.23
15.73
16.18
16.15
15.46
14.29
12.98
11.81
10.82
9.70
8.02
5.41
1.74
-2.80
-7.82
-12.72
-16.95
-20.04
-21.65
-21.62
-20.00
-17.03
-13.06
-8.55
-3.91
0.49
4.33
7.34
9.38
10.42
10.65
10.37
9.96
9.72
9.79
10.09
10.38
10.33
9.72
8.49
6.77
4.81
2.85
1.01
-0.76
-2.62
-4.79
-7.41
-10.47
-13.89
-17.44
-20.81
-23.63
-25.47
-25.92
-24.72
-21.87
-17.64
-12.59
-7.39
-2.66
1.11
3.66
4.96
5.13
4.44
3.26
2.00
1.05
0.65
0.83
1.42
2.09
2.50
2.43
1.77
0.56
-1.15
-3.33
-5.93
-8.90
-12.14
-15.57
-19.12
-22.69
-26.10
-29.02
-30.97
-31.41
-29.96
-26.60
-21.73
-16.02
-10.31
-5.26
-1.27
1.51
3.17
3.85
3.80
3.28
2.63
2.23
2.43
3.37
4.96
6.85
8.53
9.56
9.69
8.97
7.65
6.03
4.31
2.42
0.08
-3.01
-6.95
-11.38
-15.63
-18.77
-20.06
-19.16
-16.21
-11.70
-6.24
-0.34
5.59
11.22
16.21
20.24
23.16
25.01
26.03
26.59
26.91
27.10
27.12
26.87
26.25
25.19
23.63
21.51
18.86
15.82
12.57
9.32
6.13
2.82
-0.92
-5.38
-10.60
-16.19
-21.39
-25.33
-27.24
-26.78
-24.07
-19.66
-14.22
-8.36
-2.45
3.37
8.96
14.16
18.70
22.29
24.83
26.41
27.29
27.80
28.19
28.56
28.91
29.10
29.00
28.50
27.52
26.03
24.00
21.49
18.53
15.24
11.75
8.22
4.76
1.36
-2.15
-6.09
-10.72
-16.14
-22.00
-27.59
-31.94
-34.24
-34.03
-31.38
-26.78
-20.97
-14.56
-7.96
-1.32
5.37
12.06
18.58
24.58
29.68
33.59
36.22
37.72
38.37
38.45
38.19
37.73
37.12
36.41
35.62
34.76
33.81
32.66
31.23
29.49
27.45
25.18
22.73
20.16
17.44
14.62
11.79
9.06
6.52
4.13
1.78
-0.79
-3.78
-7.40
-11.80
-17.02
-22.92
-29.15
-35.09
-39.99
-43.09
-43.88
-42.23
-38.39
-32.91
-26.49
-19.77
-13.25
-7.13
-1.49
3.75
8.68
13.32
17.62
21.44
24.69
27.30
29.29
30.70
31.54
31.85
31.69
31.19
30.58
30.08
29.81
29.71
29.65
29.38
28.67
27.37
25.46
23.02
20.21
17.22
14.23
11.35
8.61
5.99
3.43
0.87
-1.77
-4.61
-7.84
-11.67
-16.23
-21.44
-26.90
-31.99
-36.00
-38.35
-38.76
-37.32
-34.45
-30.71
-26.64
-22.64
-18.84
-15.15
-11.41
-7.48
-3.40
0.67
4.43
7.66
10.24
12.24
13.81
15.15
16.36
17.50
18.53
19.44
20.15
20.58
20.65
20.27
19.41
18.11
16.45
14.57
12.62
10.70
8.85
7.03
5.15
3.11
0.87
-1.47
-3.67
-5.52
-7.00
-8.39
-10.37
-13.71
-18.96
-26.10
-34.37
-42.45
-48.93
-52.66
-53.17
-50.68
-45.90
-39.66
-32.78
-25.83
-19.21
-13.15
-7.76
-3.09
0.88
4.15
6.71
8.50
9.54
9.93
9.90
9.72
9.59
9.60
9.73
9.90
10.07
10.26
10.46
10.65
10.70
10.46
9.78
8.65
7.14
5.45
3.78
2.26
0.93
-0.34
-1.71
-3.34
-5.32
-7.57
-9.97
-12.45
-14.99
-17.67
-20.46
-23.10
-25.08
-25.79
-24.82
-22.18
-18.29
-13.88
-9.58
-5.78
-2.49
0.45
3.24
5.91
8.31
10.24
11.51
12.09
12.09
11.72
11.25
10.90
10.84
11.08
11.51
12.00
12.36
12.51
12.39
11.98
11.24
10.14
8.68
6.91
4.95
2.95
1.04
-0.68
-2.23
-3.76
-5.49
-7.78
-10.87
-14.77
-19.16
-23.35
-26.52
-28.04
-27.68
-25.66
-22.53
-18.93
-15.39
-12.25
-9.60
-7.32
-5.20
-2.94
-0.33
2.65
5.80
8.75
11.12
12.68
13.40
13.49
13.24
12.91
12.66
12.58
12.68
12.92
13.25
13.55
13.68
13.51
12.93
11.89
10.44
8.73
6.97
5.37
4.06
3.03
2.08
0.92
-0.77
-3.24
-6.62
-10.89
-15.77
-20.77
-25.19
-28.28
-29.51
-28.70
-26.19
-22.62
-18.76
-15.14
-12.06
-9.48
-7.25
-5.17
-3.16
-1.16
0.83
2.76
4.62
6.34
7.85
9.11
10.02
10.53
10.65
10.48
10.17
9.96
9.95
10.05
9.96
9.32
7.83
5.45
2.38
-1.00
-4.29
-7.16
-9.43
-11.04
-12.08
-12.76
-13.40
-14.38
-15.99
-18.31
-21.20
-24.27
-27.00
-28.93
-29.67
-29.02
-27.06
-24.03
-20.36
-16.50
-12.85
-9.62
-6.90
-4.66
-2.81
-1.25
0.12
1.45
2.83
4.26
5.65
6.88
7.83
8.55
9.08
9.45
9.63
9.51
9.01
8.15
7.03
5.77
4.45
3.06
1.58
0.00
-1.66
-3.39
-5.20
-7.20
-9.50
-12.14
-15.06
-18.05
-20.74
-22.69
-23.48
-22.87
-20.90
-17.95
-14.54
-11.14
-7.93
-4.82
-1.60
1.80
5.19
8.21
10.48
11.90
12.62
12.98
13.27
13.67
14.16
14.61
14.92
15.02
14.87
14.41
13.57
12.26
10.45
8.14
5.49
2.72
0.14
-2.01
-3.59
-4.70
-5.59
-6.62
-8.10
-10.18
-12.94
-16.25
-19.82
-23.19
-25.70
-26.67
-25.70
-22.80
-18.46
-13.49
-8.64
-4.30
-0.51
2.97
6.39
9.77
12.92
15.59
17.59
18.86
19.49
19.62
19.43
19.12
18.78
18.49
18.18
17.80
17.28
16.66
15.95
15.23
14.42
13.36
11.88
9.84
7.23
4.14
0.75
-2.81
-6.40
-9.92
-13.32
-16.52
-19.42
-21.83
-23.55
-24.26
-23.72
-21.84
-18.74
-14.80
-10.55
-6.42
-2.67
0.71
3.91
7.09
10.25
13.22
15.69
17.44
18.42
18.79
18.81
18.77
18.80
18.93
19.03
18.96
18.64
18.01
17.12
16.00
14.71
13.30
11.76
10.08
8.23
6.22
4.12
2.10
0.34
-1.10
-2.33
-3.61
-5.24
-7.48
-10.38
-13.82
-17.51
-21.08
-24.11
-26.15
-26.82
-25.90
-23.41
-19.78
-15.63
-11.62
-8.22
-5.54
-3.39
-1.47
0.41
2.33
4.18
5.80
7.12
8.14
8.91
9.55
10.10
10.55
10.84
10.90
10.61
9.97
9.04
7.93
6.77
5.59
4.31
2.74
0.76
-1.61
-4.16
-6.57
-8.58
-10.09
-11.29
-12.53
-14.16
-16.37
-19.00
-21.55
-23.32
-23.66
-22.23
-19.14
-14.89
-10.19
-5.67
-1.71
1.57
4.26
6.43
8.13
9.31
10.02
10.42
10.77
11.25
11.90
12.60
13.17
13.42
13.34
13.01
12.48
11.71
10.63
9.15
7.28
5.16
2.97
0.95
-0.78
-2.18
-3.33
-4.39
-5.63
-7.30
-9.64
-12.67
-16.13
-19.51
-22.16
-23.52
-23.24
-21.31
-18.01
-13.77
-9.10
-4.40
0.00
3.93
7.27
10.03
12.26
14.02
15.38
16.32
16.82
16.86
16.51
15.94
15.35
14.92
14.69
14.60
14.49
14.24
13.83
13.33
12.80
12.22
11.44
10.20
8.29
5.57
2.10
-2.00
-6.50
-11.22
-15.86
-20.02
-23.19
-24.87
-24.69
-22.64
-19.06
-14.57
-9.80
-5.22
-1.01
2.85
6.45
9.76
12.64
14.81
16.09
16.49
16.22
15.69
15.27
15.26
15.68
16.36
16.99
17.25
16.91
15.90
14.28
12.20
9.88
7.47
5.08
2.69
0.24
-2.41
-5.39
-8.77
-12.49
-16.30
-19.80
-22.50
-23.94
-23.84
-22.17
-19.13
-15.14
-10.65
-6.08
-1.76
2.12
5.50
8.32
10.66
12.59
14.23
15.68
16.94
17.98
18.71
19.03
18.89
18.24
17.07
15.36
13.13
10.46
7.45
4.20
0.79
-2.72
-6.24
-9.67
-12.88
-15.81
-18.54
-21.26
-24.19
-27.44
-30.88
-34.21
-37.04
-38.99
-39.74
-39.11
-37.04
-33.67
-29.32
-24.50
-19.71
-15.33
-11.50
-8.20
-5.37
-2.99
-1.15
0.13
0.87
1.26
1.55
1.92
2.43
3.01
3.54
3.91
4.10
4.10
3.94
3.58
3.01
2.21
1.23
0.11
-1.11
-2.43
-3.94
-5.70
-7.71
-9.78
-11.55
-12.53
-12.31
-10.69
-7.74
-3.79
0.69
5.26
9.52
13.17
15.99
17.82
18.61
18.48
17.66
16.49
15.29
14.37
13.85
13.75
13.98
14.36
14.69
14.77
14.50
13.80
12.69
11.17
9.32
7.25
5.04
2.74
0.33
-2.32
-5.33
-8.65
-12.01
-14.90
-16.67
-16.91
-15.47
-12.63
-8.89
-4.77
-0.61
3.45
7.38
11.14
14.59
17.50
19.66
21.00
21.58
21.57
21.20
20.72
20.26
19.91
19.63
19.32
18.86
18.13
17.09
15.71
13.98
11.90
9.46
6.69
3.68
0.56
-2.59
-5.76
-9.01
-12.39
-15.82
-18.99
-21.39
-22.51
-21.99
-19.82
-16.28
-11.90
-7.21
-2.63
1.65
5.59
9.22
12.55
15.53
18.03
19.93
21.20
21.89
22.20
22.28
22.28
22.23
22.10
21.82
21.32
20.64
19.74
18.56
16.97
14.85
12.16
9.10
5.95
3.03
0.49
-1.80
-4.15
-6.96
-10.55
-14.94
-19.94
-25.12
-29.94
-33.86
-36.38
-37.17
-36.12
-33.38
-29.36
-24.57
-19.51
-14.49
-9.61
-4.86
-0.24
4.16
8.13
11.45
13.96
15.68
16.74
17.34
17.66
17.81
17.80
17.63
17.27
16.74
16.09
15.37
14.64
13.86
12.90
11.61
9.90
7.78
5.44
3.14
1.08
-0.71
-2.41
-4.40
-6.99
-10.44
-14.76
-19.71
-24.79
-29.35
-32.71
-34.31
-33.91
-31.66
-28.08
-23.85
-19.54
-15.52
-11.85
-8.42
-5.07
-1.79
1.35
4.21
6.66
8.68
10.25
11.44
12.21
12.52
12.28
11.48
10.22
8.69
7.12
5.64
4.32
3.05
1.73
0.25
-1.34
-2.92
-4.40
-5.69
-6.85
-8.03
-9.44
-11.26
-13.61
-16.41
-19.43
-22.25
-24.27
-24.98
-24.05
-21.51
-17.68
-13.13
-8.35
-3.72
0.52
4.32
7.59
10.30
12.41
13.90
14.84
15.33
15.54
15.63
15.82
16.23
16.86
17.58
18.09
18.07
17.29
15.73
13.57
11.14
8.74
6.59
4.76
3.11
1.48
-0.33
-2.43
-4.86
-7.61
-10.65
-14.01
-17.65
-21.40
-24.83
-27.34
-28.30
-27.33
-24.51
-20.27
-15.30
-10.27
-5.63
-1.54
2.02
5.18
8.07
10.77
13.28
15.56
17.54
19.13
20.32
21.06
21.38
21.26
20.71
19.76
18.47
16.97
15.38
13.78
12.14
10.38
8.39
6.10
3.53
0.80
-1.86
-4.26
-6.32
-8.08
-9.82
-11.93
-14.78
-18.51
-22.99
-27.71
-31.98
-35.06
-36.44
-35.91
-33.62
-29.93
-25.34
-20.30
-15.15
-10.08
-5.13
-0.28
4.47
9.09
13.44
17.30
20.46
22.87
24.64
26.00
27.15
28.19
29.10
29.73
29.96
29.69
28.97
27.87
26.46
24.81
22.91
20.69
18.15
15.30
12.24
9.19
6.31
3.71
1.35
-0.97
-3.51
-6.47
-9.91
-13.83
-18.14
-22.72
-27.36
-31.65
-35.08
-37.06
-37.20
-35.42
-32.06
-27.74
-23.10
-18.53
-14.13
-9.71
-5.09
-0.21
4.72
9.32
13.21
16.15
18.10
19.27
19.92
20.30
20.64
21.00
21.44
21.89
22.28
22.47
22.36
21.86
20.90
19.51
17.72
15.58
13.15
10.48
7.64
4.73
1.85
-0.92
-3.54
-6.06
-8.61
-11.40
-14.59
-18.24
-22.24
-26.24
-29.72
-32.10
-32.94
-32.01
-29.44
-25.63
-21.16
-16.54
-12.10
-7.95
-4.02
-0.23
3.36
6.60
9.31
11.34
12.75
13.75
14.56
15.30
15.92
16.22
16.07
15.44
14.49
13.45
12.46
11.51
10.41
8.98
7.11
4.87
2.39
-0.17
-2.76
-5.30
-7.83
-10.38
-13.06
-16.05
-19.55
-23.53
-27.69
-31.37
-33.83
-34.44
-32.96
-29.52
-24.58
-18.75
-12.59
-6.59
-1.14
3.46
7.01
9.47
10.91
11.52
11.56
11.28
10.91
10.62
10.57
10.79
11.23
11.70
12.02
12.04
11.72
11.08
10.16
8.98
7.49
5.68
3.55
1.10
-1.72
-4.96
-8.76
-13.14
-18.01
-23.05
-27.82
-31.89
-34.90
-36.63
-36.99
-35.89
-33.28
-29.17
-23.64
-16.81
-8.87
-0.11
9.06
17.96
25.73
31.43
34.42
34.61
32.53
29.21
25.77
23.05
21.32
20.39
19.78
19.03
17.89
16.37
14.60
12.73
10.84
8.96
7.05
5.09
2.97
0.50
-2.58
-6.57
-11.56
-17.28
-23.11
-28.10
-31.37
-32.30
-30.80
-27.26
-22.36
-16.80
-11.11
-5.56
-0.23
4.87
9.65
13.97
17.58
20.27
21.96
22.74
22.85
22.61
22.29
22.06
21.91
21.77
21.48
20.93
20.02
18.66
16.81
14.50
11.89
9.09
6.18
3.04
-0.61
-5.04
-10.34
-16.22
-22.04
-26.96
-30.19
-31.28
-30.14
-27.06
-22.49
-16.90
-10.67
-4.20
2.14
7.86
12.51
15.75
17.47
17.87
17.42
16.69
16.15
16.14
16.66
17.51
18.30
18.61
18.12
16.77
14.75
12.42
10.12
8.01
6.00
3.81
1.18
-2.03
-5.77
-9.84
-14.00
-18.02
-21.63
-24.50
-26.19
-26.26
-24.48
-20.94
-16.15
-10.84
-5.74
-1.39
1.99
4.43
6.07
7.00
7.26
6.87
5.96
4.77
3.66
2.91
2.60
2.58
2.50
1.96
0.70
-1.32
-3.91
-6.79
-9.68
-12.41
-15.04
-17.79
-20.97
-24.80
-29.32
-34.14
-38.57
-41.73
-42.86
-41.60
-38.11
-33.03
-27.18
-21.30
-15.86
-11.08
-7.02
-3.76
-1.44
-0.18
0.00
-0.69
-1.84
-2.99
-3.83
-4.29
-4.60
-5.19
-6.43
-8.46
-11.12
-14.00
-16.66
-18.85
-20.63
-22.28
-24.18
-26.54
-29.34
-32.29
-34.94
-36.82
-37.52
-36.77
-34.45
-30.62
-25.44
-19.26
-12.48
-5.52
1.22
7.40
12.72
16.96
20.01
21.96
23.06
23.72
24.31
25.10
26.12
27.20
28.04
28.39
28.04
26.95
25.18
22.82
19.99
16.81
13.38
9.80
6.19
2.74
-0.27
-2.52
-3.65
-3.44
-1.86
0.89
4.38
8.20
12.03
15.78
19.58
23.63
28.07
32.79
37.44
41.51
44.55
46.32
46.89
46.63
46.04
45.55
45.35
45.28
44.94
43.87
41.71
38.46
34.44
30.20
26.28
22.95
20.15
17.42
14.22
10.14
5.16
-0.37
-5.82
-10.52
-13.93
-15.73
-15.84
-14.31
-11.37
-7.30
-2.51
2.56
7.48
11.95
15.85
19.26
22.36
25.35
28.37
31.36
34.19
36.58
38.25
39.01
38.81
37.77
36.15
34.32
32.59
31.13
29.92
28.69
27.09
24.74
21.51
17.50
13.07
8.71
4.80
1.52
-1.31
-4.10
-7.37
-11.51
-16.62
-22.42
-28.29
-33.35
-36.77
-37.94
-36.68
-33.26
-28.28
-22.44
-16.25
-9.97
-3.58
3.00
9.70
16.23
22.11
26.89
30.37
32.68
34.24
35.51
36.79
38.10
39.16
39.64
39.29
38.07
36.11
33.61
30.75
27.66
24.43
21.23
18.24
15.60
13.35
11.39
9.50
7.54
5.43
3.22
1.04
-1.07
-3.24
-5.78
-9.11
-13.62
-19.53
-26.73
-34.78
-42.91
-50.16
-55.63
-58.61
-58.81
-56.37
-51.75
-45.67
-38.87
-31.99
-25.47
-19.49
-14.00
-8.86
-4.00
0.54
4.53
7.74
10.04
11.47
12.25
12.62
12.77
12.74
12.58
12.32
12.08
12.01
12.14
12.36
12.49
12.33
11.73
10.69
9.27
7.59
5.76
3.88
2.01
0.16
-1.70
-3.62
-5.68
-7.88
-10.18
-12.53
-14.95
-17.53
-20.45
-23.91
-27.93
-32.34
-36.67
-40.30
-42.51
-42.70
-40.53
-36.13
-30.03
-23.17
-16.61
-11.23
-7.58
-5.69
-5.24
-5.73
-6.67
-7.80
-9.03
-10.33
-11.64
-12.74
-13.34
-13.18
-12.14
-10.32
-8.02
-5.61
-3.39
-1.44
0.35
2.24
4.43
6.96
9.64
12.14
14.11
15.37
15.85
15.50
14.21
11.73
7.79
2.27
-4.65
-12.46
-20.48
-27.99
-34.39
-39.20
-42.10
-42.85
-41.44
-38.15
-33.64
-28.88
-24.83
-22.08
-20.58
-19.60
-18.11
-15.14
-10.28
-3.81
3.46
10.52
16.55
21.02
23.69
24.41
23.07
19.70
14.59
8.48
2.56
-1.74
-3.10
-0.61
6.04
16.52
29.91
44.88
59.83
73.11
83.25
89.25
90.61
87.43
80.12
69.30
55.64
40.02
23.60
7.89
-5.41
-14.84
-19.72
-20.43
-18.41
-15.67
-14.03
-14.55
-17.22
-21.21
-25.29
-28.37
-29.91
-29.87
-28.60
-26.62
-24.36
-22.16
-20.23
-18.76
-17.91
-17.80
-18.45
-19.69
-21.11
-22.11
-22.05
-20.46
-17.29
-12.96
-8.27
-4.09
-1.10
0.41
0.52
-0.50
-2.30
-4.58
-6.99
-9.13
-10.46
-10.45
-8.73
-5.26
-0.40
5.17
10.65
15.42
19.16
21.90
23.87
25.33
26.43
27.24
27.75
28.01
28.11
28.17
28.22
28.17
27.84
27.04
25.76
24.12
22.29
20.38
18.36
16.11
13.45
10.31
6.70
2.71
-1.63
-6.29
-11.25
-16.45
-21.65
-26.49
-30.56
-33.52
-35.20
-35.61
-34.88
-33.25
-30.91
-28.06
-24.93
-21.70
-18.57
-15.64
-12.95
-10.47
-8.22
-6.24
-4.62
-3.44
-2.65
-2.07
-1.48
-0.71
0.29
1.37
2.31
2.88
2.97
2.61
1.93
1.08
0.17
-0.80
-1.90
-3.22
-4.90
-7.01
-9.61
-12.73
-16.26
-20.01
-23.57
-26.43
-28.03
-27.99
-26.15
-22.68
-18.01
-12.70
-7.28
-2.17
2.33
6.05
8.95
11.06
12.49
13.37
13.80
13.93
13.87
13.77
13.76
13.88
14.02
13.97
13.46
12.33
10.58
8.31
5.68
2.79
-0.38
-3.87
-7.68
-11.68
-15.68
-19.45
-22.82
-25.61
-27.57
-28.43
-27.90
-25.82
-22.27
-17.64
-12.45
-7.20
-2.29
2.06
5.74
8.64
10.67
11.75
11.95
11.44
10.49
9.42
8.41
7.57
6.86
6.09
5.03
3.48
1.40
-1.07
-3.68
-6.10
-8.22
-10.18
-12.33
-15.09
-18.64
-22.80
-27.04
-30.61
-32.87
-33.45
-32.31
-29.68
-25.93
-21.44
-16.53
-11.48
-6.53
-1.94
2.05
5.24
7.49
8.79
9.25
9.12
8.76
8.49
8.51
8.79
9.06
8.97
8.26
6.91
5.19
3.44
1.96
0.82
-0.19
-1.41
-3.19
-5.71
-8.91
-12.41
-15.68
-18.10
-19.16
-18.57
-16.38
-12.92
-8.66
-4.05
0.58
5.09
9.41
13.49
17.18
20.27
22.52
23.75
23.89
23.05
21.46
19.44
17.29
15.29
13.53
11.99
10.49
8.79
6.69
4.13
1.18
-2.02
-5.34
-8.74
-12.25
-15.94
-19.74
-23.44
-26.66
-28.94
-29.85
-29.18
-26.89
-23.21
-18.49
-13.09
-7.39
-1.62
4.04
9.46
14.49
18.96
22.66
25.45
27.29
28.26
28.50
28.16
27.28
25.85
23.92
21.62
19.26
17.18
15.61
14.56
13.77
12.88
11.55
9.62
7.13
4.25
1.19
-1.87
-4.84
-7.68
-10.52
-13.54
-16.95
-20.81
-24.97
-28.91
-31.97
-33.44
-32.86
-30.07
-25.31
-19.12
-12.16
-5.15
1.39
7.07
11.72
15.32
17.94
19.68
20.68
21.09
21.11
20.94
20.72
20.45
20.05
19.40
18.45
17.29
16.10
15.11
14.45
14.09
13.83
13.39
12.50
11.01
8.96
6.55
4.02
1.62
-0.57
-2.60
-4.74
-7.37
-10.87
-15.40
-20.83
-26.63
-31.96
-35.92
-37.73
-37.06
-34.06
-29.27
-23.39
-17.03
-10.58
-4.25
1.88
7.76
13.28
18.33
22.81
26.60
29.58
31.59
32.43
32.05
30.60
28.42
25.97
23.66
21.73
20.19
18.93
17.77
16.55
15.11
13.34
11.17
8.61
5.79
2.94
0.25
-2.18
-4.47
-6.86
-9.58
-12.79
-16.40
-20.14
-23.60
-26.29
-27.74
-27.63
-25.84
-22.53
-18.08
-13.04
-7.96
-3.20
1.10
5.02
8.70
12.21
15.51
18.48
20.97
22.98
24.56
25.81
26.74
27.24
27.16
26.40
25.06
23.39
21.67
20.09
18.62
17.07
15.21
12.95
10.41
7.82
5.41
3.25
1.24
-0.86
-3.33
-6.31
-9.87
-13.92
-18.23
-22.41
-25.97
-28.40
-29.29
-28.43
-25.91
-22.07
-17.39
-12.37
-7.45
-2.91
1.09
4.49
7.27
9.44
11.00
12.01
12.57
12.83
12.96
13.09
13.23
13.26
12.97
12.18
10.78
8.85
6.54
4.09
1.65
-0.69
-2.94
-5.20
-7.54
-10.01
-12.63
-15.37
-18.17
-20.95
-23.58
-25.87
-27.56
-28.33
-27.88
-26.03
-22.79
-18.45
-13.44
-8.31
-3.51
0.66
4.11
6.92
9.22
11.11
12.58
13.55
13.96
13.83
13.31
12.60
11.89
11.26
10.63
9.87
8.87
7.60
6.17
4.72
3.34
2.02
0.63
-1.02
-3.04
-5.48
-8.29
-11.36
-14.52
-17.56
-20.21
-22.14
-23.02
-22.55
-20.58
-17.17
-12.60
-7.33
-1.92
3.20
7.70
11.47
14.50
16.81
18.41
19.27
19.40
18.87
17.87
16.68
15.52
14.49
13.56
12.60
11.48
10.17
8.74
7.27
5.81
4.35
2.76
0.94
-1.20
-3.71
-6.55
-9.60
-12.72
-15.60
-17.88
-19.20
-19.26
-17.91
-15.21
-11.42
-6.88
-1.95
3.08
8.04
12.84
17.42
21.69
25.53
28.76
31.15
32.57
33.00
32.63
31.85
31.11
30.77
30.93
31.39
31.70
31.44
30.26
28.11
25.11
21.46
17.38
13.05
8.68
4.50
0.69
-2.69
-5.78
-8.77
-11.71
-14.32
-16.03
-16.20
-14.39
-10.71
-5.75
-0.48
4.11
7.25
8.56
8.04
5.99
2.91
-0.69
-4.29
-7.57
-10.32
-12.50
-14.09
-15.19
-15.92
-16.49
-17.20
-18.27
-19.83
-21.76
-23.78
-25.61
-27.08
-28.19
-29.02
-29.68
-30.24
-30.71
-31.20
-31.84
-32.76
-33.95
-35.13
-35.78
-35.39
-33.59
-30.35
-25.97
-20.90
-15.61
-10.46
-5.69
-1.55
1.78
4.11
5.41
5.82
5.61
5.16
4.78
4.66
4.80
5.05
5.18
4.95
4.21
2.98
1.37
-0.43
-2.31
-4.20
-6.14
-8.22
-10.53
-13.14
-16.10
-19.42
-23.01
-26.65
-29.88
-32.11
-32.74
-31.41
-28.09
-23.18
-17.30
-11.13
-5.19
0.19
4.86
8.74
11.79
13.98
15.34
15.99
16.21
16.28
16.46
16.88
17.46
18.03
18.32
18.12
17.31
15.90
14.05
11.92
9.69
7.43
5.12
2.68
-0.03
-3.10
-6.50
-10.18
-14.01
-17.76
-21.12
-23.68
-24.99
-24.71
-22.75
-19.27
-14.71
-9.61
-4.49
0.28
4.50
8.10
11.16
13.79
16.15
18.41
20.62
22.67
24.36
25.50
25.96
25.83
25.31
24.60
23.81
22.93
21.93
20.77
19.45
17.98
16.32
14.38
12.10
9.49
6.67
3.82
1.08
-1.52
-4.05
-6.70
-9.67
-13.10
-16.96
-21.02
-24.80
-27.72
-29.21
-28.90
-26.78
-23.12
-18.39
-13.07
-7.57
-2.21
2.78
7.20
10.89
13.77
15.81
17.08
17.74
18.01
18.18
18.49
19.03
19.69
20.19
20.26
19.78
18.87
17.83
16.92
16.20
15.48
14.49
12.94
10.76
8.04
4.99
1.85
-1.18
-3.96
-6.43
-8.63
-10.67
-12.77
-15.13
-17.89
-21.05
-24.45
-27.81
-30.76
-32.92
-33.86
-33.28
-31.06
-27.34
-22.54
-17.23
-12.02
-7.31
-3.31
-0.03
2.58
4.56
5.91
6.70
7.06
7.23
7.45
7.81
8.21
8.43
8.30
7.78
7.07
6.38
5.82
5.35
4.74
3.81
2.49
0.86
-0.95
-2.85
-4.83
-6.97
-9.28
-11.77
-14.40
-17.19
-20.18
-23.34
-26.40
-28.91
-30.26
-29.95
-27.81
-24.06
-19.24
-14.01
-8.89
-4.21
-0.05
3.61
6.84
9.69
12.14
14.12
15.53
16.31
16.49
16.18
15.56
14.79
13.96
13.07
12.04
10.85
9.47
7.97
6.41
4.83
3.18
1.41
-0.50
-2.52
-4.61
-6.74
-9.00
-11.47
-14.20
-17.11
-19.88
-22.15
-23.54
-23.81
-22.92
-20.97
-18.10
-14.52
-10.38
-5.90
-1.29
3.20
7.34
10.99
14.07
16.55
18.39
19.51
19.88
19.61
18.89
18.07
17.39
16.87
16.32
15.44
14.00
12.03
9.75
7.46
5.33
3.28
1.09
-1.45
-4.40
-7.64
-11.06
-14.58
-18.17
-21.76
-25.06
-27.55
-28.65
-27.90
-25.24
-21.02
-15.83
-10.31
-4.91
0.16
4.85
9.16
13.02
16.27
18.80
20.59
21.77
22.63
23.42
24.28
25.17
25.85
26.10
25.78
24.90
23.60
22.01
20.10
17.79
14.92
11.48
7.62
3.58
-0.36
-4.11
-7.74
-11.45
-15.48
-19.91
-24.59
-29.15
-33.02
-35.62
-36.44
-35.22
-32.05
-27.36
-21.81
-16.13
-10.89
-6.39
-2.58
0.75
3.88
6.98
10.00
12.78
15.03
16.59
17.38
17.51
17.13
16.42
15.46
14.31
13.04
11.78
10.71
9.94
9.46
9.03
8.31
6.96
4.80
1.89
-1.58
-5.30
-9.08
-12.85
-16.67
-20.64
-24.76
-28.87
-32.59
-35.38
-36.66
-36.06
-33.49
-29.27
-24.01
-18.42
-13.04
-8.09
-3.54
0.75
4.85
8.63
11.84
14.27
15.87
16.83
17.49
18.13
18.88
19.62
20.12
20.15
19.60
18.47
16.86
14.87
12.59
10.09
7.40
4.55
1.56
-1.54
-4.69
-7.85
-10.91
-13.88
-16.77
-19.70
-22.69
-25.60
-28.04
-29.43
-29.22
-27.17
-23.48
-18.68
-13.48
-8.43
-3.85
0.30
4.18
7.95
11.65
15.20
18.40
21.04
22.94
23.99
24.16
23.53
22.27
20.61
18.82
17.13
15.71
14.64
13.82
12.99
11.86
10.15
7.82
5.08
2.30
-0.20
-2.30
-4.17
-6.16
-8.59
-11.64
-15.23
-19.12
-22.92
-26.20
-28.47
-29.29
-28.33
-25.52
-21.10
-15.59
-9.60
-3.64
2.01
7.30
12.28
16.98
21.31
25.09
28.06
30.08
31.13
31.40
31.20
30.85
30.59
30.45
30.28
29.86
28.99
27.62
25.85
23.85
21.78
19.69
17.56
15.30
12.88
10.33
7.80
5.46
3.39
1.55
-0.29
-2.45
-5.25
-8.85
-13.29
-18.35
-23.69
-28.83
-33.20
-36.21
-37.39
-36.53
-33.75
-29.47
-24.33
-18.87
-13.44
-8.13
-2.84
2.49
7.82
12.96
17.63
21.56
24.56
26.49
27.31
27.09
26.07
24.57
22.97
21.59
20.56
19.80
19.14
18.33
17.27
15.93
14.37
12.63
10.69
8.49
6.00
3.29
0.51
-2.13
-4.46
-6.46
-8.27
-10.14
-12.35
-15.02
-18.19
-21.74
-25.48
-29.17
-32.48
-35.06
-36.47
-36.41
-34.74
-31.63
-27.49
-22.79
-17.92
-13.05
-8.16
-3.18
1.91
6.96
11.70
15.77
18.93
21.06
22.27
22.86
23.18
23.50
23.89
24.20
24.15
23.52
22.27
20.53
18.47
16.27
13.97
11.55
9.01
6.46
4.03
1.78
-0.33
-2.43
-4.68
-7.19
-9.97
-13.02
-16.39
-20.10
-24.19
-28.55
-32.83
-36.56
-39.21
-40.32
-39.68
-37.32
-33.53
-28.75
-23.41
-17.84
-12.23
-6.62
-1.05
4.37
9.38
13.69
17.07
19.49
21.15
22.33
23.35
24.34
25.28
26.04
26.49
26.60
26.46
26.24
26.05
25.89
25.61
24.90
23.44
21.08
17.89
14.17
10.31
6.64
3.31
0.25
-2.72
-5.83
-9.30
-13.23
-17.58
-22.13
-26.44
-29.93
-32.03
-32.32
-30.72
-27.49
-23.11
-18.09
-12.79
-7.43
-2.09
3.18
8.28
13.06
17.36
21.05
24.11
26.55
28.41
29.65
30.24
30.15
29.46
28.35
27.12
25.99
25.04
24.17
23.09
21.50
19.17
16.06
12.31
8.23
4.16
0.41
-2.79
-5.49
-7.92
-10.48
-13.59
-17.53
-22.26
-27.42
-32.32
-36.15
-38.19
-38.02
-35.60
-31.34
-25.92
-20.08
-14.39
-9.17
-4.45
-0.12
3.86
7.43
10.43
12.73
14.29
15.20
15.63
15.76
15.74
15.65
15.57
15.47
15.35
15.14
14.70
13.91
12.62
10.76
8.32
5.40
2.16
-1.24
-4.61
-7.87
-11.02
-14.18
-17.52
-21.18
-25.13
-29.11
-32.57
-34.88
-35.45
-33.97
-30.54
-25.62
-19.93
-14.15
-8.78
-3.98
0.27
4.03
7.31
9.99
11.92
13.06
13.54
13.60
13.50
13.42
13.36
13.23
12.90
12.25
11.20
9.74
7.87
5.67
3.27
0.79
-1.67
-4.14
-6.66
-9.29
-12.07
-14.98
-18.00
-21.02
-23.93
-26.45
-28.18
-28.72
-27.75
-25.24
-21.44
-16.79
-11.71
-6.48
-1.25
3.91
8.81
13.20
16.84
19.60
21.53
22.84
23.69
24.20
24.37
24.21
23.76
23.14
22.48
21.80
21.00
19.85
18.16
15.83
12.99
9.93
6.92
4.12
1.42
-1.41
-4.72
-8.71
-13.32
-18.20
-22.81
-26.56
-29.01
-29.86
-29.05
-26.67
-22.98
-18.34
-13.17
-7.89
-2.78
2.02
6.44
10.48
14.08
17.18
19.75
21.82
23.42
24.62
25.45
25.95
26.23
26.41
26.56
26.67
26.55
25.97
24.73
22.75
20.10
16.89
13.25
9.27
5.10
0.98
-2.79
-5.96
-8.47
-10.47
-12.28
-14.29
-16.81
-19.93
-23.52
-27.24
-30.58
-33.01
-34.03
-33.33
-30.88
-26.90
-21.75
-15.90
-9.73
-3.51
2.60
8.48
14.05
19.13
23.54
27.10
29.73
31.51
32.66
33.44
33.98
34.33
34.42
34.14
33.44
32.41
31.12
29.60
27.77
25.54
22.83
19.74
16.44
13.15
9.97
6.90
3.83
0.66
-2.60
-5.84
-8.90
-11.67
-14.09
-16.26
-18.28
-20.31
-22.49
-24.94
-27.63
-30.45
-33.10
-35.19
-36.31
-36.13
-34.56
-31.73
-28.01
-23.81
-19.49
-15.23
-11.05
-6.89
-2.77
1.12
4.50
7.10
8.79
9.63
9.84
9.65
9.27
8.83
8.38
8.01
7.83
7.90
8.23
8.79
9.41
9.86
9.90
9.33
8.04
6.11
3.79
1.36
-0.88
-2.85
-4.56
-6.16
-7.80
-9.59
-11.63
-13.99
-16.73
-19.72
-22.70
-25.19
-26.69
-26.81
-25.40
-22.60
-18.74
-14.28
-9.66
-5.25
-1.29
2.08
4.86
7.11
8.92
10.38
11.50
12.33
12.95
13.50
14.16
14.98
15.85
16.47
16.47
15.59
13.84
11.54
9.13
7.07
5.60
4.66
4.00
3.32
2.39
1.13
-0.41
-2.17
-4.13
-6.30
-8.72
-11.38
-14.22
-17.15
-20.05
-22.77
-25.14
-26.94
-27.93
-27.92
-26.87
-24.89
-22.17
-18.97
-15.44
-11.69
-7.79
-3.84
-0.01
3.51
6.54
8.97
10.80
12.13
13.06
13.74
14.27
14.71
15.09
15.40
15.62
15.71
15.63
15.31
14.72
13.81
12.63
11.28
9.89
8.57
7.34
6.09
4.71
3.10
1.30
-0.62
-2.58
-4.64
-6.94
-9.66
-12.78
-16.08
-19.13
-21.48
-22.81
-23.03
-22.29
-20.78
-18.69
-16.11
-13.10
-9.73
-6.12
-2.47
1.06
4.31
7.16
9.52
11.33
12.55
13.22
13.46
13.41
13.25
13.04
12.76
12.27
11.42
10.11
8.42
6.55
4.74
3.13
1.69
0.32
-1.18
-2.80
-4.43
-5.85
-6.89
-7.59
-8.18
-8.93
-10.05
-11.58
-13.46
-15.61
-18.00
-20.60
-23.32
-25.91
-28.00
-29.15
-29.07
-27.70
-25.24
-22.02
-18.47
-14.89
-11.43
-8.15
-5.06
-2.22
0.23
2.16
3.44
4.12
4.33
4.29
4.18
4.06
3.95
3.80
3.57
3.22
2.74
2.10
1.26
0.23
-0.94
-2.18
-3.42
-4.64
-5.86
-7.13
-8.58
-10.26
-12.22
-14.48
-16.99
-19.70
-22.47
-25.11
-27.32
-28.67
-28.76
-27.30
-24.30
-20.08
-15.21
-10.34
-5.95
-2.22
0.93
3.75
6.42
9.02
11.48
13.68
15.53
16.99
18.10
18.92
19.46
19.73
19.72
19.43
18.91
18.20
17.35
16.30
14.96
13.18
10.86
8.01
4.81
1.55
-1.46
-4.03
-6.17
-8.07
-10.08
-12.46
-15.32
-18.45
-21.40
-23.67
-24.82
-24.70
-23.41
-21.26
-18.54
-15.46
-12.03
-8.23
-4.05
0.36
4.75
8.82
12.32
15.16
17.35
18.95
20.03
20.61
20.74
20.54
20.20
20.01
20.19
20.84
21.80
22.79
23.51
23.74
23.45
22.77
21.89
20.92
19.85
18.53
16.74
14.33
11.28
7.69
3.74
-0.42
-4.71
-9.12
-13.63
-18.10
-22.25
-25.66
-27.87
-28.57
-27.68
-25.35
-21.90
-17.75
-13.25
-8.68
-4.24
-0.06
3.71
6.98
9.58
11.43
12.51
12.90
12.78
12.37
11.83
11.22
10.48
9.43
7.95
6.02
3.78
1.51
-0.54
-2.21
-3.55
-4.77
-6.06
-7.56
-9.21
-10.79
-12.12
-13.12
-13.93
-14.86
-16.28
-18.41
-21.31
-24.72
-28.24
-31.34
-33.49
-34.25
-33.38
-30.87
-26.96
-22.07
-16.68
-11.23
-5.98
-1.05
3.53
7.76
11.60
14.98
17.82
20.04
21.58
22.51
22.90
22.91
22.68
22.29
21.74
20.93
19.70
17.94
15.67
13.02
10.28
7.70
5.46
3.60
2.00
0.44
-1.30
-3.39
-5.93
-8.89
-12.15
-15.52
-18.68
-21.25
-22.79
-22.91
-21.46
-18.55
-14.54
-9.91
-5.08
-0.30
4.34
8.86
13.19
17.17
20.58
23.23
25.02
26.02
26.38
26.34
26.04
25.63
25.16
24.69
24.21
23.70
23.07
22.20
20.98
19.34
17.29
14.95
12.44
9.95
7.54
5.19
2.79
0.20
-2.76
-6.23
-10.29
-14.92
-19.90
-24.82
-29.03
-31.87
-32.82
-31.74
-28.89
-24.85
-20.25
-15.55
-10.97
-6.46
-1.88
2.84
7.64
12.31
16.58
20.22
23.06
25.02
26.15
26.61
26.60
26.31
25.93
25.52
25.13
24.72
24.26
23.63
22.75
21.43
19.54
16.99
13.80
10.12
6.19
2.28
-1.41
-4.72
-7.62
-10.18
-12.61
-15.20
-18.26
-21.95
-26.17
-30.44
-34.07
-36.39
-36.98
-35.82
-33.23
-29.66
-25.52
-21.03
-16.31
-11.46
-6.65
-2.15
1.86
5.27
8.14
10.57
12.62
14.26
15.41
15.99
16.05
15.72
15.10
14.32
13.46
12.58
11.76
11.12
10.70
10.43
10.08
9.33
7.96
5.95
3.51
0.94
-1.52
-3.82
-6.13
-8.71
-11.74
-15.21
-18.93
-22.56
-25.75
-28.16
-29.52
-29.64
-28.47
-26.08
-22.71
-18.62
-14.12
-9.49
-5.01
-0.96
2.43
4.99
6.73
7.78
8.39
8.79
9.14
9.49
9.78
9.96
9.96
9.75
9.29
8.54
7.48
6.07
4.32
2.21
-0.16
-2.67
-5.13
-7.41
-9.50
-11.51
-13.66
-16.12
-18.92
-21.90
-24.64
-26.63
-27.38
-26.54
-24.04
-20.16
-15.43
-10.47
-5.77
-1.51
2.37
6.08
9.69
13.07
15.90
17.82
18.76
18.91
18.67
18.42
18.33
18.33
18.16
17.56
16.43
14.82
12.93
10.98
9.09
7.28
5.43
3.40
1.08
-1.60
-4.63
-7.99
-11.59
-15.27
-18.73
-21.59
-23.40
-23.80
-22.60
-19.91
-16.04
-11.41
-6.44
-1.47
3.29
7.65
11.58
15.05
18.03
20.48
22.29
23.36
23.70
23.47
22.94
22.45
22.16
22.03
21.83
21.22
20.04
18.28
16.12
13.79
11.41
8.92
6.21
3.09
-0.52
-4.59
-8.99
-13.54
-17.97
-22.05
-25.49
-28.01
-29.32
-29.19
-27.54
-24.44
-20.17
-15.12
-9.73
-4.38
0.76
5.59
10.12
14.27
17.90
20.83
22.99
24.46
25.44
26.21
26.89
27.46
27.75
27.62
27.03
26.07
24.89
23.59
22.12
20.32
18.04
15.17
11.78
8.06
4.27
0.70
-2.49
-5.35
-8.05
-10.93
-14.24
-18.01
-22.00
-25.72
-28.61
-30.19
-30.28
-28.92
-26.31
-22.69
-18.26
-13.18
-7.64
-1.87
3.90
9.43
14.58
19.22
23.22
26.44
28.74
30.17
30.83
31.00
30.91
30.63
30.09
29.10
27.50
25.33
22.82
20.33
18.09
16.16
14.35
12.31
9.77
6.65
3.09
-0.61
-4.22
-7.62
-10.92
-14.29
-17.88
-21.72
-25.72
-29.70
-33.42
-36.61
-39.00
-40.30
-40.34
-39.04
-36.48
-32.85
-28.36
-23.22
-17.57
-11.55
-5.39
0.62
6.15
10.87
14.60
17.27
19.00
20.03
20.61
20.98
21.25
21.43
21.44
21.22
20.78
20.22
19.64
19.01
18.21
17.02
15.26
12.91
10.11
7.18
4.39
1.90
-0.34
-2.54
-5.02
-8.06
-11.79
-16.07
-20.53
-24.60
-27.66
-29.25
-29.11
-27.28
-24.03
-19.77
-14.98
-10.09
-5.42
-1.13
2.77
6.32
9.54
12.38
14.71
16.46
17.65
18.45
19.07
19.63
20.15
20.50
20.58
20.36
19.90
19.28
18.55
17.65
16.46
14.84
12.73
10.10
7.04
3.69
0.26
-3.05
-6.03
-8.66
-11.04
-13.47
-16.23
-19.47
-23.06
-26.62
-29.59
-31.42
-31.74
-30.39
-27.52
-23.41
-18.45
-13.04
-7.51
-2.12
2.93
7.52
11.58
15.03
17.84
19.97
21.37
22.04
22.10
21.71
21.13
20.58
20.13
19.69
19.09
18.19
17.00
15.68
14.49
13.55
12.79
11.94
10.69
8.86
6.45
3.66
0.73
-2.20
-5.13
-8.14
-11.38
-14.90
-18.64
-22.43
-25.96
-28.85
-30.69
-31.15
-30.02
-27.34
-23.34
-18.43
-13.09
-7.77
-2.78
1.74
5.80
9.44
12.69
15.47
17.68
19.27
20.31
21.01
21.60
22.27
22.94
23.44
23.51
22.99
21.91
20.43
18.74
17.01
15.27
13.45
11.47
9.26
6.78
4.00
0.97
-2.19
-5.27
-8.04
-10.39
-12.37
-14.24
-16.35
-18.98
-22.22
-25.86
-29.52
-32.69
-34.90
-35.87
-35.46
-33.71
-30.75
-26.80
-22.18
-17.21
-12.25
-7.59
-3.48
-0.04
2.66
4.67
6.10
7.11
7.86
8.51
9.20
10.00
10.90
11.78
12.51
12.93
12.99
12.72
12.21
11.56
10.79
9.86
8.60
6.86
4.55
1.76
-1.22
-4.04
-6.37
-8.13
-9.48
-10.79
-12.49
-14.85
-17.82
-21.06
-24.08
-26.36
-27.57
-27.55
-26.29
-23.91
-20.56
-16.44
-11.80
-6.89
-1.95
2.82
7.18
10.94
13.95
16.15
17.58
18.44
18.94
19.34
19.77
20.28
20.81
21.23
21.40
21.20
20.55
19.51
18.16
16.63
14.99
13.24
11.26
8.99
6.37
3.49
0.50
-2.43
-5.15
-7.61
-9.90
-12.27
-15.00
-18.31
-22.16
-26.21
-29.85
-32.42
-33.39
-32.58
-30.18
-26.56
-22.23
-17.58
-12.94
-8.49
-4.34
-0.54
2.92
6.07
8.93
11.48
13.67
15.43
16.75
17.66
18.20
18.46
18.50
18.40
18.21
18.01
17.84
17.70
17.52
17.17
16.50
15.33
13.57
11.18
8.27
5.06
1.86
-1.07
-3.56
-5.69
-7.78
-10.24
-13.42
-17.45
-22.11
-26.86
-31.01
-33.88
-35.02
-34.28
-31.89
-28.27
-23.96
-19.44
-15.04
-10.96
-7.29
-4.07
-1.30
1.03
2.98
4.65
6.21
7.78
9.43
11.08
12.59
13.73
14.30
14.18
13.42
12.24
10.90
9.64
8.54
7.43
6.04
4.13
1.63
-1.30
-4.37
-7.28
-9.90
-12.31
-14.72
-17.34
-20.27
-23.41
-26.56
-29.35
-31.40
-32.34
-31.95
-30.14
-27.05
-23.02
-18.44
-13.70
-9.05
-4.70
-0.73
2.75
5.63
7.81
9.26
10.08
10.46
10.64
10.82
11.10
11.45
11.78
11.99
11.97
11.67
10.97
9.79
8.07
5.85
3.31
0.69
-1.83
-4.16
-6.38
-8.60
-10.93
-13.39
-15.96
-18.55
-21.08
-23.38
-25.14
-25.97
-25.48
-23.45
-20.00
-15.53
-10.59
-5.66
-1.10
2.95
6.47
9.45
11.92
13.89
15.45
16.67
17.68
18.54
19.31
19.94
20.32
20.30
19.77
18.65
16.98
14.95
12.79
10.71
8.83
7.12
5.43
3.57
1.32
-1.45
-4.80
-8.65
-12.85
-17.08
-20.98
-24.14
-26.20
-26.95
-26.30
-24.36
-21.30
-17.45
-13.17
-8.81
-4.67
-0.89
2.53
5.77
9.05
12.48
15.97
19.24
21.90
23.66
24.48
24.57
24.29
23.96
23.74
23.60
23.39
22.95
22.14
20.86
18.98
16.42
13.18
9.46
5.61
2.03
-1.03
-3.61
-6.00
-8.64
-11.89
-15.83
-20.23
-24.55
-28.17
-30.55
-31.35
-30.52
-28.23
-24.82
-20.62
-15.93
-11.02
-6.17
-1.62
2.40
5.77
8.48
10.64
12.43
13.95
15.23
16.22
16.82
16.98
16.70
16.09
15.27
14.41
13.61
12.87
12.13
11.26
10.10
8.55
6.64
4.46
2.14
-0.24
-2.68
-5.28
-8.12
-11.26
-14.64
-18.12
-21.47
-24.40
-26.59
-27.70
-27.42
-25.60
-22.30
-17.83
-12.68
-7.42
-2.48
1.89
5.60
8.73
11.35
13.52
15.20
16.35
16.97
17.14
17.07
16.96
16.99
17.19
17.46
17.62
17.53
17.10
16.34
15.25
13.83
12.00
9.69
6.90
3.78
0.53
-2.68
-5.79
-8.86
-12.01
-15.28
-18.55
-21.54
-23.90
-25.25
-25.30
-23.91
-21.17
-17.33
-12.78
-7.93
-3.13
1.38
5.50
9.21
12.49
15.32
17.65
19.44
20.69
21.44
21.77
21.77
21.53
21.09
20.52
19.86
19.14
18.37
17.55
16.63
15.52
14.11
12.33
10.20
7.83
5.38
2.98
0.63
-1.84
-4.66
-8.02
-11.91
-16.04
-19.95
-23.07
-24.94
-25.29
-24.12
-21.64
-18.19
-14.12
-9.78
-5.40
-1.11
3.01
6.91
10.55
13.84
16.73
19.17
21.14
22.61
23.62
24.14
24.23
23.93
23.32
22.51
21.57
20.48
19.24
17.77
16.03
13.97
11.55
8.76
5.63
2.22
-1.31
-4.77
-8.01
-10.95
-13.65
-16.27
-19.02
-22.04
-25.38
-28.92
-32.33
-35.17
-36.96
-37.34
-36.09
-33.31
-29.29
-24.50
-19.43
-14.53
-10.04
-6.07
-2.53
0.69
3.64
6.30
8.55
10.26
11.40
12.03
12.33
12.46
12.51
12.47
12.26
11.84
11.20
10.44
9.58
8.64
7.53
6.13
4.40
2.34
0.04
-2.42
-4.96
-7.56
-10.21
-12.93
-15.73
-18.55
-21.28
-23.67
-25.40
-26.04
-25.22
-22.76
-18.80
-13.77
-8.32
-3.01
1.75
5.84
9.30
12.24
14.68
16.60
17.96
18.82
19.34
19.74
20.21
20.79
21.41
21.92
22.18
22.11
21.63
20.64
19.03
16.74
13.77
10.33
6.66
3.03
-0.36
-3.47
-6.45
-9.48
-12.78
-16.44
-20.37
-24.26
-27.61
-29.88
-30.59
-29.50
-26.69
-22.53
-17.57
-12.35
-7.27
-2.52
1.80
5.66
9.01
11.81
14.04
15.76
17.10
18.20
19.12
19.84
20.20
20.10
19.55
18.62
17.51
16.36
15.20
13.95
12.49
10.78
8.87
6.89
4.93
2.91
0.61
-2.30
-6.03
-10.59
-15.71
-20.84
-25.34
-28.63
-30.26
-30.05
-28.02
-24.35
-19.37
-13.54
-7.36
-1.31
4.22
9.04
13.08
16.42
19.12
21.17
22.53
23.13
23.04
22.43
21.60
20.84
20.25
19.73
19.04
17.96
16.35
14.26
11.78
9.09
6.24
3.23
0.04
-3.28
-6.63
-9.92
-13.11
-16.33
-19.74
-23.45
-27.36
-31.05
-33.96
-35.48
-35.23
-33.14
-29.53
-24.92
-19.91
-14.98
-10.43
-6.37
-2.80
0.35
3.15
5.58
7.62
9.24
10.43
11.27
11.87
12.36
12.82
13.21
13.34
13.03
12.11
10.63
8.75
6.69
4.63
2.63
0.63
-1.50
-3.82
-6.38
-9.16
-12.12
-15.20
-18.20
-20.80
-22.58
-23.09
-22.07
-19.54
-15.82
-11.40
-6.79
-2.41
1.57
5.10
8.23
10.96
13.23
14.94
16.00
16.45
16.46
16.30
16.24
16.35
16.50
16.42
15.81
14.57
12.75
10.61
8.42
6.39
4.54
2.73
0.75
-1.67
-4.72
-8.45
-12.73
-17.22
-21.45
-24.90
-27.17
-27.99
-27.26
-24.98
-21.32
-16.53
-11.01
-5.25
0.27
5.23
9.48
13.05
16.05
18.53
20.50
21.95
22.91
23.49
23.77
23.82
23.53
22.79
21.53
19.82
17.90
15.96
14.14
12.38
10.47
8.21
5.45
2.16
-1.56
-5.60
-9.83
-14.15
-18.39
-22.30
-25.55
-27.73
-28.46
-27.52
-24.87
-20.71
-15.38
-9.35
-3.07
3.09
8.85
14.03
18.49
22.09
24.76
26.47
27.28
27.34
26.91
26.22
25.50
24.83
24.21
23.55
22.72
21.62
20.16
18.28
15.96
13.24
10.16
6.84
3.42
0.07
-3.15
-6.23
-9.28
-12.50
-16.04
-20.03
-24.41
-28.93
-33.11
-36.36
-38.09
-37.97
-35.96
-32.33
-27.58
-22.21
-16.65
-11.19
-5.98
-1.15
3.19
6.89
9.85
11.97
13.29
13.86
13.86
13.55
13.21
13.10
13.31
13.76
14.18
14.27
13.77
12.61
10.83
8.65
6.31
4.00
1.87
-0.09
-1.92
-3.76
-5.78
-8.16
-11.02
-14.39
-18.11
-21.76
-24.75
-26.44
-26.36
-24.36
-20.70
-15.89
-10.59
-5.30
-0.35
4.15
8.15
11.65
14.58
16.87
18.46
19.33
19.56
19.27
18.65
17.87
17.07
16.33
15.66
15.00
14.25
13.33
12.18
10.73
8.93
6.76
4.21
1.33
-1.78
-5.00
-8.25
-11.47
-14.67
-17.90
-21.13
-24.25
-26.98
-28.91
-29.59
-28.63
-25.88
-21.50
-15.95
-9.94
-4.17
0.87
4.99
8.28
11.01
13.47
15.80
17.96
19.82
21.25
22.19
22.66
22.75
22.48
21.86
20.85
19.47
17.80
15.97
14.15
12.44
10.82
9.17
7.33
5.18
2.69
-0.07
-3.03
-6.19
-9.62
-13.41
-17.54
-21.76
-25.59
-28.45
-29.88
-29.61
-27.71
-24.50
-20.39
-15.81
-11.08
-6.43
-1.98
2.15
5.90
9.18
11.89
13.98
15.43
16.30
16.70
16.81
16.79
16.80
16.87
17.02
17.15
17.22
17.15
16.93
16.53
15.91
14.97
13.56
11.63
9.20
6.39
3.36
0.23
-3.01
-6.44
-10.20
-14.30
-18.58
-22.65
-26.03
-28.20
-28.85
-27.85
-25.37
-21.78
-17.56
-13.12
-8.76
-4.60
-0.66
3.01
6.34
9.20
11.51
13.25
14.55
15.50
16.16
16.48
16.43
16.01
15.37
14.67
14.04
13.40
12.52
11.14
9.12
6.54
3.67
0.86
-1.67
-3.87
-5.90
-7.95
-10.24
-12.84
-15.76
-18.95
-22.38
-25.99
-29.63
-33.00
-35.63
-37.02
-36.78
-34.84
-31.51
-27.33
-22.92
-18.71
-14.86
-11.34
-8.05
-4.98
-2.25
-0.03
1.59
2.66
3.38
4.04
4.86
5.88
7.00
8.04
8.77
9.07
8.94
8.42
7.61
6.57
5.33
3.85
2.09
0.03
-2.29
-4.75
-7.30
-9.88
-12.55
-15.36
-18.26
-21.00
-23.14
-24.13
-23.55
-21.24
-17.42
-12.66
-7.60
-2.81
1.40
4.93
7.84
10.25
12.29
14.04
15.54
16.76
17.69
18.26
18.49
18.44
18.21
17.87
17.37
16.63
15.49
13.93
12.02
9.93
7.81
5.65
3.38
0.88
-1.83
-4.64
-7.40
-10.09
-12.86
-15.96
-19.49
-23.24
-26.69
-29.13
-29.96
-28.91
-26.13
-22.06
-17.29
-12.28
-7.35
-2.63
1.78
5.85
9.49
12.61
15.14
17.05
18.37
19.14
19.45
19.37
18.96
18.32
17.50
16.62
15.77
15.02
14.36
13.70
12.86
11.68
10.08
8.05
5.70
3.15
0.44
-2.45
-5.64
-9.19
-13.05
-17.08
-20.98
-24.39
-26.94
-28.26
-28.06
-26.18
-22.71
-17.93
-12.32
-6.42
-0.76
4.32
8.58
11.94
14.43
16.10
17.09
17.55
17.63
17.48
17.22
16.89
16.52
16.12
15.66
15.04
14.17
12.89
11.09
8.78
6.06
3.13
0.22
-2.51
-5.04
-7.46
-9.89
-12.49
-15.34
-18.50
-21.94
-25.57
-29.21
-32.54
-35.14
-36.53
-36.31
-34.31
-30.67
-25.81
-20.38
-14.99
-10.09
-5.84
-2.19
1.05
4.02
6.75
9.12
10.93
12.03
12.43
12.31
11.94
11.59
11.38
11.24
11.04
10.58
9.78
8.63
7.18
5.49
3.56
1.38
-1.04
-3.65
-6.35
-9.04
-11.69
-14.34
-17.06
-19.86
-22.62
-25.00
-26.54
-26.71
-25.17
-21.88
-17.16
-11.65
-6.06
-0.97
3.28
6.66
9.29
11.38
13.08
14.50
15.66
16.60
17.34
17.91
18.29
18.40
18.13
17.35
16.00
14.11
11.79
9.20
6.46
3.67
0.85
-2.07
-5.13
-8.45
-12.11
-16.07
-20.24
-24.28
-27.78
-30.23
-31.21
-30.45
-27.99
-24.08
-19.14
-13.64
-8.04
-2.70
2.16
6.43
10.08
13.16
15.72
17.78
19.38
20.51
21.21
21.59
21.73
21.71
21.52
21.07
20.25
18.99
17.29
15.24
12.92
10.36
7.54
4.37
0.83
-3.10
-7.36
-11.83
-16.31
-20.52
-24.06
-26.50
-27.50
-26.87
-24.68
-21.19
-16.78
-11.80
-6.59
-1.38
3.62
8.24
12.32
15.73
18.41
20.34
21.61
22.38
22.89
23.33
23.80
24.21
24.38
24.07
23.18
21.74
19.94
17.99
16.04
14.15
12.27
10.28
8.05
5.41
2.18
-1.77
-6.45
-11.63
-16.87
-21.58
-25.16
-27.22
-27.58
-26.33
-23.63
-19.72
-14.86
-9.35
-3.54
2.16
7.41
11.94
15.66
18.54
20.62
21.93
22.51
22.48
22.08
21.55
21.06
20.66
20.23
19.55
18.45
16.85
14.77
12.32
9.55
6.53
3.29
-0.12
-3.60
-7.07
-10.44
-13.71
-16.90
-20.09
-23.30
-26.44
-29.26
-31.32
-32.09
-31.16
-28.33
-23.82
-18.16
-12.03
-6.00
-0.46
4.50
8.88
12.67
15.81
18.18
19.69
20.38
20.47
20.22
19.93
19.78
19.79
19.86
19.81
19.46
18.63
17.31
15.50
13.28
10.74
7.98
5.05
2.07
-0.85
-3.64
-6.28
-8.92
-11.77
-15.02
-18.62
-22.26
-25.34
-27.19
-27.25
-25.32
-21.58
-16.52
-10.76
-4.89
0.62
5.51
9.63
13.02
15.79
18.07
19.98
21.51
22.59
23.09
22.98
22.32
21.30
20.11
18.94
17.88
17.04
16.52
16.37
16.51
16.71
16.62
15.85
14.18
11.55
8.07
3.93
-0.77
-5.93
-11.43
-16.97
-22.07
-26.17
-28.75
-29.50
-28.42
-25.74
-21.92
-17.43
-12.68
-7.94
-3.33
1.18
5.60
9.91
13.93
17.38
20.02
21.74
22.67
23.10
23.38
23.71
24.07
24.25
23.98
23.13
21.71
19.86
17.73
15.43
12.98
10.36
7.59
4.69
1.71
-1.34
-4.49
-7.81
-11.38
-15.25
-19.38
-23.59
-27.53
-30.70
-32.60
-32.87
-31.43
-28.53
-24.65
-20.31
-15.91
-11.66
-7.60
-3.72
-0.08
3.21
5.98
8.08
9.47
10.25
10.59
10.76
10.89
11.05
11.16
11.09
10.72
10.08
9.28
8.47
7.74
7.03
6.15
4.97
3.39
1.52
-0.49
-2.52
-4.57
-6.75
-9.26
-12.24
-15.74
-19.68
-23.81
-27.76
-31.05
-33.21
-33.87
-32.88
-30.36
-26.65
-22.19
-17.38
-12.54
-7.88
-3.53
0.39
3.83
6.74
9.14
11.08
12.58
13.72
14.53
15.08
15.44
15.65
15.69
15.53
15.14
14.53
13.72
12.73
11.52
10.02
8.11
5.76
3.06
0.19
-2.59
-5.09
-7.26
-9.20
-11.15
-13.36
-15.98
-18.99
-22.17
-25.13
-27.36
-28.39
-27.89
-25.76
-22.15
-17.44
-12.17
-6.86
-1.92
2.39
6.00
9.01
11.52
13.64
15.38
16.76
17.77
18.49
19.05
19.59
20.19
20.81
21.31
21.55
21.46
21.05
20.40
19.55
18.39
16.77
14.52
11.64
8.31
4.83
1.49
-1.58
-4.45
-7.29
-10.35
-13.77
-17.57
-21.60
-25.54
-29.02
-31.59
-32.89
-32.69
-30.96
-27.87
-23.79
-19.10
-14.11
-9.05
-3.98
1.06
6.00
10.74
15.08
18.87
21.93
24.20
25.71
26.57
26.95
27.00
26.83
26.49
25.99
25.28
24.32
23.09
21.66
20.12
18.52
16.92
15.25
13.45
11.41
9.08
6.50
3.78
1.03
-1.64
-4.26
-6.96
-9.95
-13.40
-17.40
-21.80
-26.25
-30.21
-33.12
-34.49
-34.14
-32.21
-29.07
-25.19
-20.99
-16.69
-12.37
-8.10
-4.00
-0.28
2.86
5.35
7.26
8.83
10.26
11.60
12.78
13.64
14.05
14.01
13.59
12.96
12.21
11.41
10.57
9.61
8.46
7.04
5.33
3.39
1.34
-0.66
-2.50
-4.17
-5.75
-7.34
-9.06
-11.00
-13.27
-15.97
-19.17
-22.75
-26.41
-29.62
-31.78
-32.44
-31.40
-28.85
-25.17
-20.87
-16.41
-12.14
-8.26
-4.86
-1.94
0.52
2.56
4.18
5.42
6.33
6.99
7.53
8.11
8.80
9.58
10.31
10.81
10.97
10.77
10.26
9.54
8.62
7.45
5.95
4.06
1.83
-0.61
-3.06
-5.38
-7.57
-9.74
-12.09
-14.76
-17.74
-20.76
-23.39
-25.14
-25.58
-24.50
-21.94
-18.20
-13.72
-8.98
-4.39
-0.19
3.59
6.99
10.08
12.91
15.42
17.47
18.94
19.80
20.13
20.12
19.98
19.82
19.66
19.40
18.90
18.07
16.84
15.21
13.21
10.90
8.35
5.69
3.07
0.61
-1.68
-3.91
-6.31
-9.07
-12.25
-15.71
-19.13
-22.15
-24.44
-25.79
-26.06
-25.16
-23.00
-19.63
-15.30
-10.41
-5.49
-0.98
2.89
6.09
8.66
10.71
12.27
13.31
13.84
13.93
13.77
13.58
13.54
13.74
14.13
14.53
14.67
14.28
13.21
11.50
9.37
7.14
5.01
2.98
0.85
-1.61
-4.56
-7.99
-11.75
-15.64
-19.50
-23.09
-26.10
-28.09
-28.59
-27.32
-24.33
-20.03
-15.07
-10.05
-5.38
-1.12
2.85
6.69
10.45
13.96
16.96
19.19
20.53
21.03
20.88
20.35
19.67
18.94
18.19
17.31
16.21
14.83
13.18
11.34
9.39
7.38
5.28
3.02
0.57
-2.07
-4.87
-7.80
-10.92
-14.32
-18.07
-22.09
-26.08
-29.56
-32.02
-33.10
-32.65
-30.78
-27.79
-24.03
-19.89
-15.65
-11.56
-7.68
-4.05
-0.62
2.56
5.39
7.67
9.26
10.15
10.47
10.52
10.51
10.60
10.71
10.73
10.51
9.99
9.22
8.25
7.12
5.78
4.17
2.23
-0.03
-2.46
-4.95
-7.46
-10.06
-12.88
-16.03
-19.33
-22.39
-24.61
-25.48
-24.72
-22.47
-19.17
-15.38
-11.53
-7.82
-4.29
-0.93
2.18
4.84
6.85
8.07
8.57
8.59
8.55
8.85
9.84
11.56
13.77
15.98
17.64
18.34
17.97
16.77
15.10
13.30
11.52
9.70
7.67
5.33
2.66
-0.34
-3.65
-7.33
-11.35
-15.48
-19.21
-21.93
-23.05
-22.32
-19.88
-16.19
-11.86
-7.42
-3.23
0.55
3.84
6.56
8.62
9.97
10.69
11.01
11.21
11.54
12.09
12.70
13.13
13.08
12.42
11.19
9.55
7.66
5.61
3.37
0.85
-2.07
-5.46
-9.36
-13.76
-18.57
-23.59
-28.43
-32.53
-35.27
-36.16
-35.09
-32.25
-28.20
-23.48
-18.55
-13.57
-8.53
-3.39
1.73
6.53
10.65
13.81
15.93
17.13
17.63
17.64
17.33
16.81
16.18
15.51
14.84
14.15
13.34
12.37
11.17
9.74
8.07
6.05
3.55
0.40
-3.50
-8.06
-13.03
-17.97
-22.34
-25.62
-27.40
-27.47
-25.87
-22.81
-18.66
-13.73
-8.35
-2.73
2.90
8.33
13.40
17.96
21.88
25.08
27.47
29.00
29.70
29.64
28.99
27.94
26.64
25.20
23.68
22.15
20.62
19.12
17.65
16.17
14.64
13.04
11.33
9.53
7.62
5.60
3.43
1.05
-1.64
-4.75
-8.37
-12.45
-16.75
-20.82
-24.06
-25.86
-25.84
-23.93
-20.40
-15.78
-10.66
-5.58
-0.81
3.61
7.78
11.85
15.86
19.73
23.29
26.34
28.75
30.50
31.68
32.43
32.91
33.20
33.34
33.28
32.93
32.23
31.17
29.76
28.08
26.24
24.31
22.35
20.46
18.67
17.01
15.38
13.60
11.45
8.73
5.35
1.39
-2.91
-7.33
-11.73
-16.16
-20.82
-25.94
-31.59
-37.52
-43.14
-47.67
-50.34
-50.71
-48.74
-44.83
-39.57
-33.57
-27.22
-20.67
-13.96
-7.09
-0.17
6.53
12.73
18.12
22.49
25.71
27.80
28.86
29.14
28.99
28.78
28.80
29.16
29.70
30.05
29.86
28.84
26.96
24.38
21.38
18.27
15.29
12.56
10.17
8.12
6.34
4.69
2.93
0.80
-1.87
-5.12
-8.83
-12.76
-16.69
-20.48
-24.10
-27.52
-30.67
-33.34
-35.27
-36.18
-35.90
-34.34
-31.56
-27.68
-22.91
-17.50
-11.80
-6.15
-0.82
4.04
8.42
12.41
16.03
19.27
21.96
23.96
25.17
25.62
25.42
24.83
24.07
23.34
22.75
22.29
21.85
21.27
20.39
19.12
17.46
15.47
13.29
11.07
8.89
6.79
4.73
2.64
0.42
-1.98
-4.55
-7.27
-10.13
-13.27
-16.81
-20.89
-25.45
-30.19
-34.57
-37.97
-39.84
-39.85
-38.00
-34.59
-30.09
-25.03
-19.87
-14.87
-10.16
-5.68
-1.39
2.70
6.46
9.64
11.99
13.34
13.69
13.26
12.44
11.66
11.25
11.31
11.67
12.01
11.97
11.35
10.16
8.58
6.87
5.20
3.68
2.29
0.99
-0.23
-1.36
-2.36
-3.22
-3.97
-4.70
-5.51
-6.55
-8.02
-10.10
-12.89
-16.39
-20.36
-24.39
-27.97
-30.57
-31.80
-31.45
-29.50
-26.12
-21.58
-16.31
-10.76
-5.41
-0.58
3.63
7.30
10.63
13.73
16.52
18.77
20.25
20.94
21.11
21.18
21.51
22.20
23.07
23.73
23.85
23.27
22.05
20.36
18.38
16.16
13.67
10.82
7.61
4.20
0.86
-2.09
-4.43
-6.16
-7.54
-8.88
-10.54
-12.67
-15.24
-18.09
-21.07
-24.03
-26.84
-29.20
-30.67
-30.76
-29.09
-25.62
-20.66
-14.80
-8.64
-2.60
3.13
8.54
13.64
18.35
22.42
25.59
27.62
28.44
28.24
27.40
26.42
25.66
25.30
25.16
24.83
23.85
21.95
19.21
16.05
13.02
10.55
8.70
7.21
5.61
3.48
0.70
-2.56
-5.95
-9.18
-12.10
-14.82
-17.52
-20.38
-23.47
-26.72
-30.00
-33.23
-36.29
-39.02
-41.05
-41.91
-41.13
-38.46
-34.06
-28.38
-22.12
-15.89
-10.05
-4.66
0.37
5.13
9.56
13.49
16.70
19.12
20.86
22.15
23.22
24.15
24.83
25.06
24.67
23.66
22.24
20.78
19.59
18.77
18.20
17.56
16.52
14.88
12.65
10.00
7.20
4.46
1.87
-0.59
-3.02
-5.60
-8.46
-11.75
-15.54
-19.72
-24.02
-27.90
-30.69
-31.78
-30.78
-27.65
-22.77
-16.76
-10.34
-4.11
1.60
6.67
11.15
15.12
18.64
21.68
24.13
25.85
26.63
26.22
24.47
21.40
17.28
12.69
8.43
5.23
3.58
3.51
4.55
5.84
6.44
5.60
3.08
-0.83
-5.43
-9.96
-13.82
-16.85
-19.19
-21.19
-23.22
-25.52
-28.25
-31.40
-34.84
-38.20
-40.96
-42.48
-42.16
-39.72
-35.29
-29.44
-22.95
-16.62
-10.91
-5.97
-1.70
2.04
5.26
7.76
9.30
9.79
9.44
8.77
8.36
8.55
9.27
10.09
10.47
10.05
8.84
7.10
5.26
3.61
2.30
1.31
0.56
-0.07
-0.76
-1.74
-3.28
-5.55
-8.47
-11.63
-14.44
-16.35
-17.07
-16.73
-15.69
-14.45
-13.32
-12.35
-11.34
-9.98
-7.96
-5.13
-1.55
2.51
6.64
10.40
13.49
15.88
17.71
19.19
20.39
21.13
21.12
20.04
17.91
15.00
11.85
8.89
6.31
3.96
1.39
-1.79
-5.82
-10.56
-15.57
-20.27
-24.13
-26.75
-27.95
-27.69
-26.05
-23.21
-19.42
-14.95
-10.08
-5.10
-0.22
4.40
8.52
11.93
14.43
15.97
16.72
16.96
17.07
17.29
17.71
18.18
18.50
18.41
17.75
16.46
14.66
12.57
10.47
8.55
6.81
5.04
2.82
-0.22
-4.31
-9.44
-15.35
-21.61
-27.66
-32.84
-36.44
-37.90
-36.96
-33.77
-28.89
-23.07
-17.01
-11.10
-5.47
-0.08
5.10
9.97
14.31
17.91
20.73
22.84
24.37
25.46
26.15
26.37
26.07
25.32
24.33
23.41
22.75
22.37
22.00
21.26
19.79
17.52
14.64
11.58
8.78
6.50
4.75
3.31
1.83
-0.03
-2.57
-5.92
-10.10
-14.92
-20.03
-24.86
-28.81
-31.27
-31.82
-30.31
-26.97
-22.31
-16.97
-11.56
-6.50
-1.96
2.08
5.67
8.82
11.40
13.31
14.55
15.24
15.67
16.07
16.54
16.97
17.10
16.71
15.71
14.27
12.66
11.16
9.89
8.73
7.49
5.97
4.12
2.04
-0.11
-2.20
-4.20
-6.14
-8.03
-9.89
-11.73
-13.65
-15.83
-18.40
-21.42
-24.58
-27.41
-29.30
-29.75
-28.53
-25.76
-21.79
-17.09
-12.08
-7.07
-2.28
2.19
6.22
9.72
12.58
14.72
16.11
16.84
17.14
17.30
17.62
18.23
19.07
19.86
20.33
20.24
19.58
18.50
17.25
16.05
15.07
14.31
13.65
12.88
11.75
10.09
7.81
5.02
1.87
-1.37
-4.47
-7.33
-9.95
-12.50
-15.23
-18.39
-22.04
-25.96
-29.64
-32.45
-33.82
-33.40
-31.22
-27.59
-23.00
-17.93
-12.82
-7.92
-3.36
0.82
4.70
8.35
11.79
15.01
17.88
20.29
22.22
23.72
24.90
25.82
26.43
26.61
26.24
25.32
23.95
22.32
20.58
18.84
17.08
15.29
13.49
11.75
10.19
8.92
7.93
7.07
6.11
4.75
2.74
-0.05
-3.63
-7.83
-12.38
-16.99
-21.38
-25.28
-28.47
-30.67
-31.62
-31.10
-29.07
-25.72
-21.43
-16.69
-11.93
-7.39
-3.08
1.10
5.27
9.38
13.22
16.51
19.02
20.75
21.94
22.92
24.05
25.45
27.01
28.44
29.38
29.56
28.94
27.68
26.08
24.46
23.11
22.08
21.23
20.26
18.82
16.68
13.82
10.44
6.89
3.48
0.33
-2.69
-5.87
-9.52
-13.80
-18.71
-24.06
-29.55
-34.81
-39.37
-42.73
-44.36
-43.93
-41.39
-37.12
-31.80
-26.20
-20.89
-16.13
-11.88
-7.98
-4.27
-0.77
2.42
5.17
7.44
9.31
10.99
12.69
14.54
16.52
18.46
20.09
21.15
21.49
21.11
20.21
19.07
17.89
16.71
15.37
13.66
11.39
8.59
5.42
2.19
-0.88
-3.70
-6.28
-8.66
-10.85
-12.80
-14.50
-16.11
-17.92
-20.29
-23.40
-27.05
-30.59
-33.18
-34.01
-32.64
-29.13
-24.03
-18.19
-12.45
-7.41
-3.34
-0.23
2.14
3.97
5.40
6.48
7.23
7.73
8.12
8.57
9.21
10.09
11.06
11.87
12.22
11.92
10.96
9.55
8.06
6.83
6.03
5.55
5.07
4.25
2.95
1.31
-0.38
-1.79
-2.81
-3.55
-4.33
-5.42
-7.00
-9.09
-11.66
-14.66
-18.06
-21.68
-25.17
-27.94
-29.38
-29.01
-26.74
-22.85
-17.92
-12.57
-7.29
-2.35
2.17
6.23
9.76
12.65
14.79
16.24
17.14
17.77
18.39
19.14
19.96
20.67
21.09
21.15
20.94
20.65
20.43
20.32
20.20
19.85
19.12
17.92
16.21
13.97
11.10
7.53
3.31
-1.34
-6.05
-10.47
-14.43
-18.02
-21.47
-25.06
-28.90
-32.83
-36.50
-39.48
-41.32
-41.73
-40.50
-37.59
-33.12
-27.39
-20.82
-13.90
-6.99
-0.31
6.06
12.11
17.80
22.97
27.35
30.64
32.72
33.68
33.93
33.96
34.20
34.72
35.26
35.37
34.62
32.86
30.28
27.26
24.22
21.38
18.77
16.26
13.71
11.04
8.20
5.19
1.92
-1.71
-5.83
-10.51
-15.75
-21.36
-27.08
-32.52
-37.27
-40.95
-43.26
-44.02
-43.18
-40.85
-37.22
-32.58
-27.22
-21.39
-15.26
-8.90
-2.44
3.93
9.88
15.09
19.31
22.49
24.77
26.39
27.63
28.67
29.58
30.34
30.85
30.99
30.65
29.76
28.33
26.43
24.17
21.68
19.05
16.38
13.76
11.30
9.06
6.99
4.94
2.68
0.00
-3.23
-7.02
-11.30
-15.90
-20.58
-25.01
-28.78
-31.55
-32.99
-32.98
-31.60
-29.12
-25.85
-22.11
-18.03
-13.68
-9.12
-4.57
-0.48
2.56
4.02
3.70
1.92
-0.53
-2.66
-3.63
-3.06
-1.06
1.88
5.18
8.42
11.30
13.71
15.54
16.62
16.76
15.86
14.02
11.55
8.90
6.45
4.36
2.49
0.54
-1.84
-4.88
-8.56
-12.72
-17.10
-21.47
-25.57
-29.12
-31.69
-32.80
-32.10
-29.47
-25.21
-19.87
-14.11
-8.48
-3.35
1.15
4.99
8.24
10.94
13.15
14.96
16.43
17.66
18.68
19.52
20.20
20.77
21.29
21.79
22.25
22.60
22.76
22.65
22.19
21.31
19.93
18.06
15.75
13.15
10.42
7.73
5.06
2.38
-0.44
-3.48
-6.66
-9.79
-12.47
-14.30
-14.85
-13.85
-11.21
-7.11
-1.97
3.62
9.07
13.89
17.81
20.80
23.01
24.63
25.82
26.55
26.65
25.79
23.68
20.20
15.54
10.19
4.78
-0.09
-4.07
-7.14
-9.45
-11.25
-12.70
-13.87
-14.76
-15.43
-16.04
-16.82
-18.03
-19.84
-22.24
-25.05
-28.00
-30.86
-33.44
-35.62
-37.24
-37.96
-37.29
-34.84
-30.44
-24.38
-17.40
-10.43
-4.24
0.81
4.77
7.92
10.50
12.56
14.00
14.71
14.69
14.13
13.26
12.23
11.09
9.79
8.30
6.68
5.05
3.49
1.90
0.06
-2.33
-5.41
-9.07
-13.03
-16.87
-20.25
-22.99
-25.14
-26.84
-28.26
-29.54
-30.68
-31.52
-31.72
-30.89
-28.71
-25.02
-20.00
-14.04
-7.67
-1.32
4.77
10.53
15.93
20.87
25.09
28.29
30.24
30.94
30.65
29.79
28.77
27.83
27.07
26.45
25.91
25.37
24.79
24.09
23.16
21.86
20.08
17.74
14.88
11.64
8.19
4.72
1.27
-2.21
-5.91
-10.01
-14.62
-19.64
-24.77
-29.57
-33.53
-36.18
-37.11
-36.05
-32.91
-27.89
-21.50
-14.51
-7.74
-1.77
3.16
7.20
10.71
14.00
17.15
20.04
22.37
23.97
24.90
25.40
25.81
26.37
27.11
27.84
28.28
28.15
27.35
25.94
24.10
22.00
19.77
17.42
14.91
12.22
9.41
6.58
3.90
1.42
-0.85
-3.03
-5.26
-7.68
-10.32
-13.23
-16.44
-19.98
-23.84
-27.88
-31.79
-35.05
-37.06
-37.31
-35.56
-31.93
-26.88
-21.07
-15.14
-9.56
-4.56
-0.22
3.46
6.51
8.98
10.96
12.57
13.98
15.28
16.47
17.48
18.17
18.50
18.46
18.19
17.78
17.33
16.84
16.24
15.41
14.19
12.48
10.25
7.56
4.58
1.49
-1.54
-4.40
-7.03
-9.46
-11.74
-13.93
-16.05
-18.08
-19.98
-21.65
-23.13
-24.59
-26.28
-28.49
-31.31
-34.50
-37.56
-39.76
-40.41
-39.14
-35.93
-31.17
-25.43
-19.33
-13.33
-7.75
-2.77
1.49
4.96
7.62
9.52
10.84
11.78
12.55
13.34
14.21
15.14
16.04
16.81
17.38
17.75
17.99
18.19
18.41
18.60
18.59
18.13
16.99
15.03
12.35
9.20
5.99
3.06
0.59
-1.45
-3.29
-5.22
-7.46
-10.14
-13.25
-16.66
-20.20
-23.59
-26.48
-28.44
-29.03
-28.01
-25.35
-21.40
-16.65
-11.63
-6.73
-2.16
2.05
5.91
9.45
12.63
15.41
17.74
19.65
21.22
22.57
23.80
24.90
25.80
26.32
26.31
25.71
24.61
23.23
21.79
20.45
19.17
17.78
16.03
13.71
10.77
7.32
3.65
0.09
-3.10
-5.79
-8.07
-10.20
-12.55
-15.45
-19.07
-23.34
-27.95
-32.37
-35.96
-38.13
-38.49
-36.91
-33.53
-28.74
-23.06
-17.01
-11.07
-5.55
-0.63
3.66
7.39
10.69
13.66
16.32
18.64
20.57
22.11
23.29
24.15
24.66
24.72
24.21
23.16
21.74
20.30
19.12
18.32
17.69
16.87
15.49
13.38
10.66
7.62
4.61
1.81
-0.76
-3.23
-5.79
-8.60
-11.78
-15.38
-19.34
-23.51
-27.54
-30.96
-33.27
-34.11
-33.30
-30.96
-27.49
-23.36
-19.06
-14.91
-11.04
-7.43
-4.00
-0.69
2.47
5.41
8.08
10.46
12.60
14.56
16.39
18.02
19.31
20.09
20.23
19.74
18.74
17.44
16.00
14.54
13.08
11.61
10.13
8.59
6.96
5.17
3.07
0.56
-2.35
-5.53
-8.73
-11.72
-14.46
-17.12
-20.00
-23.36
-27.19
-31.18
-34.77
-37.32
-38.35
-37.60
-35.09
-31.05
-25.86
-19.94
-13.74
-7.69
-2.18
2.51
6.20
8.88
10.66
11.73
12.41
13.00
13.77
14.88
16.29
17.82
19.19
20.15
20.56
20.43
19.92
19.22
18.51
17.85
17.17
16.33
15.15
13.52
11.36
8.64
5.44
1.90
-1.73
-5.21
-8.37
-11.25
-14.09
-17.23
-20.89
-24.91
-28.79
-31.80
-33.28
-32.92
-30.76
-27.12
-22.36
-16.78
-10.61
-4.09
2.39
8.36
13.34
17.04
19.40
20.66
21.23
21.59
22.15
23.17
24.66
26.37
27.93
29.00
29.36
29.02
28.16
27.00
25.62
24.00
22.03
19.59
16.68
13.38
9.87
6.34
2.91
-0.36
-3.51
-6.59
-9.71
-12.98
-16.50
-20.34
-24.49
-28.75
-32.77
-36.03
-38.01
-38.28
-36.69
-33.40
-28.75
-23.17
-17.04
-10.65
-4.27
1.79
7.19
11.62
14.95
17.27
18.85
20.05
21.17
22.34
23.57
24.77
25.82
26.62
27.07
27.08
26.62
25.68
24.32
22.60
20.58
18.35
15.94
13.38
10.68
7.86
4.96
2.04
-0.86
-3.79
-6.93
-10.54
-14.84
-19.90
-25.50
-31.18
-36.32
-40.26
-42.50
-42.74
-40.96
-37.40
-32.54
-26.97
-21.29
-15.93
-11.04
-6.59
-2.49
1.32
4.79
7.77
10.19
12.08
13.63
15.09
16.64
18.34
20.06
21.56
22.56
22.87
22.43
21.37
19.92
18.29
16.62
14.83
12.80
10.38
7.59
4.57
1.60
-1.06
-3.32
-5.27
-7.23
-9.56
-12.57
-16.41
-20.96
-25.80
-30.33
-33.85
-35.75
-35.69
-33.62
-29.77
-24.60
-18.64
-12.43
-6.39
-0.85
4.05
8.21
11.65
14.39
16.48
18.05
19.26
20.35
21.54
22.95
24.53
26.06
27.26
27.88
27.80
27.10
25.92
24.43
22.67
20.58
18.06
15.05
11.58
7.84
4.02
0.29
-3.27
-6.62
-9.87
-13.18
-16.77
-20.87
-25.62
-30.94
-36.42
-41.41
-45.18
-47.04
-46.62
-43.86
-39.05
-32.72
-25.49
-17.95
-10.56
-3.60
2.80
8.59
13.73
18.10
21.58
24.09
25.73
26.77
27.52
28.28
29.12
29.94
30.54
30.70
30.31
29.36
27.95
26.20
24.25
22.15
19.84
17.24
14.19
10.68
6.81
2.85
-0.96
-4.42
-7.62
-10.80
-14.35
-18.58
-23.60
-29.19
-34.84
-39.87
-43.49
-45.13
-44.46
-41.54
-36.79
-30.81
-24.20
-17.38
-10.58
-3.87
2.67
8.89
14.52
19.28
22.95
25.51
27.12
28.09
28.76
29.36
30.00
30.56
30.88
30.79
30.21
29.19
27.81
26.14
24.17
21.81
18.98
15.71
12.15
8.55
5.12
1.93
-1.11
-4.22
-7.59
-11.35
-15.51
-20.02
-24.82
-29.85
-34.94
-39.78
-43.85
-46.50
-47.08
-45.29
-41.28
-35.68
-29.31
-22.93
-16.92
-11.29
-5.83
-0.40
4.94
9.89
14.09
17.30
19.51
20.94
21.93
22.78
23.67
24.65
25.66
26.54
27.09
27.19
26.76
25.88
24.67
23.19
21.45
19.40
17.01
14.34
11.57
8.91
6.51
4.39
2.39
0.23
-2.42
-5.87
-10.23
-15.39
-20.97
-26.39
-30.95
-34.01
-35.06
-33.87
-30.49
-25.25
-18.80
-11.88
-5.20
0.79
5.88
10.16
13.75
16.72
19.05
20.68
21.62
22.03
22.21
22.39
22.72
23.18
23.66
24.01
24.11
23.92
23.44
22.66
21.60
20.21
18.40
16.04
12.99
9.26
4.99
0.50
-3.85
-7.84
-11.42
-14.78
-18.21
-22.01
-26.37
-31.26
-36.41
-41.32
-45.30
-47.68
-47.97
-45.96
-41.82
-36.08
-29.33
-22.17
-15.07
-8.24
-1.81
4.14
9.52
14.16
17.88
20.59
22.38
23.50
24.30
25.08
25.98
26.94
27.71
28.08
27.99
27.52
26.90
26.34
25.87
25.36
24.55
23.14
20.98
18.08
14.65
11.00
7.45
4.13
1.00
-2.22
-5.91
-10.38
-15.75
-21.87
-28.31
-34.43
-39.56
-43.10
-44.60
-43.84
-40.90
-36.13
-30.12
-23.51
-16.96
-10.92
-5.66
-1.22
2.45
5.43
7.77
9.56
10.90
11.99
13.01
14.14
15.42
16.70
17.74
18.33
18.35
17.93
17.30
16.65
16.00
15.21
14.00
12.21
9.85
7.15
4.42
1.82
-0.63
-3.04
-5.57
-8.38
-11.55
-15.20
-19.41
-24.15
-29.13
-33.76
-37.24
-38.83
-38.12
-35.17
-30.44
-24.55
-18.10
-11.48
-4.95
1.25
6.80
11.34
14.55
16.36
16.96
16.81
16.48
16.43
16.91
17.88
19.08
20.15
20.76
20.79
20.24
19.23
17.85
16.15
14.09
11.66
8.87
5.82
2.70
-0.33
-3.15
-5.76
-8.32
-11.09
-14.40
-18.46
-23.33
-28.68
-33.94
-38.34
-41.16
-41.90
-40.43
-36.89
-31.71
-25.40
-18.51
-11.54
-4.88
1.24
6.74
11.62
15.95
19.71
22.80
25.04
26.33
26.69
26.33
25.54
24.70
24.05
23.69
23.51
23.29
22.76
21.66
19.86
17.34
14.22
10.70
7.04
3.44
-0.02
-3.38
-6.83
-10.54
-14.68
-19.25
-24.07
-28.74
-32.79
-35.63
-36.74
-35.78
-32.67
-27.67
-21.30
-14.22
-7.03
-0.21
5.98
11.38
15.89
19.53
22.38
24.60
26.40
27.96
29.38
30.67
31.77
32.63
33.17
33.27
32.81
31.69
29.92
27.61
24.98
22.18
19.22
16.05
12.58
8.84
4.98
1.16
-2.54
-6.24
-10.16
-14.49
-19.26
-24.30
-29.31
-33.92
-37.74
-40.38
-41.49
-40.79
-38.23
-34.03
-28.68
-22.79
-16.86
-11.16
-5.73
-0.54
4.43
9.03
13.02
16.13
18.29
19.62
20.43
21.07
21.80
22.68
23.53
24.09
24.09
23.46
22.30
20.78
19.04
17.12
14.89
12.17
8.88
5.15
1.25
-2.42
-5.57
-8.08
-10.13
-12.06
-14.27
-17.08
-20.54
-24.48
-28.50
-32.08
-34.74
-36.08
-35.82
-33.89
-30.36
-25.55
-19.91
-13.92
-8.00
-2.40
2.73
7.39
11.49
14.93
17.59
19.41
20.44
20.83
20.84
20.65
20.43
20.23
20.08
19.95
19.78
19.50
19.07
18.42
17.50
16.20
14.44
12.17
9.50
6.60
3.72
1.02
-1.48
-3.96
-6.70
-9.98
-13.96
-18.65
-23.84
-29.10
-33.83
-37.31
-38.92
-38.34
-35.59
-31.13
-25.61
-19.64
-13.58
-7.61
-1.75
3.93
9.26
14.00
17.97
21.07
23.33
24.84
25.70
26.04
26.02
25.78
25.53
25.38
25.32
25.26
25.03
24.46
23.48
22.06
20.21
18.02
15.54
12.84
9.96
6.97
3.88
0.74
-2.43
-5.60
-8.80
-12.08
-15.55
-19.37
-23.69
-28.56
-33.88
-39.32
-44.37
-48.36
-50.68
-50.85
-48.75
-44.58
-38.86
-32.23
-25.25
-18.32
-11.64
-5.25
0.79
6.32
11.15
15.04
17.91
19.82
21.01
21.80
22.50
23.32
24.36
25.58
26.83
27.86
28.46
28.46
27.83
26.62
25.03
23.17
21.16
19.01
16.68
14.14
11.39
8.41
5.21
1.87
-1.54
-4.87
-8.03
-10.97
-13.81
-16.77
-20.07
-23.80
-27.88
-32.02
-35.84
-38.95
-40.98
-41.67
-40.80
-38.27
-34.15
-28.66
-22.21
-15.31
-8.45
-2.04
3.71
8.68
12.81
16.00
18.15
19.25
19.43
19.04
18.51
18.23
18.50
19.35
20.69
22.29
23.89
25.25
26.20
26.55
26.18
25.04
23.16
20.65
17.70
14.52
11.19
7.75
4.15
0.38
-3.50
-7.30
-10.82
-13.92
-16.66
-19.34
-22.34
-25.92
-29.99
-34.09
-37.42
-39.16
-38.75
-36.03
-31.30
-25.12
-18.14
-10.94
-3.95
2.50
8.11
12.60
15.78
17.57
18.17
17.97
17.48
17.14
17.18
17.66
18.43
19.32
20.15
20.82
21.23
21.32
20.99
20.18
18.81
16.81
14.16
10.84
6.94
2.65
-1.75
-5.93
-9.63
-12.75
-15.40
-17.88
-20.58
-23.80
-27.72
-32.23
-36.94
-41.26
-44.48
-45.95
-45.25
-42.33
-37.52
-31.42
-24.80
-18.31
-12.45
-7.40
-3.12
0.58
3.90
7.01
10.02
12.97
15.85
18.57
20.95
22.72
23.61
23.49
22.47
20.90
19.24
17.88
16.98
16.40
15.84
14.98
13.65
11.91
9.90
7.74
5.44
2.87
-0.14
-3.64
-7.53
-11.59
-15.60
-19.44
-23.19
-26.99
-30.90
-34.74
-38.09
-40.36
-40.96
-39.57
-36.25
-31.33
-25.45
-19.22
-13.14
-7.48
-2.23
2.69
7.40
11.88
15.99
19.53
22.32
24.31
25.59
26.29
26.55
26.44
25.95
25.13
24.11
23.06
22.15
21.40
20.69
19.77
18.38
16.34
13.63
10.33
6.64
2.73
-1.22
-5.05
-8.64
-12.00
-15.25
-18.62
-22.33
-26.45
-30.75
-34.75
-37.79
-39.27
-38.77
-36.28
-32.08
-26.74
-20.85
-14.93
-9.27
-4.00
0.87
5.34
9.39
12.91
15.79
17.96
19.48
20.43
20.97
21.20
21.21
21.07
20.81
20.46
20.00
19.34
18.32
16.79
14.66
11.95
8.81
5.49
2.19
-1.01
-4.22
-7.65
-11.47
-15.70
-20.16
-24.56
-28.51
-31.69
-33.78
-34.53
-33.75
-31.37
-27.55
-22.66
-17.21
-11.67
-6.42
-1.58
2.80
6.73
10.10
12.77
14.63
15.67
16.05
16.05
15.91
15.77
15.61
15.33
14.79
13.91
12.70
11.20
9.47
7.50
5.23
2.60
-0.39
-3.66
-7.04
-10.43
-13.82
-17.26
-20.78
-24.25
-27.24
-29.17
-29.47
-27.79
-24.19
-19.05
-13.00
-6.69
-0.63
4.86
9.59
13.45
16.36
18.31
19.37
19.74
19.74
19.69
19.81
20.17
20.65
21.00
20.94
20.29
19.05
17.32
15.26
13.00
10.60
7.98
5.09
1.87
-1.72
-5.64
-9.81
-14.07
-18.19
-21.81
-24.55
-25.98
-25.79
-23.85
-20.30
-15.52
-10.01
-4.31
1.15
6.09
10.35
13.93
16.83
19.08
20.65
21.52
21.75
21.53
21.13
20.84
20.80
20.91
20.91
20.43
19.23
17.29
14.78
11.97
9.07
6.18
3.25
0.21
-3.03
-6.49
-10.22
-14.21
-18.39
-22.54
-26.27
-29.06
-30.34
-29.77
-27.25
-23.03
-17.62
-11.62
-5.55
0.23
5.54
10.36
14.68
18.49
21.69
24.17
25.90
26.94
27.46
27.63
27.59
27.36
26.86
26.01
24.79
23.24
21.46
19.53
17.47
15.24
12.75
9.97
6.92
3.69
0.37
-3.00
-6.51
-10.31
-14.61
-19.49
-24.74
-29.89
-34.29
-37.29
-38.40
-37.47
-34.60
-30.12
-24.46
-18.09
-11.48
-5.08
0.79
5.98
10.49
14.38
17.71
20.43
22.44
23.72
24.32
24.49
24.47
24.47
24.55
24.64
24.60
24.34
23.83
23.06
22.05
20.78
19.20
17.32
15.16
12.80
10.36
7.94
5.56
3.21
0.82
-1.67
-4.31
-7.12
-10.15
-13.41
-16.96
-20.85
-25.13
-29.73
-34.42
-38.79
-42.24
-44.20
-44.24
-42.25
-38.51
-33.54
-27.98
-22.39
-17.04
-12.04
-7.38
-3.08
0.82
4.18
6.97
9.20
10.99
12.50
13.89
15.25
16.58
17.85
18.90
19.56
19.65
19.04
17.71
15.77
13.41
10.85
8.33
5.98
3.88
2.03
0.38
-1.15
-2.66
-4.15
-5.60
-6.94
-8.12
-9.18
-10.29
-11.73
-13.75
-16.54
-20.05
-24.00
-27.89
-31.10
-33.01
-33.22
-31.63
-28.48
-24.22
-19.45
-14.62
-10.11
-6.06
-2.49
0.60
3.19
5.25
6.72
7.62
8.07
8.32
8.64
9.20
10.03
10.98
11.81
12.29
12.29
11.80
10.88
9.54
7.75
5.50
2.85
0.02
-2.70
-4.99
-6.71
-7.94
-9.02
-10.34
-12.27
-14.93
-18.18
-21.61
-24.69
-26.88
-27.80
-27.31
-25.42
-22.35
-18.31
-13.58
-8.44
-3.18
1.88
6.41
10.14
12.93
14.77
15.83
16.29
16.43
16.43
16.38
16.29
16.06
15.60
14.86
13.84
12.67
11.44
10.21
8.96
7.57
5.88
3.82
1.37
-1.35
-4.17
-6.95
-9.66
-12.40
-15.37
-18.77
-22.58
-26.55
-30.11
-32.56
-33.31
-32.11
-29.20
-25.19
-20.85
-16.72
-13.04
-9.63
-6.20
-2.51
1.41
5.22
8.50
10.89
12.32
13.01
13.38
13.84
14.59
15.57
16.54
17.17
17.26
16.81
15.91
14.68
13.16
11.29
8.99
6.21
2.97
-0.67
-4.66
-8.98
-13.55
-18.13
-22.31
-25.57
-27.41
-27.58
-26.12
-23.29
-19.44
-14.87
-9.84
-4.54
0.81
5.92
10.58
14.65
18.10
21.00
23.41
25.35
26.81
27.79
28.30
28.45
28.33
28.03
27.56
26.88
25.98
24.78
23.24
21.29
18.88
16.02
12.79
9.37
5.92
2.56
-0.71
-4.07
-7.78
-12.09
-17.09
-22.60
-28.08
-32.77
-35.85
-36.72
-35.23
-31.64
-26.61
-20.88
-15.09
-9.60
-4.48
0.40
5.20
10.04
14.85
19.45
23.59
27.08
29.87
32.01
33.63
34.85
35.70
36.16
36.18
35.74
34.90
33.70
32.22
30.49
28.54
26.35
23.96
21.40
18.78
16.19
13.69
11.18
8.49
5.41
1.80
-2.34
-6.84
-11.52
-16.26
-21.07
-26.01
-31.05
-35.84
-39.77
-42.06
-42.10
-39.69
-35.15
-29.15
-22.49
-15.74
-9.15
-2.68
3.81
10.36
16.81
22.82
28.05
32.18
35.01
36.47
36.60
35.63
33.96
32.16
30.78
30.18
30.30
30.72
30.73
29.74
27.51
24.27
20.64
17.37
14.97
13.50
12.65
11.83
10.53
8.47
5.65
2.30
-1.31
-4.98
-8.60
-12.16
-15.66
-19.07
-22.34
-25.42
-28.24
-30.75
-32.95
-34.84
-36.43
-37.64
-38.25
-37.92
-36.32
-33.27
-28.83
-23.33
-17.26
-11.11
-5.21
0.28
5.35
10.05
14.51
18.77
22.95
27.10
31.23
35.27
39.03
42.24
44.58
45.85
45.87
44.64
42.23
38.88
34.97
30.97
27.35
24.43
22.23
20.47
18.65
16.27
12.99
8.81
3.96
-1.17
-6.27
-11.15
-15.82
-20.42
-25.06
-29.81
-34.52
-38.89
-42.43
-44.62
-45.06
-43.57
-40.29
-35.62
-30.17
-24.51
-19.05
-14.00
-9.37
-5.10
-1.16
2.40
5.47
7.96
9.83
11.14
12.10
12.89
13.65
14.40
15.10
15.67
16.01
16.03
15.65
14.76
13.30
11.31
9.05
6.96
5.52
5.06
5.53
6.46
7.11
6.78
5.11
2.20
-1.40
-5.05
-8.29
-10.99
-13.34
-15.68
-18.17
-20.75
-23.04
-24.62
-25.19
-24.68
-23.28
-21.27
-18.93
-16.34
-13.46
-10.19
-6.51
-2.56
1.34
4.82
7.59
9.53
10.72
11.35
11.64
11.76
11.86
11.95
12.06
12.17
12.27
12.38
12.50
12.59
12.60
12.45
12.07
11.45
10.59
9.41
7.74
5.41
2.34
-1.27
-5.03
-8.43
-11.09
-12.97
-14.35
-15.68
-17.31
-19.39
-21.84
-24.41
-26.89
-29.05
-30.63
-31.30
-30.77
-28.90
-25.78
-21.74
-17.25
-12.70
-8.38
-4.40
-0.78
2.45
5.19
7.31
8.74
9.47
9.67
9.55
9.37
9.23
9.12
8.94
8.58
8.02
7.34
6.66
6.10
5.66
5.20
4.59
3.71
2.55
1.22
-0.21
-1.67
-3.19
-4.85
-6.70
-8.76
-10.97
-13.28
-15.62
-17.93
-20.16
-22.17
-23.77
-24.68
-24.61
-23.39
-21.02
-17.72
-13.88
-9.92
-6.18
-2.83
0.07
2.54
4.59
6.20
7.33
7.99
8.26
8.33
8.40
8.63
9.08
9.62
10.03
10.07
9.56
8.47
6.96
5.30
3.71
2.29
0.99
-0.32
-1.76
-3.33
-5.00
-6.68
-8.39
-10.20
-12.27
-14.72
-17.52
-20.47
-23.21
-25.35
-26.51
-26.52
-25.34
-23.11
-20.09
-16.59
-12.87
-9.18
-5.69
-2.59
0.00
1.98
3.30
4.04
4.35
4.38
4.28
4.13
4.00
3.92
3.89
3.97
4.15
4.45
4.78
5.00
4.96
4.49
3.57
2.25
0.68
-1.01
-2.77
-4.65
-6.69
-8.89
-11.12
-13.26
-15.22
-17.08
-19.00
-21.05
-23.11
-24.78
-25.52
-24.91
-22.81
-19.46
-15.33
-10.93
-6.68
-2.83
0.51
3.30
5.55
7.34
8.73
9.83
10.71
11.43
12.02
12.50
12.86
13.11
13.23
13.21
13.02
12.63
11.98
11.00
9.67
7.97
5.98
3.83
1.65
-0.46
-2.49
-4.56
-6.85
-9.53
-12.71
-16.32
-20.17
-23.85
-26.92
-28.91
-29.49
-28.53
-26.13
-22.62
-18.46
-14.13
-10.01
-6.32
-3.06
-0.12
2.66
5.32
7.77
9.80
11.23
11.99
12.24
12.22
12.18
12.27
12.48
12.68
12.70
12.38
11.67
10.54
9.03
7.24
5.20
2.99
0.57
-2.08
-4.99
-8.21
-11.70
-15.45
-19.38
-23.31
-26.95
-29.90
-31.62
-31.66
-29.82
-26.18
-21.21
-15.55
-9.81
-4.46
0.28
4.35
7.80
10.71
13.12
15.12
16.77
18.17
19.40
20.50
21.40
22.02
22.24
22.04
21.44
20.58
19.56
18.42
17.05
15.25
12.86
9.87
6.48
3.01
-0.23
-3.09
-5.70
-8.29
-11.10
-14.29
-17.85
-21.65
-25.48
-29.06
-32.08
-34.16
-34.90
-34.01
-31.40
-27.27
-22.05
-16.34
-10.73
-5.72
-1.52
1.86
4.63
6.98
9.05
10.83
12.25
13.25
13.84
14.14
14.32
14.52
14.83
15.29
15.81
16.27
16.50
16.34
15.65
14.34
12.45
10.08
7.44
4.77
2.26
0.03
-1.99
-4.02
-6.41
-9.46
-13.26
-17.52
-21.64
-24.75
-26.09
-25.21
-22.10
-17.21
-11.25
-5.01
0.87
6.00
10.21
13.57
16.22
18.34
20.01
21.28
22.15
22.66
22.93
23.14
23.43
23.81
24.18
24.32
24.09
23.47
22.50
21.25
19.68
17.67
15.15
12.15
8.90
5.66
2.63
-0.23
-3.18
-6.52
-10.47
-14.93
-19.57
-23.86
-27.26
-29.30
-29.68
-28.29
-25.23
-20.76
-15.29
-9.29
-3.24
2.48
7.57
11.86
15.33
18.08
20.29
22.18
23.91
25.52
26.94
28.05
28.74
28.97
28.77
28.22
27.38
26.28
24.91
23.23
21.19
18.76
15.96
12.80
9.37
5.75
2.03
-1.75
-5.64
-9.81
-14.45
-19.64
-25.24
-30.78
-35.56
-38.76
-39.74
-38.22
-34.37
-28.74
-22.03
-14.91
-7.87
-1.19
4.95
10.43
15.13
18.93
21.79
23.78
25.04
25.80
26.28
26.67
27.06
27.42
27.62
27.51
26.97
25.91
24.35
22.37
20.08
17.57
14.90
12.08
9.15
6.13
3.08
0.06
-2.93
-6.01
-9.40
-13.35
-17.96
-23.12
-28.38
-33.01
-36.16
-37.21
-35.89
-32.39
-27.26
-21.23
-14.95
-8.89
-3.29
1.82
6.55
10.96
15.04
18.66
21.62
23.73
24.98
25.55
25.73
25.79
25.88
25.92
25.73
25.11
23.99
22.49
20.81
19.09
17.36
15.49
13.27
10.61
7.57
4.41
1.43
-1.17
-3.43
-5.67
-8.35
-11.86
-16.36
-21.66
-27.29
-32.57
-36.84
-39.52
-40.18
-38.67
-35.09
-29.79
-23.34
-16.36
-9.42
-2.95
2.79
7.71
11.79
15.05
17.55
19.38
20.68
21.65
22.45
23.21
23.96
24.70
25.36
25.86
26.11
26.01
25.48
24.45
22.87
20.73
18.03
14.83
11.23
7.38
3.48
-0.25
-3.63
-6.59
-9.22
-11.75
-14.51
-17.78
-21.72
-26.25
-31.04
-35.53
-39.06
-40.99
-40.92
-38.75
-34.75
-29.41
-23.30
-16.94
-10.69
-4.80
0.55
5.23
9.17
12.38
14.96
17.03
18.69
19.96
20.84
21.31
21.47
21.43
21.27
21.00
20.54
19.75
18.58
17.03
15.18
13.08
10.80
8.40
5.94
3.53
1.23
-1.00
-3.35
-6.12
-9.54
-13.64
-18.10
-22.34
-25.68
-27.51
-27.46
-25.50
-21.84
-16.89
-11.12
-4.97
1.19
7.04
12.33
16.83
20.33
22.68
23.85
23.95
23.25
22.11
20.88
19.81
18.99
18.32
17.62
16.65
15.22
13.23
10.67
7.66
4.33
0.82
-2.76
-6.36
-9.98
-13.64
-17.39
-21.25
-25.22
-29.23
-33.10
-36.49
-39.00
-40.16
-39.63
-37.18
-32.87
-27.07
-20.38
-13.56
-7.29
-2.04
2.01
4.94
6.99
8.36
9.22
9.71
10.00
10.30
10.78
11.49
12.32
12.95
13.08
12.48
11.16
9.30
7.23
5.17
3.25
1.41
-0.50
-2.67
-5.28
-8.41
-12.01
-15.87
-19.58
-22.63
-24.46
-24.65
-23.04
-19.75
-15.17
-9.81
-4.18
1.31
6.35
10.70
14.18
16.68
18.20
18.88
18.98
18.77
18.49
18.27
18.08
17.83
17.34
16.42
14.92
12.82
10.24
7.40
4.54
1.76
-1.03
-4.07
-7.65
-11.93
-16.84
-22.09
-27.26
-31.83
-35.26
-37.05
-36.82
-34.43
-30.07
-24.22
-17.55
-10.68
-4.09
2.00
7.49
12.34
16.48
19.74
22.01
23.19
23.37
22.78
21.71
20.50
19.39
18.47
17.67
16.81
15.68
14.16
12.26
10.06
7.67
5.18
2.54
-0.33
-3.57
-7.22
-11.33
-15.83
-20.54
-25.16
-29.24
-32.24
-33.64
-33.09
-30.49
-26.02
-20.07
-13.15
-5.74
1.69
8.71
14.97
20.16
24.15
26.98
28.84
30.01
30.73
31.22
31.58
31.84
32.01
32.02
31.80
31.24
30.30
28.99
27.37
25.46
23.24
20.60
17.44
13.75
9.65
5.35
1.08
-3.05
-7.07
-11.14
-15.44
-20.16
-25.40
-31.12
-37.06
-42.71
-47.44
-50.53
-51.45
-50.00
-46.36
-41.03
-34.62
-27.73
-20.74
-13.89
-7.26
-0.99
4.79
9.88
14.12
17.36
19.57
20.85
21.45
21.68
21.88
22.32
23.07
24.07
25.07
25.80
26.05
25.73
24.88
23.58
21.95
20.07
18.00
15.81
13.58
11.35
9.11
6.83
4.42
1.84
-0.94
-3.90
-6.95
-10.05
-13.18
-16.43
-19.97
-23.99
-28.48
-33.17
-37.45
-40.54
-41.75
-40.69
-37.44
-32.39
-26.17
-19.34
-12.35
-5.50
0.98
6.87
11.99
16.16
19.32
21.52
22.92
23.79
24.46
25.24
26.28
27.57
28.86
29.86
30.25
29.96
29.00
27.54
25.74
23.72
21.55
19.28
16.97
14.66
12.36
9.98
7.40
4.58
1.48
-1.85
-5.35
-8.95
-12.66
-16.49
-20.52
-24.81
-29.36
-34.06
-38.61
-42.56
-45.34
-46.42
-45.45
-42.35
-37.33
-30.85
-23.48
-15.83
-8.37
-1.42
4.89
10.56
15.61
20.07
23.90
27.05
29.54
31.41
32.75
33.67
34.21
34.44
34.43
34.24
33.88
33.27
32.24
30.66
28.46
25.79
22.90
20.08
17.49
15.09
12.69
10.10
7.22
4.12
0.96
-2.13
-5.13
-8.18
-11.55
-15.48
-20.09
-25.32
-30.94
-36.65
-42.11
-46.99
-50.84
-53.16
-53.47
-51.49
-47.22
-41.09
-33.71
-25.77
-17.85
-10.27
-3.21
3.25
9.06
14.16
18.52
22.16
25.20
27.79
30.07
32.05
33.60
34.38
33.96
32.02
28.57
24.02
19.13
14.78
11.63
9.93
9.52
9.91
10.56
11.01
10.90
10.02
8.30
5.78
2.64
-0.83
-4.39
-7.85
-11.24
-14.68
-18.34
-22.36
-26.82
-31.67
-36.77
-41.83
-46.40
-49.86
-51.63
-51.22
-48.49
-43.69
-37.41
-30.38
-23.31
-16.61
-10.38
-4.50
1.21
6.68
11.67
15.76
18.68
20.42
21.39
22.11
23.01
24.18
25.44
26.45
26.99
27.10
26.98
26.83
26.70
26.36
25.53
24.02
21.80
19.13
16.31
13.60
11.09
8.76
6.51
4.27
2.04
-0.16
-2.33
-4.59
-7.09
-10.07
-13.70
-18.03
-22.94
-28.11
-33.06
-37.23
-40.06
-41.09
-40.10
-37.15
-32.53
-26.72
-20.23
-13.52
-6.91
-0.62
5.18
10.39
14.89
18.61
21.52
23.71
25.30
26.51
27.53
28.55
29.57
30.55
31.33
31.74
31.65
30.99
29.83
28.22
26.22
23.79
20.96
17.76
14.31
10.82
7.46
4.32
1.40
-1.35
-4.01
-6.63
-9.28
-12.08
-15.24
-19.08
-23.82
-29.55
-36.07
-42.87
-49.19
-54.18
-57.11
-57.46
-55.16
-50.48
-44.01
-36.46
-28.51
-20.64
-13.13
-6.06
0.61
6.88
12.68
17.84
22.16
25.43
27.62
28.89
29.57
30.07
30.69
31.53
32.51
33.33
33.70
33.45
32.51
30.96
28.95
26.56
23.86
20.90
17.74
14.45
11.13
7.80
4.43
0.92
-2.80
-6.79
-11.01
-15.40
-19.99
-24.84
-30.04
-35.59
-41.26
-46.56
-50.85
-53.49
-54.06
-52.45
-48.88
-43.83
-37.82
-31.32
-24.67
-18.08
-11.71
-5.74
-0.34
4.27
7.97
10.78
12.88
14.61
16.28
18.09
20.03
21.93
23.58
24.77
25.45
25.66
25.45
24.87
23.92
22.54
20.74
18.54
15.95
13.06
9.93
6.68
3.50
0.57
-2.00
-4.27
-6.48
-9.01
-12.15
-16.09
-20.73
-25.83
-30.95
-35.58
-39.16
-41.10
-40.98
-38.59
-34.12
-28.11
-21.30
-14.38
-7.88
-2.04
3.12
7.64
11.54
14.80
17.35
19.23
20.54
21.54
22.46
23.48
24.65
25.88
26.97
27.75
28.09
28.02
27.63
27.05
26.35
25.48
24.28
22.58
20.26
17.35
14.03
10.51
6.98
3.49
-0.01
-3.63
-7.53
-11.79
-16.48
-21.53
-26.78
-31.87
-36.28
-39.40
-40.67
-39.75
-36.68
-31.83
-25.86
-19.45
-13.18
-7.35
-2.03
2.85
7.37
11.52
15.23
18.40
21.03
23.16
24.90
26.32
27.39
28.02
28.12
27.70
26.88
25.84
24.69
23.48
22.12
20.46
18.39
15.85
12.86
9.51
5.98
2.47
-0.90
-4.07
-7.19
-10.56
-14.52
-19.28
-24.78
-30.62
-36.12
-40.47
-42.97
-43.20
-41.09
-36.97
-31.39
-25.05
-18.50
-12.12
-6.04
-0.25
5.28
10.45
15.04
18.78
21.46
23.09
23.85
24.04
23.90
23.61
23.18
22.61
21.81
20.75
19.40
17.74
15.74
13.36
10.60
7.44
3.94
0.18
-3.71
-7.65
-11.58
-15.57
-19.75
-24.23
-28.94
-33.55
-37.46
-40.00
-40.63
-39.18
-35.86
-31.17
-25.72
-20.06
-14.55
-9.41
-4.77
-0.71
2.77
5.67
8.05
9.93
11.31
12.18
12.62
12.79
12.89
13.10
13.46
13.86
14.03
13.73
12.78
11.17
9.07
6.70
4.31
2.04
-0.13
-2.36
-4.89
-7.88
-11.35
-15.06
-18.59
-21.47
-23.31
-23.88
-23.11
-21.00
-17.66
-13.23
-7.97
-2.23
3.59
9.04
13.66
17.06
18.97
19.34
18.38
16.60
14.68
13.28
12.77
13.16
14.06
14.92
15.24
14.75
13.47
11.63
9.52
7.37
5.28
3.23
1.13
-1.16
-3.77
-6.82
-10.37
-14.41
-18.79
-23.13
-26.86
-29.35
-29.99
-28.47
-24.85
-19.59
-13.38
-6.91
-0.72
4.93
10.00
14.56
18.67
22.27
25.25
27.48
28.92
29.66
29.92
29.91
29.78
29.51
28.99
28.05
26.62
24.74
22.55
20.23
17.86
15.44
12.89
10.06
6.88
3.34
-0.50
-4.55
-8.70
-12.91
-17.13
-21.25
-25.05
-28.14
-30.03
-30.32
-28.87
-25.82
-21.66
-16.90
-11.93
-6.88
-1.71
3.63
9.00
14.03
18.25
21.28
23.05
23.77
23.85
23.71
23.61
23.63
23.66
23.57
23.21
22.49
21.39
19.91
18.09
15.94
13.54
10.98
8.34
5.70
3.12
0.60
-1.91
-4.45
-7.10
-9.95
-13.12
-16.68
-20.68
-25.01
-29.39
-33.42
-36.61
-38.61
-39.26
-38.57
-36.65
-33.63
-29.64
-24.84
-19.41
-13.60
-7.66
-1.86
3.56
8.34
12.27
15.22
17.18
18.33
18.98
19.43
19.92
20.48
21.04
21.51
21.83
21.99
21.98
21.75
21.19
20.25
18.89
17.18
15.16
12.91
10.46
7.89
5.31
2.87
0.68
-1.31
-3.27
-5.47
-8.17
-11.48
-15.32
-19.44
-23.50
-27.09
-29.79
-31.21
-31.09
-29.36
-26.15
-21.88
-17.04
-12.09
-7.32
-2.83
1.42
5.47
9.33
12.87
15.99
18.58
20.65
22.28
23.61
24.77
25.84
26.84
27.72
28.36
28.63
28.43
27.73
26.57
25.10
23.46
21.81
20.16
18.45
16.55
14.31
11.69
8.75
5.63
2.48
-0.66
-3.87
-7.22
-10.83
-14.63
-18.52
-22.34
-26.05
-29.65
-33.24
-36.82
-40.27
-43.30
-45.51
-46.53
-46.12
-44.26
-41.17
-37.19
-32.69
-27.92
-22.98
-17.81
-12.31
-6.45
-0.41
5.44
10.67
14.90
17.98
19.98
21.18
21.90
22.44
22.95
23.46
23.95
24.35
24.64
24.75
24.67
24.33
23.65
22.56
21.00
19.03
16.76
14.34
11.86
9.32
6.65
3.73
0.54
-2.87
-6.34
-9.75
-13.04
-16.27
-19.61
-23.17
-26.95
-30.81
-34.47
-37.67
-40.14
-41.67
-42.13
-41.39
-39.43
-36.33
-32.28
-27.58
-22.54
-17.43
-12.44
-7.71
-3.36
0.50
3.74
6.27
8.10
9.35
10.20
10.85
11.49
12.23
13.11
14.07
14.98
15.71
16.12
16.16
15.82
15.16
14.29
13.25
12.04
10.65
9.02
7.11
4.93
2.55
0.06
-2.44
-4.87
-7.18
-9.34
-11.36
-13.34
-15.41
-17.77
-20.56
-23.78
-27.24
-30.57
-33.27
-34.90
-35.12
-33.83
-31.17
-27.44
-23.08
-18.50
-13.99
-9.72
-5.68
-1.82
1.92
5.47
8.65
11.27
13.16
14.32
14.91
15.24
15.54
15.95
16.42
16.78
16.89
16.68
16.27
15.77
15.28
14.77
14.11
13.14
11.79
10.07
8.09
5.97
3.81
1.66
-0.50
-2.67
-4.91
-7.27
-9.87
-12.81
-16.16
-19.88
-23.87
-27.84
-31.46
-34.26
-35.85
-35.93
-34.39
-31.37
-27.20
-22.30
-17.11
-11.96
-7.03
-2.38
2.03
6.28
10.39
14.30
17.85
20.85
23.13
24.66
25.56
26.06
26.41
26.77
27.14
27.40
27.37
26.98
26.24
25.27
24.13
22.83
21.22
19.15
16.57
13.53
10.21
6.78
3.37
-0.03
-3.41
-6.79
-10.10
-13.31
-16.50
-19.84
-23.59
-27.87
-32.58
-37.32
-41.52
-44.55
-45.98
-45.62
-43.53
-40.00
-35.44
-30.26
-24.78
-19.17
-13.46
-7.62
-1.65
4.31
10.03
15.23
19.64
23.16
25.80
27.65
28.84
29.48
29.72
29.71
29.63
29.58
29.56
29.44
29.02
28.13
26.70
24.77
22.44
19.83
17.04
14.11
11.05
7.84
4.42
0.74
-3.21
-7.44
-11.84
-16.35
-21.00
-25.87
-31.06
-36.51
-41.89
-46.60
-49.98
-51.50
-50.98
-48.66
-45.01
-40.55
-35.61
-30.31
-24.57
-18.37
-11.79
-5.14
1.13
6.63
11.08
14.44
16.88
18.70
20.17
21.52
22.80
23.96
24.90
25.52
25.81
25.82
25.66
25.39
24.99
24.36
23.31
21.66
19.34
16.45
13.23
9.96
6.86
3.99
1.27
-1.52
-4.60
-8.15
-12.22
-16.81
-21.77
-26.82
-31.54
-35.37
-37.76
-38.25
-36.69
-33.23
-28.37
-22.69
-16.73
-10.85
-5.22
0.07
4.98
9.40
13.23
16.39
18.92
20.94
22.58
23.97
25.16
26.18
26.98
27.54
27.77
27.55
26.75
25.28
23.14
20.45
17.39
14.13
10.77
7.31
3.78
0.20
-3.37
-6.90
-10.45
-14.17
-18.19
-22.43
-26.56
-29.95
-31.96
-32.09
-30.24
-26.73
-22.10
-16.95
-11.64
-6.33
-0.97
4.44
9.78
14.76
19.00
22.21
24.31
25.42
25.81
25.85
25.84
25.97
26.28
26.70
27.02
27.00
26.40
25.07
23.06
20.55
17.78
14.98
12.21
9.40
6.36
2.90
-1.12
-5.68
-10.64
-15.67
-20.34
-24.16
-26.62
-27.41
-26.39
-23.72
-19.76
-14.90
-9.54
-3.95
1.67
7.13
12.26
16.95
21.07
24.55
27.31
29.28
30.41
30.74
30.46
29.89
29.31
28.84
28.46
27.96
27.14
25.89
24.19
22.07
19.55
16.66
13.44
10.01
6.53
3.12
-0.22
-3.60
-7.22
-11.24
-15.63
-20.24
-24.67
-28.44
-30.97
-31.79
-30.61
-27.45
-22.69
-16.91
-10.73
-4.61
1.20
6.63
11.69
16.33
20.41
23.78
26.32
28.00
28.88
29.08
28.75
28.00
26.95
25.72
24.42
23.17
21.99
20.85
19.64
18.15
16.18
13.59
10.39
6.69
2.74
-1.28
-5.25
-9.17
-13.08
-17.00
-20.88
-24.68
-28.33
-31.77
-34.88
-37.46
-39.22
-39.81
-39.04
-36.87
-33.52
-29.33
-24.66
-19.79
-14.89
-10.08
-5.49
-1.29
2.36
5.37
7.73
9.56
11.01
12.15
12.98
13.43
13.41
12.90
12.04
11.00
9.97
9.11
8.41
7.76
6.95
5.77
4.06
1.78
-0.90
-3.69
-6.22
-8.17
-9.43
-10.24
-11.04
-12.32
-14.34
-17.04
-19.93
-22.34
-23.62
-23.40
-21.69
-18.85
-15.43
-11.91
-8.60
-5.58
-2.82
-0.26
2.03
3.91
5.26
6.08
6.54
6.95
7.55
8.40
9.38
10.16
10.47
10.21
9.48
8.50
7.47
6.51
5.58
4.62
3.55
2.32
0.97
-0.48
-2.01
-3.60
-5.27
-7.01
-8.80
-10.57
-12.21
-13.56
-14.44
-14.76
-14.47
-13.57
-12.12
-10.19
-7.81
-5.07
-2.10
0.90
3.70
6.10
8.05
9.55
10.69
11.52
12.08
12.40
12.47
12.33
12.08
11.78
11.46
11.11
10.64
9.99
9.11
8.02
6.77
5.38
3.82
1.98
-0.21
-2.82
-5.84
-9.13
-12.56
-15.95
-19.12
-21.88
-24.00
-25.26
-25.42
-24.41
-22.27
-19.25
-15.65
-11.79
-7.90
-4.11
-0.50
2.87
5.93
8.64
10.96
12.85
14.28
15.22
15.67
15.76
15.66
15.58
15.62
15.74
15.76
15.51
14.87
13.92
12.83
11.75
10.71
9.61
8.30
6.67
4.75
2.63
0.50
-1.53
-3.43
-5.33
-7.42
-9.88
-12.75
-15.88
-18.93
-21.46
-23.05
-23.50
-22.76
-21.00
-18.53
-15.65
-12.57
-9.37
-6.05
-2.52
1.18
5.00
8.71
12.05
14.82
16.92
18.35
19.23
19.70
19.92
20.01
20.12
20.25
20.38
20.42
20.21
19.70
18.89
17.87
16.80
15.75
14.73
13.70
12.57
11.30
9.92
8.44
6.89
5.20
3.28
1.05
-1.53
-4.38
-7.34
-10.18
-12.74
-14.94
-16.90
-18.85
-21.02
-23.57
-26.45
-29.45
-32.19
-34.29
-35.38
-35.24
-33.80
-31.17
-27.67
-23.74
-19.77
-16.00
-12.44
-8.89
-5.17
-1.25
2.65
6.22
9.15
11.36
12.94
14.11
15.08
15.93
16.66
17.24
17.66
17.93
18.05
17.98
17.61
16.88
15.79
14.44
12.99
11.52
10.03
8.39
6.45
4.13
1.49
-1.36
-4.23
-6.97
-9.54
-12.02
-14.63
-17.66
-21.35
-25.77
-30.70
-35.63
-39.85
-42.67
-43.69
-42.91
-40.67
-37.56
-34.11
-30.70
-27.43
-24.27
-21.14
-17.99
-14.85
-11.86
-9.11
-6.69
-4.54
-2.55
-0.61
1.28
3.00
4.39
5.38
6.01
6.46
6.93
7.53
8.18
8.72
8.99
8.90
8.46
7.70
6.66
5.40
4.00
2.59
1.22
-0.11
-1.58
-3.43
-5.80
-8.70
-11.87
-14.96
-17.64
-19.67
-20.90
-21.18
-20.36
-18.27
-14.95
-10.67
-5.91
-1.25
2.85
6.22
8.91
11.11
13.09
14.96
16.82
18.63
20.40
22.09
23.61
24.85
25.66
25.94
25.70
25.04
24.10
23.00
21.78
20.43
18.90
17.14
15.10
12.76
10.15
7.33
4.36
1.30
-1.79
-4.91
-8.11
-11.42
-14.88
-18.52
-22.32
-26.20
-30.01
-33.53
-36.39
-38.21
-38.63
-37.48
-34.78
-30.81
-25.99
-20.77
-15.53
-10.49
-5.75
-1.32
2.79
6.54
9.86
12.69
15.03
16.94
18.53
19.93
21.17
22.25
23.12
23.72
23.99
23.92
23.42
22.43
20.83
18.55
15.62
12.20
8.52
4.87
1.43
-1.80
-4.95
-8.27
-11.96
-16.08
-20.45
-24.66
-28.22
-30.63
-31.54
-30.79
-28.50
-24.93
-20.52
-15.71
-10.91
-6.40
-2.33
1.30
4.51
7.39
9.94
12.13
13.90
15.22
16.03
16.34
16.16
15.57
14.71
13.75
12.82
11.90
10.89
9.56
7.73
5.32
2.41
-0.78
-3.98
-7.01
-9.79
-12.35
-14.83
-17.42
-20.27
-23.49
-27.11
-30.96
-34.63
-37.57
-39.13
-38.78
-36.27
-31.75
-25.81
-19.20
-12.74
-6.95
-2.00
2.19
5.80
8.94
11.56
13.54
14.83
15.53
15.88
16.18
16.62
17.25
17.97
18.63
19.08
19.18
18.84
18.01
16.69
14.99
13.07
11.12
9.29
7.54
5.68
3.46
0.66
-2.76
-6.59
-10.37
-13.52
-15.41
-15.57
-13.82
-10.32
-5.54
-0.13
5.23
10.05
14.06
17.22
19.62
21.36
22.52
23.13
23.30
23.22
23.10
23.12
23.35
23.69
23.86
23.61
22.72
21.11
18.84
16.09
13.08
10.03
7.05
4.11
1.07
-2.34
-6.31
-10.89
-15.89
-20.93
-25.49
-29.05
-31.26
-31.84
-30.72
-27.93
-23.67
-18.27
-12.22
-6.08
-0.34
4.65
8.83
12.29
15.24
17.81
20.04
21.88
23.26
24.23
24.86
25.26
25.45
25.45
25.14
24.45
23.34
21.81
19.91
17.64
15.07
12.26
9.32
6.29
3.16
-0.28
-4.24
-8.87
-14.06
-19.41
-24.35
-28.24
-30.58
-31.06
-29.60
-26.36
-21.67
-16.02
-10.00
-4.14
1.12
5.63
9.41
12.61
15.37
17.71
19.56
20.81
21.36
21.23
20.50
19.37
18.00
16.58
15.20
13.84
12.42
10.78
8.83
6.53
3.91
1.04
-2.02
-5.20
-8.44
-11.67
-14.89
-18.18
-21.67
-25.50
-29.61
-33.70
-37.18
-39.34
-39.61
-37.70
-33.84
-28.56
-22.58
-16.51
-10.78
-5.59
-0.98
3.01
6.31
8.85
10.56
11.50
11.90
12.04
12.22
12.60
13.19
13.81
14.25
14.32
13.93
13.09
11.89
10.43
8.80
7.02
5.04
2.82
0.24
-2.75
-6.21
-10.11
-14.31
-18.50
-22.26
-25.05
-26.35
-25.82
-23.38
-19.24
-13.93
-8.08
-2.25
3.17
8.04
12.38
16.23
19.55
22.18
24.00
24.99
25.33
25.35
25.35
25.47
25.59
25.38
24.53
22.89
20.56
17.83
15.00
12.21
9.39
6.36
2.90
-1.06
-5.42
-10.01
-14.65
-19.20
-23.57
-27.56
-30.80
-32.80
-33.11
-31.47
-27.96
-22.98
-17.12
-10.95
-4.88
0.87
6.22
11.10
15.38
18.91
21.53
23.21
24.09
24.39
24.42
24.36
24.25
24.00
23.44
22.40
20.86
18.83
16.42
13.67
10.62
7.28
3.70
-0.11
-4.14
-8.47
-13.19
-18.32
-23.68
-28.85
-33.23
-36.20
-37.30
-36.34
-33.42
-28.89
-23.21
-16.85
-10.22
-3.65
2.61
8.37
13.48
17.80
21.21
23.66
25.16
25.85
25.95
25.75
25.48
25.25
25.02
24.61
23.78
22.31
20.15
17.35
14.10
10.61
7.04
3.46
-0.16
-3.93
-8.01
-12.57
-17.64
-23.16
-28.86
-34.28
-38.84
-41.92
-43.02
-41.88
-38.53
-33.29
-26.71
-19.45
-12.15
-5.34
0.63
5.61
9.61
12.70
14.97
16.50
17.43
17.97
18.39
18.94
19.70
20.56
21.19
21.22
20.41
18.75
16.49
13.92
11.30
8.69
6.06
3.32
0.44
-2.56
-5.67
-8.96
-12.54
-16.48
-20.62
-24.53
-27.53
-28.86
-28.00
-24.82
-19.69
-13.33
-6.58
-0.12
5.65
10.59
14.72
18.06
20.58
22.22
23.00
23.11
22.82
22.52
22.44
22.64
22.98
23.15
22.88
21.94
20.28
18.01
15.33
12.49
9.68
6.97
4.33
1.60
-1.43
-4.96
-9.13
-13.88
-18.94
-23.79
-27.75
-30.08
-30.28
-28.16
-23.97
-18.30
-11.90
-5.45
0.56
5.90
10.54
14.51
17.84
20.52
22.52
23.90
24.80
25.44
26.03
26.65
27.21
27.41
26.98
25.72
23.69
21.08
18.15
15.12
12.07
8.97
5.77
2.38
-1.32
-5.38
-9.90
-14.89
-20.24
-25.62
-30.55
-34.40
-36.53
-36.48
-34.11
-29.61
-23.53
-16.56
-9.40
-2.59
3.61
9.10
13.91
18.02
21.42
24.01
25.78
26.70
26.84
26.39
25.60
24.76
24.09
23.69
23.46
23.16
22.44
21.02
18.75
15.67
11.95
7.86
3.67
-0.43
-4.37
-8.22
-12.20
-16.52
-21.34
-26.56
-31.82
-36.56
-40.11
-41.89
-41.51
-38.90
-34.30
-28.26
-21.49
-14.72
-8.53
-3.24
1.11
4.66
7.59
10.02
11.91
13.20
13.85
13.95
13.68
13.22
12.70
12.13
11.51
10.79
9.98
9.11
8.14
7.00
5.56
3.69
1.32
-1.49
-4.61
-7.89
-11.18
-14.50
-17.95
-21.71
-25.83
-30.27
-34.69
-38.61
-41.42
-42.53
-41.54
-38.40
-33.41
-27.19
-20.49
-13.95
-8.00
-2.75
1.86
5.95
9.55
12.59
15.01
16.85
18.25
19.47
20.63
21.75
22.68
23.21
23.21
22.66
21.63
20.21
18.48
16.44
14.08
11.42
8.52
5.43
2.26
-0.96
-4.26
-7.72
-11.44
-15.46
-19.65
-23.66
-26.92
-28.78
-28.74
-26.57
-22.47
-16.96
-10.73
-4.38
1.65
7.12
11.90
15.88
18.93
20.93
21.85
21.86
21.27
20.48
19.82
19.49
19.43
19.41
19.11
18.23
16.65
14.42
11.75
8.91
6.16
3.60
1.21
-1.22
-3.97
-7.31
-11.37
-16.07
-21.11
-26.00
-30.14
-32.91
-33.84
-32.62
-29.23
-23.96
-17.38
-10.19
-3.07
3.46
9.16
13.95
17.90
21.07
23.51
25.25
26.32
26.82
26.86
26.55
26.00
25.23
24.26
23.05
21.56
19.78
17.71
15.41
12.97
10.42
7.73
4.76
1.42
-2.36
-6.52
-10.93
-15.53
-20.26
-25.05
-29.67
-33.65
-36.31
-37.02
-35.43
-31.67
-26.25
-19.95
-13.45
-7.21
-1.39
3.98
8.89
13.30
17.11
20.24
22.63
24.31
25.32
25.72
25.56
24.90
23.83
22.48
20.95
19.36
17.77
16.16
14.43
12.47
10.15
7.44
4.42
1.20
-2.08
-5.42
-8.92
-12.76
-17.04
-21.70
-26.44
-30.81
-34.33
-36.53
-37.09
-35.83
-32.74
-28.00
-22.00
-15.29
-8.48
-2.11
3.49
8.26
12.31
15.78
18.73
21.06
22.58
23.23
23.11
22.56
21.90
21.38
20.97
20.49
19.65
18.33
16.55
14.43
12.10
9.55
6.71
3.51
-0.00
-3.71
-7.47
-11.28
-15.29
-19.70
-24.59
-29.74
-34.66
-38.64
-40.93
-41.00
-38.66
-34.17
-28.16
-21.47
-14.97
-9.30
-4.79
-1.44
1.01
2.86
4.34
5.60
6.66
7.53
8.23
8.77
9.13
9.25
9.06
8.50
7.61
6.49
5.27
4.06
2.88
1.72
0.48
-0.92
-2.59
-4.58
-7.00
-9.91
-13.35
-17.20
-21.22
-24.97
-27.91
-29.54
-29.53
-27.77
-24.41
-19.83
-14.56
-9.10
-3.92
0.67
4.48
7.47
9.67
11.20
12.23
12.93
13.46
13.97
14.53
15.16
15.82
16.39
16.77
16.85
16.57
15.90
14.89
13.55
11.93
10.00
7.75
5.14
2.12
-1.32
-5.19
-9.41
-13.76
-17.89
-21.37
-23.70
-24.51
-23.60
-21.00
-16.96
-11.91
-6.37
-0.84
4.22
8.53
11.94
14.51
16.37
17.67
18.52
19.01
19.22
19.21
19.00
18.63
18.03
17.12
15.82
14.08
11.95
9.56
7.09
4.66
2.26
-0.20
-2.92
-6.09
-9.78
-13.90
-18.20
-22.26
-25.60
-27.77
-28.42
-27.39
-24.79
-20.90
-16.13
-10.89
-5.50
-0.23
4.78
9.31
13.16
16.14
18.22
19.48
20.16
20.50
20.63
20.58
20.27
19.66
18.76
17.64
16.39
15.02
13.50
11.75
9.75
7.46
4.90
2.06
-1.15
-4.85
-9.09
-13.80
-18.69
-23.20
-26.68
-28.50
-28.28
-26.02
-22.08
-17.06
-11.63
-6.30
-1.36
3.07
6.99
10.43
13.38
15.88
17.91
19.48
20.57
21.16
21.23
20.77
19.87
18.61
17.10
15.41
13.56
11.51
9.24
6.76
4.10
1.28
-1.71
-5.01
-8.76
-13.05
-17.79
-22.64
-27.07
-30.50
-32.50
-32.81
-31.43
-28.51
-24.32
-19.18
-13.49
-7.65
-2.04
3.01
7.32
10.82
13.51
15.44
16.67
17.29
17.48
17.42
17.29
17.10
16.77
16.11
14.95
13.21
10.94
8.26
5.36
2.37
-0.63
-3.63
-6.67
-9.85
-13.32
-17.23
-21.58
-26.22
-30.77
-34.65
-37.27
-38.21
-37.33
-34.80
-31.06
-26.56
-21.74
-16.88
-12.18
-7.80
-3.89
-0.60
1.96
3.81
5.09
6.00
6.79
7.60
8.48
9.34
10.09
10.62
10.82
10.61
9.95
8.83
7.30
5.48
3.55
1.64
-0.25
-2.23
-4.53
-7.35
-10.75
-14.54
-18.32
-21.55
-23.66
-24.20
-22.95
-20.01
-15.75
-10.71
-5.43
-0.38
4.21
8.19
11.53
14.14
15.94
16.96
17.33
17.37
17.46
17.83
18.48
19.17
19.50
19.16
18.09
16.42
14.48
12.56
10.80
9.16
7.46
5.49
3.04
-0.01
-3.73
-8.03
-12.66
-17.16
-20.90
-23.21
-23.60
-21.91
-18.38
-13.60
-8.23
-2.86
2.18
6.75
10.82
14.40
17.46
20.00
21.98
23.39
24.19
24.34
23.87
22.86
21.50
20.01
18.59
17.25
15.91
14.42
12.67
10.63
8.35
5.84
3.05
-0.13
-3.81
-8.00
-12.59
-17.36
-22.01
-26.16
-29.43
-31.46
-31.98
-30.82
-28.00
-23.72
-18.30
-12.21
-5.91
0.20
5.83
10.81
15.09
18.63
21.42
23.43
24.64
25.12
25.02
24.53
23.89
23.29
22.79
22.40
22.01
21.48
20.64
19.27
17.24
14.48
11.06
7.18
3.10
-0.96
-4.91
-8.75
-12.63
-16.65
-20.85
-25.14
-29.28
-32.91
-35.61
-36.94
-36.56
-34.29
-30.17
-24.57
-18.01
-11.15
-4.58
1.34
6.41
10.63
14.07
16.83
18.95
20.50
21.56
22.30
22.82
23.22
23.50
23.55
23.24
22.53
21.46
20.14
18.68
17.09
15.30
13.18
10.59
7.52
4.03
0.30
-3.51
-7.23
-10.78
-14.23
-17.69
-21.39
-25.52
-30.12
-35.00
-39.76
-43.83
-46.68
-47.88
-47.23
-44.83
-40.94
-35.99
-30.44
-24.71
-19.13
-13.90
-9.16
-4.99
-1.47
1.34
3.43
4.97
6.19
7.35
8.60
9.99
11.38
12.60
13.53
14.11
14.38
14.36
14.04
13.34
12.17
10.46
8.24
5.66
3.00
0.52
-1.55
-3.17
-4.49
-5.79
-7.44
-9.75
-12.85
-16.65
-20.83
-24.84
-28.08
-29.94
-30.06
-28.35
-25.08
-20.77
-16.02
-11.29
-6.89
-2.85
0.90
4.46
7.87
11.04
13.88
16.25
18.10
19.39
20.16
20.43
20.28
19.81
19.19
18.57
18.06
17.62
17.09
16.19
14.68
12.46
9.60
6.36
3.05
-0.10
-3.00
-5.76
-8.60
-11.80
-15.50
-19.60
-23.76
-27.42
-29.93
-30.74
-29.55
-26.40
-21.65
-15.88
-9.73
-3.75
1.69
6.43
10.41
13.66
16.19
18.01
19.16
19.78
20.12
20.49
21.09
21.92
22.78
23.30
23.16
22.21
20.52
18.34
15.94
13.49
11.03
8.53
5.93
3.22
0.40
-2.55
-5.72
-9.28
-13.32
-17.84
-22.56
-27.00
-30.54
-32.58
-32.66
-30.66
-26.78
-21.49
-15.41
-9.14
-3.10
2.43
7.37
11.72
15.51
18.73
21.36
23.38
24.75
25.50
25.72
25.52
25.04
24.35
23.47
22.33
20.87
19.11
17.13
15.04
12.85
10.50
7.79
4.60
0.89
-3.26
-7.67
-12.25
-16.96
-21.82
-26.74
-31.47
-35.53
-38.32
-39.25
-37.98
-34.50
-29.14
-22.55
-15.46
-8.54
-2.22
3.34
8.16
12.35
15.92
18.81
20.90
22.18
22.70
22.67
22.32
21.82
21.30
20.78
20.20
19.46
18.38
16.84
14.78
12.22
9.26
6.04
2.67
-0.79
-4.33
-7.95
-11.64
-15.43
-19.32
-23.32
-27.25
-30.74
-33.24
-34.17
-33.09
-29.95
-25.03
-18.92
-12.32
-5.87
0.02
5.09
9.28
12.63
15.22
17.12
18.41
19.16
19.54
19.72
19.87
20.09
20.31
20.35
19.95
18.88
17.07
14.60
11.65
8.41
5.04
1.62
-1.91
-5.62
-9.68
-14.19
-19.18
-24.55
-30.06
-35.28
-39.73
-42.89
-44.32
-43.74
-41.13
-36.74
-31.01
-24.54
-17.89
-11.53
-5.75
-0.69
3.55
6.91
9.36
10.96
11.84
12.24
12.43
12.59
12.79
12.98
13.03
12.84
12.34
11.59
10.61
9.45
8.05
6.30
4.11
1.40
-1.84
-5.56
-9.71
-14.15
-18.67
-22.91
-26.42
-28.70
-29.37
-28.25
-25.44
-21.26
-16.13
-10.49
-4.74
0.77
5.68
9.70
12.62
14.40
15.21
15.34
15.15
14.93
14.84
14.90
15.03
15.12
15.07
14.80
14.30
13.54
12.53
11.24
9.65
7.63
5.05
1.81
-2.14
-6.67
-11.49
-16.17
-20.18
-23.02
-24.31
-23.84
-21.66
-17.97
-13.15
-7.67
-1.97
3.54
8.56
12.85
16.27
18.70
20.12
20.60
20.40
19.81
19.19
18.75
18.46
18.18
17.67
16.78
15.54
14.06
12.46
10.74
8.73
6.17
2.88
-1.21
-5.94
-10.99
-15.90
-20.17
-23.29
-24.86
-24.65
-22.61
-18.98
-14.11
-8.52
-2.63
3.11
8.41
13.00
16.70
19.44
21.23
22.24
22.67
22.75
22.65
22.42
22.04
21.39
20.35
18.83
16.78
14.27
11.47
8.55
5.61
2.67
-0.42
-3.89
-7.93
-12.62
-17.74
-22.86
-27.35
-30.57
-31.98
-31.31
-28.59
-24.14
-18.47
-12.13
-5.62
0.73
6.67
12.09
16.85
20.88
24.11
26.53
28.22
29.27
29.84
30.03
29.92
29.50
28.71
27.45
25.66
23.36
20.65
17.74
14.77
11.81
8.75
5.41
1.58
-2.89
-7.95
-13.41
-18.91
-24.05
-28.35
-31.42
-32.93
-32.66
-30.54
-26.70
-21.36
-14.90
-7.82
-0.63
6.16
12.18
17.21
21.23
24.36
26.73
28.43
29.50
29.96
29.86
29.33
28.51
27.54
26.47
25.38
24.30
23.22
22.05
20.59
18.56
15.76
12.15
7.90
3.41
-0.99
-5.08
-8.89
-12.72
-16.89
-21.60
-26.78
-32.10
-36.96
-40.71
-42.74
-42.66
-40.37
-36.00
-30.01
-22.97
-15.54
-8.26
-1.54
4.43
9.62
14.07
17.82
20.92
23.38
25.29
26.77
27.95
28.91
29.62
29.97
29.82
29.06
27.65
25.67
23.31
20.79
18.30
15.94
13.63
11.22
8.54
5.52
2.21
-1.23
-4.70
-8.16
-11.72
-15.60
-19.96
-24.83
-30.04
-35.20
-39.78
-43.20
-44.93
-44.59
-42.10
-37.63
-31.66
-24.76
-17.55
-10.48
-3.88
2.09
7.34
11.76
15.26
17.80
19.41
20.28
20.72
21.05
21.52
22.14
22.78
23.15
23.04
22.37
21.21
19.75
18.12
16.35
14.33
11.88
8.97
5.67
2.23
-1.06
-4.02
-6.66
-9.20
-12.00
-15.39
-19.49
-24.19
-29.07
-33.52
-36.91
-38.74
-38.73
-36.86
-33.32
-28.45
-22.66
-16.40
-10.08
-4.03
1.49
6.34
10.45
13.79
16.34
18.13
19.22
19.80
20.04
20.15
20.21
20.17
19.90
19.31
18.36
17.17
15.88
14.59
13.28
11.80
9.91
7.47
4.52
1.26
-2.00
-5.03
-7.78
-10.43
-13.27
-16.56
-20.35
-24.44
-28.36
-31.57
-33.54
-33.91
-32.49
-29.33
-24.66
-18.89
-12.56
-6.25
-0.47
4.44
8.33
11.22
13.25
14.58
15.35
15.72
15.86
15.94
16.08
16.30
16.54
16.66
16.49
15.88
14.74
13.07
10.96
8.62
6.28
4.10
2.10
0.09
-2.24
-5.21
-8.93
-13.34
-18.08
-22.76
-26.91
-30.11
-31.95
-32.10
-30.34
-26.76
-21.78
-16.08
-10.47
-5.57
-1.72
1.10
3.07
4.50
5.56
6.38
6.99
7.41
7.67
7.75
7.56
7.04
6.14
4.91
3.41
1.77
0.06
-1.63
-3.28
-4.83
-6.29
-7.75
-9.40
-11.48
-14.22
-17.67
-21.65
-25.69
-29.16
-31.46
-32.16
-31.15
-28.59
-24.83
-20.29
-15.32
-10.23
-5.21
-0.49
3.73
7.24
9.92
11.74
12.84
13.44
13.75
14.01
14.34
14.80
15.37
15.89
16.20
16.13
15.55
14.48
12.99
11.17
9.10
6.81
4.25
1.37
-1.84
-5.37
-9.12
-12.92
-16.47
-19.34
-21.01
-21.02
-19.08
-15.29
-10.11
-4.25
1.54
6.74
11.10
14.56
17.15
18.82
19.48
19.10
17.88
16.23
14.63
13.49
12.86
12.52
12.10
11.33
10.08
8.46
6.65
4.81
2.97
1.04
-1.12
-3.69
-6.79
-10.50
-14.75
-19.30
-23.70
-27.38
-29.75
-30.35
-29.01
-25.89
-21.38
-16.01
-10.30
-4.68
0.61
5.44
9.73
13.38
16.21
18.06
18.85
18.75
18.06
17.23
16.60
16.32
16.32
16.33
16.06
15.30
13.98
12.16
9.95
7.46
4.76
1.87
-1.22
-4.59
-8.34
-12.52
-16.97
-21.42
-25.35
-28.23
-29.55
-29.05
-26.67
-22.60
-17.20
-10.95
-4.41
1.88
7.45
11.97
15.35
17.67
19.13
19.91
20.16
20.01
19.58
19.02
18.50
18.09
17.76
17.32
16.54
15.23
13.33
10.88
8.05
4.97
1.79
-1.45
-4.72
-8.08
-11.58
-15.31
-19.31
-23.47
-27.51
-30.90
-33.00
-33.23
-31.28
-27.27
-21.72
-15.38
-8.99
-3.12
1.94
6.13
9.48
12.05
13.86
14.94
15.39
15.39
15.15
14.88
14.66
14.42
14.02
13.24
11.96
10.17
7.98
5.53
2.93
0.21
-2.64
-5.63
-8.73
-11.89
-15.10
-18.42
-21.95
-25.72
-29.68
-33.54
-36.82
-38.97
-39.51
-38.18
-35.02
-30.33
-24.62
-18.42
-12.20
-6.29
-0.89
3.86
7.82
10.90
13.11
14.56
15.52
16.25
16.93
17.57
18.10
18.35
18.22
17.68
16.76
15.54
14.12
12.57
10.93
9.16
7.18
4.84
2.01
-1.35
-5.15
-9.15
-13.03
-16.44
-19.06
-20.56
-20.69
-19.18
-16.00
-11.34
-5.63
0.51
6.43
11.65
15.90
19.08
21.24
22.44
22.78
22.46
21.72
20.90
20.22
19.73
19.28
18.62
17.53
15.94
13.93
11.66
9.26
6.75
4.05
1.04
-2.39
-6.28
-10.58
-15.20
-19.97
-24.66
-28.94
-32.34
-34.31
-34.32
-32.04
-27.50
-21.15
-13.76
-6.21
0.72
6.58
11.25
14.82
17.45
19.26
20.28
20.59
20.30
19.63
18.87
18.24
17.81
17.48
17.04
16.22
14.86
12.92
10.51
7.84
5.08
2.36
-0.35
-3.20
-6.40
-10.18
-14.60
-19.51
-24.56
-29.18
-32.77
-34.70
-34.56
-32.15
-27.61
-21.37
-14.06
-6.41
0.90
7.33
12.61
16.63
19.45
21.24
22.16
22.40
22.17
21.73
21.26
20.90
20.65
20.40
19.91
19.00
17.54
15.48
12.91
9.92
6.60
3.02
-0.76
-4.68
-8.71
-12.86
-17.22
-21.93
-27.03
-32.42
-37.69
-42.24
-45.39
-46.54
-45.32
-41.76
-36.28
-29.56
-22.48
-15.76
-9.91
-5.03
-0.95
2.63
5.91
8.92
11.51
13.49
14.80
15.50
15.83
16.01
16.22
16.47
16.58
16.34
15.55
14.12
12.20
10.04
7.92
5.94
4.02
1.86
-0.81
-4.11
-7.94
-12.05
-16.10
-19.85
-23.06
-25.48
-26.81
-26.69
-24.81
-21.07
-15.68
-9.07
-1.87
5.24
11.67
16.98
20.94
23.55
24.96
25.43
25.22
24.59
23.74
22.87
22.08
21.43
20.84
20.10
18.98
17.39
15.35
13.05
10.74
8.55
6.47
4.32
1.88
-1.03
-4.49
-8.51
-12.98
-17.71
-22.31
-26.26
-28.89
-29.58
-27.94
-24.01
-18.23
-11.39
-4.31
2.35
8.27
13.38
17.79
21.57
24.65
26.94
28.33
28.87
28.76
28.28
27.69
27.13
26.62
26.03
25.18
23.87
21.95
19.34
16.10
12.45
8.65
4.94
1.38
-2.10
-5.71
-9.65
-14.00
-18.71
-23.57
-28.33
-32.68
-36.24
-38.50
-38.95
-37.14
-32.91
-26.56
-18.78
-10.47
-2.50
4.55
10.46
15.28
19.24
22.53
25.23
27.38
28.98
30.10
30.78
31.09
31.00
30.47
29.50
28.14
26.54
24.87
23.19
21.46
19.47
16.99
13.89
10.19
6.11
1.96
-1.97
-5.55
-8.86
-12.17
-15.87
-20.26
-25.40
-31.00
-36.44
-40.88
-43.55
-43.95
-41.92
-37.67
-31.67
-24.51
-16.75
-8.88
-1.30
5.71
11.92
17.19
21.38
24.44
26.38
27.35
27.61
27.47
27.21
27.00
26.84
26.60
26.14
25.40
24.41
23.28
22.08
20.75
19.16
17.13
14.56
11.50
8.12
4.58
0.98
-2.68
-6.48
-10.47
-14.62
-18.84
-23.02
-27.14
-31.26
-35.49
-39.81
-44.02
-47.63
-50.01
-50.57
-48.96
-45.17
-39.52
-32.51
-24.74
-16.73
-8.94
-1.77
4.45
9.52
13.34
15.99
17.65
18.61
19.16
19.57
20.05
20.71
21.58
22.54
23.40
23.94
23.96
23.37
22.18
20.45
18.33
15.94
13.38
10.76
8.16
5.69
3.44
1.46
-0.30
-2.10
-4.32
-7.34
-11.33
-16.11
-21.05
-25.28
-27.94
-28.43
-26.65
-22.93
-17.88
-12.15
-6.30
-0.68
4.51
9.16
13.18
16.47
18.96
20.68
21.78
22.45
22.93
23.34
23.72
23.94
23.87
23.43
22.61
21.50
20.21
18.82
17.34
15.68
13.70
11.19
8.06
4.36
0.31
-3.70
-7.35
-10.46
-13.15
-15.78
-18.78
-22.39
-26.54
-30.83
-34.66
-37.42
-38.58
-37.85
-35.18
-30.81
-25.16
-18.80
-12.30
-6.07
-0.30
4.94
9.67
13.82
17.27
19.93
21.79
23.01
23.82
24.44
24.93
25.25
25.23
24.71
23.65
22.10
20.18
18.06
15.81
13.50
11.09
8.51
5.69
2.60
-0.73
-4.27
-8.03
-12.07
-16.43
-21.07
-25.78
-30.20
-33.80
-36.05
-36.51
-34.92
-31.31
-26.05
-19.73
-13.07
-6.66
-0.88
4.19
8.67
12.71
16.36
19.48
21.87
23.33
23.80
23.40
22.43
21.24
20.14
19.27
18.55
17.77
16.63
14.96
12.68
9.84
6.57
2.96
-0.88
-4.85
-8.85
-12.79
-16.61
-20.40
-24.27
-28.33
-32.58
-36.78
-40.53
-43.35
-44.81
-44.59
-42.61
-39.02
-34.21
-28.67
-22.89
-17.24
-11.91
-6.98
-2.53
1.32
4.38
6.54
7.90
8.75
9.51
10.51
11.84
13.32
14.54
15.17
15.02
14.15
12.76
11.14
9.45
7.75
5.93
3.87
1.52
-1.08
-3.75
-6.37
-8.94
-11.62
-14.62
-18.03
-21.66
-24.97
-27.30
-28.04
-26.87
-23.85
-19.34
-13.91
-8.12
-2.42
2.90
7.68
11.82
15.30
18.06
20.03
21.19
21.58
21.34
20.71
19.91
19.11
18.31
17.46
16.47
15.31
14.02
12.68
11.30
9.83
8.13
6.06
3.56
0.62
-2.69
-6.28
-10.07
-14.00
-17.94
-21.72
-25.06
-27.58
-28.81
-28.34
-25.97
-21.81
-16.28
-10.02
-3.71
2.12
7.14
11.23
14.35
16.57
17.95
18.63
18.76
18.60
18.33
18.06
17.82
17.52
17.04
16.28
15.15
13.63
11.73
9.57
7.26
4.90
2.52
0.06
-2.62
-5.65
-9.08
-12.92
-17.05
-21.36
-25.59
-29.38
-32.25
-33.61
-33.00
-30.18
-25.34
-18.98
-11.88
-4.78
1.73
7.34
11.95
15.59
18.35
20.34
21.67
22.44
22.76
22.81
22.71
22.53
22.33
22.07
21.64
20.90
19.71
18.00
15.75
13.03
9.99
6.78
3.53
0.29
-2.97
-6.37
-10.04
-14.08
-18.47
-23.00
-27.34
-31.09
-33.84
-35.22
-35.03
-33.17
-29.77
-25.07
-19.47
-13.42
-7.41
-1.84
3.01
6.99
10.07
12.34
13.88
14.83
15.32
15.50
15.52
15.49
15.42
15.26
14.93
14.35
13.47
12.31
10.90
9.27
7.40
5.22
2.73
-0.02
-2.84
-5.55
-8.05
-10.42
-12.93
-15.88
-19.46
-23.60
-27.90
-31.67
-34.18
-34.82
-33.31
-29.75
-24.53
-18.23
-11.46
-4.75
1.47
6.94
11.51
15.17
18.02
20.23
22.00
23.43
24.53
25.19
25.34
24.96
24.16
23.06
21.77
20.36
18.79
17.04
15.12
13.04
10.80
8.37
5.71
2.81
-0.27
-3.41
-6.59
-9.84
-13.32
-17.10
-21.06
-24.84
-27.80
-29.23
-28.60
-25.70
-20.72
-14.24
-7.04
0.09
6.49
11.78
15.85
18.82
20.89
22.25
23.00
23.26
23.14
22.82
22.46
22.15
21.91
21.63
21.21
20.54
19.56
18.22
16.49
14.39
11.92
9.16
6.20
3.14
0.03
-3.12
-6.34
-9.74
-13.44
-17.47
-21.77
-26.06
-29.89
-32.72
-34.03
-33.54
-31.21
-27.30
-22.25
-16.54
-10.59
-4.73
0.82
5.91
10.45
14.33
17.49
19.90
21.60
22.71
23.42
23.88
24.18
24.34
24.30
24.04
23.52
22.73
21.66
20.28
18.55
16.46
14.01
11.27
8.29
5.12
1.83
-1.55
-4.98
-8.47
-12.07
-15.84
-19.78
-23.80
-27.66
-31.01
-33.44
-34.52
-33.96
-31.63
-27.65
-22.37
-16.29
-9.94
-3.77
1.94
7.02
11.34
14.79
17.29
18.87
19.68
20.02
20.20
20.42
20.73
20.97
20.97
20.56
19.68
18.34
16.61
14.57
12.24
9.69
6.92
3.94
0.78
-2.53
-5.86
-9.07
-12.04
-14.76
-17.36
-20.11
-23.26
-26.96
-31.11
-35.40
-39.35
-42.41
-44.15
-44.27
-42.73
-39.71
-35.52
-30.55
-25.18
-19.69
-14.32
-9.21
-4.52
-0.38
3.14
6.00
8.29
10.18
11.81
13.29
14.64
15.79
16.59
16.95
16.82
16.27
15.43
14.42
13.34
12.15
10.77
9.09
7.13
4.97
2.78
0.67
-1.36
-3.45
-5.80
-8.60
-11.92
-15.68
-19.58
-23.16
-25.87
-27.23
-26.89
-24.71
-20.83
-15.62
-9.58
-3.31
2.67
7.95
12.29
15.60
17.92
19.36
20.11
20.40
20.49
20.63
20.92
21.34
21.71
21.80
21.45
20.66
19.47
17.95
16.14
13.98
11.46
8.63
5.61
2.55
-0.45
-3.38
-6.33
-9.43
-12.84
-16.66
-20.87
-25.25
-29.37
-32.55
-34.16
-33.74
-31.22
-26.96
-21.58
-15.78
-10.11
-4.88
-0.21
3.94
7.60
10.83
13.64
16.05
18.01
19.48
20.46
20.96
21.09
20.96
20.62
20.03
19.07
17.64
15.70
13.33
10.70
7.99
5.30
2.65
-0.04
-2.84
-5.86
-9.18
-12.82
-16.78
-20.99
-25.31
-29.51
-33.21
-35.89
-36.97
-36.00
-32.76
-27.47
-20.75
-13.44
-6.36
-0.01
5.42
10.05
14.05
17.50
20.34
22.46
23.84
24.61
25.02
25.24
25.37
25.31
24.90
24.04
22.73
21.11
19.39
17.70
16.03
14.24
12.09
9.42
6.13
2.36
-1.76
-6.07
-10.55
-15.27
-20.36
-25.84
-31.56
-37.16
-42.11
-45.83
-47.80
-47.70
-45.43
-41.17
-35.35
-28.58
-21.54
-14.81
-8.80
-3.66
0.66
4.27
7.31
9.83
11.85
13.42
14.63
15.62
16.53
17.43
18.26
18.91
19.27
19.26
18.91
18.30
17.50
16.51
15.24
13.55
11.39
8.79
5.91
2.91
-0.07
-3.06
-6.17
-9.56
-13.30
-17.32
-21.44
-25.35
-28.68
-31.05
-32.08
-31.41
-28.83
-24.38
-18.40
-11.51
-4.46
2.04
7.49
11.71
14.80
16.98
18.52
19.66
20.53
21.20
21.70
22.04
22.20
22.16
21.89
21.34
20.44
19.18
17.58
15.67
13.53
11.25
8.86
6.37
3.75
1.00
-1.90
-5.00
-8.37
-12.11
-16.24
-20.65
-25.06
-28.96
-31.76
-32.91
-32.04
-29.08
-24.28
-18.16
-11.38
-4.58
1.76
7.37
12.19
16.28
19.67
22.34
24.22
25.31
25.69
25.57
25.22
24.88
24.66
24.55
24.42
24.07
23.32
22.00
20.04
17.38
14.11
10.33
6.24
2.08
-1.97
-5.82
-9.54
-13.32
-17.41
-21.91
-26.74
-31.53
-35.69
-38.53
-39.46
-38.10
-34.44
-28.84
-21.97
-14.63
-7.52
-1.11
4.47
9.33
13.69
17.67
21.23
24.19
26.36
27.68
28.24
28.28
28.00
27.54
26.92
26.03
24.78
23.08
20.94
18.42
15.64
12.68
9.64
6.52
3.34
0.07
-3.31
-6.86
-10.63
-14.73
-19.22
-24.14
-29.35
-34.49
-38.96
-42.02
-42.93
-41.24
-36.91
-30.38
-22.48
-14.15
-6.28
0.59
6.24
10.74
14.24
16.91
18.86
20.11
20.78
21.02
21.04
21.01
20.98
20.87
20.57
19.96
19.06
17.92
16.64
15.19
13.44
11.18
8.32
4.91
1.20
-2.51
-6.00
-9.18
-12.16
-15.09
-18.15
-21.46
-25.05
-28.87
-32.78
-36.46
-39.45
-41.17
-41.12
-39.00
-34.88
-29.11
-22.31
-15.14
-8.19
-1.96
3.28
7.41
10.53
12.85
14.66
16.18
17.53
18.74
19.75
20.53
21.08
21.40
21.43
21.11
20.36
19.19
17.70
16.02
14.23
12.30
10.13
7.59
4.69
1.52
-1.77
-5.08
-8.46
-12.00
-15.81
-19.84
-23.82
-27.29
-29.66
-30.38
-29.10
-25.73
-20.53
-14.05
-6.98
-0.03
6.32
11.77
16.28
19.90
22.65
24.50
25.41
25.49
24.98
24.27
23.69
23.41
23.39
23.37
23.03
22.16
20.72
18.78
16.50
13.97
11.21
8.21
4.93
1.44
-2.19
-5.90
-9.73
-13.77
-18.16
-22.95
-27.98
-32.83
-36.84
-39.27
-39.51
-37.25
-32.66
-26.27
-18.85
-11.19
-3.90
2.66
8.33
13.05
16.80
19.56
21.33
22.20
22.35
22.04
21.54
21.08
20.77
20.63
20.54
20.31
19.71
18.59
16.92
14.75
12.20
9.41
6.43
3.30
0.01
-3.42
-6.96
-10.63
-14.50
-18.74
-23.46
-28.61
-33.81
-38.41
-41.58
-42.54
-40.88
-36.61
-30.24
-22.54
-14.38
-6.47
0.73
7.00
12.32
16.74
20.36
23.22
25.37
26.80
27.57
27.77
27.58
27.19
26.78
26.44
26.15
25.75
25.04
23.85
22.05
19.61
16.58
13.06
9.21
5.20
1.20
-2.64
-6.27
-9.78
-13.40
-17.43
-22.11
-27.49
-33.28
-38.89
-43.49
-46.28
-46.67
-44.37
-39.56
-32.77
-24.78
-16.46
-8.65
-1.95
3.30
7.03
9.44
10.87
11.74
12.41
13.21
14.31
15.71
17.24
18.68
19.80
20.46
20.66
20.48
19.95
19.11
17.93
16.45
14.77
13.07
11.46
9.97
8.45
6.72
4.65
2.19
-0.64
-3.82
-7.38
-11.39
-15.79
-20.29
-24.37
-27.39
-28.83
-28.43
-26.34
-23.00
-19.07
-15.19
-11.84
-9.32
-7.66
-6.72
-6.15
-5.60
-4.78
-3.50
-1.76
0.42
3.01
5.93
9.05
12.04
14.37
15.52
15.18
13.49
10.97
8.39
6.30
4.85
3.70
2.22
-0.19
-3.90
-8.90
-14.87
-21.34
-27.85
-34.03
-39.56
-44.12
-47.34
-48.80
-48.17
-45.37
-40.58
-34.29
-27.18
-19.94
-13.17
-7.30
-2.52
1.18
3.95
6.09
7.85
9.40
10.75
11.77
12.44
12.83
13.21
13.90
15.11
16.79
18.70
20.50
21.92
22.87
23.40
23.51
23.09
21.91
19.71
16.34
11.88
6.57
0.74
-5.29
-11.19
-16.60
-21.10
-24.26
-25.76
-25.41
-23.24
-19.42
-14.20
-7.87
-0.80
6.46
13.28
19.02
23.22
25.74
26.64
26.20
24.74
22.63
20.28
18.05
16.22
14.90
13.97
13.23
12.48
11.68
10.95
10.43
10.12
9.79
9.08
7.60
5.13
1.73
-2.37
-6.84
-11.31
-15.43
-18.80
-20.92
-21.35
-19.69
-15.88
-10.24
-3.39
3.85
10.74
16.73
21.63
25.39
28.14
29.94
30.80
30.71
29.74
28.10
26.12
24.13
22.42
21.04
19.89
18.67
17.04
14.79
11.87
8.46
4.85
1.32
-2.00
-5.23
-8.66
-12.65
-17.43
-22.93
-28.74
-34.11
-38.20
-40.26
-39.80
-36.69
-31.22
-23.99
-15.80
-7.43
0.43
7.35
13.09
17.59
20.90
23.13
24.36
24.72
24.37
23.51
22.37
21.16
20.04
19.03
18.01
16.75
15.08
12.89
10.25
7.35
4.34
1.32
-1.77
-5.10
-8.90
-13.35
-18.54
-24.40
-30.64
-36.79
-42.18
-46.11
-47.93
-47.24
-43.96
-38.40
-31.20
-23.16
-15.05
-7.46
-0.67
5.26
10.38
14.67
18.02
20.28
21.40
21.58
21.26
20.97
21.06
21.58
22.20
22.45
21.92
20.42
18.05
15.05
11.69
8.14
4.47
0.69
-3.23
-7.36
-11.74
-16.47
-21.58
-26.97
-32.19
-36.59
-39.32
-39.69
-37.33
-32.41
-25.58
-17.77
-9.93
-2.78
3.29
8.19
11.96
14.71
16.53
17.55
17.99
18.11
18.21
18.47
18.89
19.28
19.35
18.84
17.55
15.50
12.89
10.00
7.12
4.43
1.90
-0.69
-3.66
-7.29
-11.67
-16.59
-21.58
-26.02
-29.22
-30.61
-29.77
-26.56
-21.15
-14.06
-6.10
1.84
8.92
14.58
18.62
21.12
22.33
22.56
22.09
21.21
20.23
19.42
18.92
18.67
18.41
17.80
16.55
14.57
11.95
8.94
5.73
2.44
-0.98
-4.65
-8.73
-13.37
-18.56
-24.17
-29.81
-34.85
-38.49
-39.96
-38.79
-34.98
-29.02
-21.69
-13.85
-6.10
1.20
7.94
13.98
19.14
23.13
25.70
26.84
26.83
26.16
25.34
24.70
24.23
23.65
22.58
20.71
18.00
14.67
11.07
7.50
4.06
0.61
-3.12
-7.45
-12.58
-18.45
-24.80
-31.18
-36.94
-41.37
-43.75
-43.56
-40.63
-35.22
-27.98
-19.73
-11.19
-2.87
5.04
12.44
19.23
25.13
29.79
32.94
34.54
34.90
34.54
33.99
33.55
33.20
32.66
31.53
29.46
26.32
22.24
17.50
12.45
7.40
2.50
-2.17
-6.74
-11.34
-16.20
-21.52
-27.37
-33.62
-39.84
-45.34
-49.33
-51.12
-50.26
-46.66
-40.51
-32.31
-22.71
-12.50
-2.50
6.55
14.14
20.04
24.31
27.25
29.23
30.58
31.49
32.01
32.08
31.61
30.53
28.84
26.71
24.39
22.12
20.05
18.12
16.15
13.91
11.23
8.10
4.61
0.93
-2.81
-6.58
-10.44
-14.56
-19.16
-24.33
-29.99
-35.72
-40.85
-44.47
-45.75
-44.11
-39.42
-31.98
-22.48
-11.82
-0.94
9.35
18.42
25.88
31.61
35.74
38.49
40.20
41.21
41.77
42.08
42.21
42.13
41.71
40.79
39.22
36.97
34.11
30.81
27.28
23.64
19.93
16.12
12.17
8.07
3.88
-0.31
-4.41
-8.41
-12.38
-16.47
-20.96
-26.07
-31.95
-38.51
-45.34
-51.66
-56.52
-58.97
-58.35
-54.48
-47.73
-38.84
-28.77
-18.41
-8.43
0.74
8.87
15.80
21.45
25.77
28.83
30.84
32.09
32.89
33.42
33.71
33.67
33.21
32.28
30.92
29.19
27.09
24.53
21.38
17.54
13.06
8.14
3.15
-1.56
-5.74
-9.38
-12.64
-15.81
-19.20
-23.01
-27.41
-32.47
-38.16
-44.24
-50.25
-55.41
-58.78
-59.52
-57.09
-51.49
-43.20
-33.10
-22.20
-11.46
-1.63
6.80
13.62
18.89
22.81
25.69
27.87
29.58
30.97
32.09
32.91
33.34
33.27
32.62
31.41
29.73
27.78
25.69
23.51
21.09
18.21
14.65
10.37
5.48
0.28
-4.93
-9.93
-14.69
-19.39
-24.31
-29.68
-35.48
-41.32
-46.39
-49.66
-50.18
-47.42
-41.47
-33.02
-23.09
-12.73
-2.79
6.23
14.05
20.58
25.79
29.74
32.55
34.41
35.51
36.07
36.22
36.03
35.49
34.54
33.08
31.05
28.50
25.57
22.44
19.24
15.98
12.52
8.62
4.11
-1.00
-6.50
-12.09
-17.60
-23.10
-28.92
-35.41
-42.70
-50.38
-57.51
-62.79
-64.97
-63.25
-57.53
-48.43
-37.08
-24.75
-12.56
-1.29
8.64
17.07
24.00
29.45
33.44
36.02
37.38
37.81
37.70
37.38
37.06
36.71
36.20
35.32
33.90
31.89
29.24
26.00
22.19
17.88
13.18
8.23
3.16
-1.94
-7.08
-12.35
-17.89
-23.92
-30.56
-37.76
-45.20
-52.15
-57.56
-60.29
-59.46
-54.74
-46.50
-35.75
-23.77
-11.80
-0.70
9.09
17.49
24.55
30.37
34.98
38.42
40.80
42.29
43.10
43.37
43.15
42.41
41.10
39.25
37.01
34.52
31.86
28.95
25.58
21.50
16.55
10.78
4.51
-1.86
-7.96
-13.61
-18.89
-24.08
-29.55
-35.59
-42.27
-49.37
-56.32
-62.27
-66.22
-67.28
-64.89
-59.04
-50.32
-39.73
-28.46
-17.57
-7.75
0.67
7.65
13.29
17.71
21.01
23.31
24.79
25.73
26.40
27.04
27.69
28.28
28.62
28.52
27.84
26.52
24.57
22.03
18.99
15.53
11.82
8.01
4.21
0.44
-3.42
-7.62
-12.43
-18.06
-24.48
-31.31
-37.82
-42.99
-45.76
-45.28
-41.25
-34.01
-24.49
-13.87
-3.29
6.41
14.79
21.72
27.17
31.10
33.45
34.25
33.72
32.33
30.72
29.44
28.80
28.72
28.80
28.50
27.39
25.26
22.17
18.34
14.01
9.32
4.36
-0.85
-6.25
-11.82
-17.62
-23.81
-30.59
-37.99
-45.72
-53.09
-59.02
-62.39
-62.29
-58.40
-51.00
-40.96
-29.45
-17.57
-6.18
4.20
13.34
21.09
27.31
31.86
34.71
35.98
36.06
35.45
34.62
33.90
33.35
32.82
32.03
30.74
28.76
26.06
22.65
18.67
14.25
9.56
4.69
-0.31
-5.52
-11.13
-17.36
-24.42
-32.30
-40.64
-48.67
-55.35
-59.48
-60.13
-56.81
-49.73
