1624454098.00
64.000000
-0.00
-0.00
-0.00
-0.00
-0.00
-0.00
-0.00
-0.00
-0.00
-0.00
0.00
0.01
0.01
-0.00
-0.03
-0.05
-0.05
0.00
0.13
0.36
0.66
1.01
1.37
1.72
2.06
2.40
2.79
3.24
3.80
4.42
5.06
5.66
6.20
6.68
7.15
7.68
8.31
9.14
10.09
11.04
11.88
12.56
13.14
13.76
14.65
15.96
17.91
20.32
22.90
25.38
27.58
29.57
31.68
34.32
37.81
42.54
48.15
54.10
59.83
64.97
69.58
74.14
79.34
85.71
93.76
103.00
112.62
121.73
129.77
136.75
143.30
150.75
157.77
166.64
177.95
191.79
206.97
220.57
228.25
225.36
208.53
176.87
132.76
80.05
23.07
-34.94
-92.44
-149.16
-205.23
-260.37
-313.74
-363.87
-409.83
-450.91
-486.50
-515.74
-537.23
-549.22
-549.96
-538.37
-514.21
-478.67
-433.88
-382.45
-327.02
-269.84
-212.63
-156.66
-102.95
-52.37
-5.90
35.58
71.43
101.35
125.50
144.38
158.69
169.15
176.37
180.75
182.57
182.07
179.51
175.23
169.65
163.18
156.15
148.81
141.30
133.69
126.02
118.33
110.69
103.16
95.80
88.68
81.83
75.25
68.95
62.95
57.25
51.86
46.78
42.03
37.59
33.45
29.61
26.07
22.81
19.83
17.11
14.67
12.48
10.54
8.83
7.35
6.07
4.97
4.05
3.27
2.62
2.09
1.65
1.30
1.01
0.79
0.61
0.47
0.37
0.28
0.22
0.18
0.15
0.13
0.12
0.12
0.12
0.13
0.15
0.18
0.21
0.25
0.29
0.33
0.37
0.42
0.46
0.51
0.56
0.62
0.67
0.73
0.79
0.86
0.93
1.01
1.10
1.20
1.31
1.44
1.58
1.73
1.91
2.10
2.32
2.56
2.82
3.12
3.44
3.79
4.18
4.60
5.05
5.55
6.08
6.65
7.26
7.92
8.62
9.36
10.16
10.99
11.88
12.80
13.79
14.82
15.93
17.09
18.32
19.59
20.88
22.14
23.29
24.26
24.91
25.14
24.82
23.85
22.17
19.77
16.68
12.97
8.79
4.33
-0.21
-4.62
-8.68
-12.20
-15.07
-17.21
-18.61
-19.31
-19.42
-19.05
-18.29
-17.23
-15.93
-14.47
-12.88
-11.22
-9.52
-7.84
-6.21
-4.63
-3.07
-1.48
0.18
1.90
3.71
5.61
7.47
9.27
11.03
12.86
14.88
17.17
19.75
22.55
25.53
28.33
30.81
33.00
35.10
37.36
39.97
42.91
46.12
49.44
52.28
54.41
55.94
57.21
58.65
60.53
62.80
65.18
67.28
68.08
67.08
64.25
59.79
53.88
46.34
36.25
21.71
5.05
-13.71
-34.91
-58.97
-85.95
-114.93
-143.64
-168.60
-185.96
-192.74
-188.74
-175.88
-157.67
-137.93
-119.60
-104.23
-92.20
-83.41
-77.64
-75.17
-75.57
-77.51
-78.91
-77.62
-72.18
-62.36
-49.10
-34.02
-19.21
-6.25
3.94
11.09
15.41
17.36
17.60
16.74
15.31
13.55
11.57
9.44
7.13
4.64
1.95
-0.93
-3.90
-6.72
-9.17
-11.04
-12.20
-12.71
-12.62
-11.76
-9.63
-5.52
1.27
10.94
23.01
36.24
49.11
60.19
68.56
73.91
76.43
76.57
74.88
71.90
68.30
64.77
61.87
59.84
58.35
56.59
53.56
48.43
40.76
30.71
18.84
5.96
-6.90
-18.52
-27.49
-32.34
-31.89
-25.73
-14.57
-0.34
14.27
26.47
34.22
36.77
34.72
29.71
23.64
18.09
13.83
10.82
8.57
6.52
4.39
2.34
0.71
-0.23
-0.56
-0.77
-1.67
-4.16
-8.85
-15.91
-24.84
-34.49
-43.16
-48.93
-50.25
-46.40
-37.82
-26.02
-13.14
-1.20
8.43
15.32
19.77
22.38
23.69
23.88
22.94
20.87
17.91
14.58
11.49
9.06
7.38
6.12
4.76
2.78
-0.11
-4.01
-8.84
-14.49
-20.83
-27.52
-33.83
-38.64
-40.62
-38.77
-32.83
-23.53
-12.38
-1.23
8.35
15.44
19.81
21.75
21.76
20.31
17.82
14.71
11.49
8.73
6.93
6.34
6.88
8.18
9.68
10.74
10.82
9.44
6.30
1.29
-5.39
-13.06
-20.58
-26.45
-29.25
-28.00
-22.62
-13.97
-3.61
6.72
15.58
22.17
26.30
28.18
28.19
26.69
23.98
20.36
16.19
11.91
7.93
4.65
2.34
1.07
0.68
0.73
0.60
-0.39
-2.82
-7.01
-12.81
-19.70
-26.65
-32.43
-35.79
-35.81
-32.15
-25.17
-15.90
-5.75
3.79
11.52
16.64
18.93
18.55
16.06
12.13
7.60
3.28
-0.10
-2.01
-2.27
-1.11
0.86
2.83
4.05
4.04
2.72
0.23
-3.17
-7.22
-11.65
-15.92
-19.19
-20.40
-18.69
-13.82
-6.44
2.08
10.08
16.18
19.65
20.43
18.91
15.65
11.24
6.25
1.33
-2.85
-5.75
-7.07
-6.90
-5.59
-3.61
-1.47
0.33
1.28
0.87
-1.26
-5.15
-10.36
-15.93
-20.55
-22.89
-21.96
-17.42
-9.72
-0.09
9.84
18.39
24.37
27.28
27.36
25.35
22.11
18.36
14.54
10.92
7.73
5.23
3.62
2.96
3.02
3.36
3.37
2.56
0.63
-2.49
-6.65
-11.51
-16.56
-21.05
-24.11
-24.89
-22.84
-17.90
-10.61
-2.01
6.63
14.10
19.56
22.58
23.17
21.69
18.60
14.47
9.92
5.48
1.68
-1.12
-2.72
-3.11
-2.54
-1.50
-0.62
-0.56
-1.86
-4.82
-9.44
-15.40
-22.05
-28.43
-33.36
-35.61
-34.29
-29.12
-20.69
-10.40
-0.08
8.45
14.04
16.35
15.88
13.63
10.64
7.68
5.11
2.99
1.21
-0.31
-1.50
-2.23
-2.39
-2.04
-1.54
-1.50
-2.59
-5.34
-9.83
-15.66
-21.90
-27.39
-30.95
-31.72
-29.33
-23.93
-16.23
-7.28
1.72
9.63
15.64
19.34
20.74
20.16
18.12
15.13
11.73
8.37
5.45
3.28
1.99
1.57
1.78
2.23
2.41
1.86
0.19
-2.77
-6.99
-12.15
-17.67
-22.71
-26.32
-27.62
-26.03
-21.49
-14.56
-6.35
1.76
8.54
13.17
15.45
15.69
14.48
12.41
9.95
7.45
5.20
3.51
2.61
2.54
3.05
3.72
4.10
3.94
3.23
2.12
0.64
-1.34
-3.95
-7.11
-10.24
-12.19
-11.62
-7.43
0.73
12.23
25.56
38.81
50.34
59.24
65.57
70.13
74.02
78.26
83.65
90.88
100.50
112.55
126.18
139.55
150.53
157.62
160.76
161.35
161.35
161.94
162.67
161.57
156.02
144.10
125.53
101.83
75.79
50.55
28.65
11.34
-1.68
-11.99
-21.74
-32.80
-45.93
-60.65
-75.86
-90.55
-104.41
-117.85
-131.60
-146.36
-162.84
-182.17
-206.01
-236.19
-273.68
-317.55
-364.47
-409.15
-445.53
-468.51
-475.21
-465.70
-442.62
-410.27
-373.43
-336.24
-301.54
-270.55
-243.06
-217.90
-193.61
-169.03
-143.63
-117.58
-91.40
-65.66
-40.73
-16.66
6.95
30.85
56.15
84.09
115.55
150.24
186.21
219.79
246.46
262.43
266.07
258.73
244.21
227.31
212.06
200.53
192.75
187.50
183.34
179.33
175.05
170.27
164.59
157.37
148.00
136.21
122.31
107.09
91.70
77.26
64.62
54.25
46.09
39.59
33.93
28.20
21.71
14.20
5.79
-3.05
-11.78
-19.84
-26.69
-31.68
-34.12
-33.31
-28.80
-20.59
-9.34
3.75
17.09
29.07
38.50
44.86
48.35
49.73
49.87
49.47
48.84
47.98
46.78
45.22
43.45
41.61
39.76
37.64
34.74
30.46
24.38
16.35
6.72
-3.75
-13.92
-22.49
-28.22
-30.30
-28.53
-23.37
-15.83
-7.23
0.98
7.33
10.59
10.06
5.81
-1.14
-9.05
-15.97
-20.38
-21.58
-19.72
-15.58
-10.10
-4.23
1.23
5.51
7.94
8.08
5.89
1.88
-3.00
-7.64
-10.96
-12.18
-10.90
-7.21
-1.61
5.06
11.84
17.94
22.82
26.33
28.52
29.46
29.17
27.63
24.92
21.41
17.63
14.24
11.69
10.18
9.57
9.54
9.65
9.47
8.60
6.67
3.41
-1.26
-7.09
-13.42
-19.20
-23.20
-24.33
-22.00
-16.38
-8.31
0.87
9.71
16.97
21.91
24.25
24.21
22.28
19.17
15.59
12.18
9.41
7.51
6.48
6.08
5.99
5.82
5.24
3.97
1.86
-1.13
-4.94
-9.39
-14.17
-18.87
-22.94
-25.72
-26.67
-25.44
-22.06
-16.92
-10.72
-4.24
1.73
6.53
9.71
11.06
10.67
8.94
6.51
4.05
2.14
1.09
0.92
1.41
2.28
3.28
4.29
5.20
5.80
5.73
4.51
1.75
-2.54
-7.84
-13.18
-17.46
-19.78
-19.78
-17.62
-13.91
-9.38
-4.71
-0.45
3.02
5.46
6.81
7.21
6.98
6.53
6.18
6.16
6.49
7.06
7.72
8.35
8.80
8.98
8.77
8.06
6.71
4.59
1.61
-2.20
-6.51
-10.72
-13.98
-15.44
-14.61
-11.53
-6.77
-1.27
4.03
8.45
11.65
13.62
14.51
14.47
13.64
12.20
10.34
8.26
6.14
4.16
2.42
1.01
-0.09
-0.98
-1.82
-2.74
-3.80
-5.06
-6.63
-8.68
-11.29
-14.33
-17.21
-19.09
-19.17
-17.08
-13.06
-7.87
-2.40
2.60
6.72
9.81
11.77
12.56
12.13
10.65
8.46
6.02
3.77
2.04
1.03
0.83
1.36
2.36
3.29
3.54
2.54
0.07
-3.68
-8.18
-12.70
-16.42
-18.67
-18.93
-16.96
-12.90
-7.25
-0.88
5.25
10.24
13.54
14.97
14.73
13.24
11.02
8.56
6.24
4.27
2.65
1.30
0.17
-0.74
-1.37
-1.76
-2.09
-2.75
-4.17
-6.67
-10.33
-14.89
-19.70
-23.93
-26.72
-27.41
-25.75
-22.00
-16.83
-11.17
-5.87
-1.51
1.62
3.49
4.10
3.52
1.86
-0.49
-2.94
-4.83
-5.66
-5.36
-4.28
-2.99
-2.08
-1.87
-2.44
-3.73
-5.65
-8.18
-11.30
-14.87
-18.53
-21.64
-23.45
-23.30
-20.77
-15.97
-9.48
-2.39
4.04
8.59
10.55
9.90
7.30
3.77
0.29
-2.48
-4.43
-5.72
-6.59
-7.13
-7.31
-7.03
-6.32
-5.39
-4.55
-4.12
-4.27
-5.09
-6.58
-8.67
-11.24
-13.92
-16.14
-17.18
-16.46
-13.81
-9.58
-4.65
0.00
3.51
5.48
5.94
5.27
3.91
2.24
0.50
-1.11
-2.41
-3.23
-3.45
-3.11
-2.37
-1.51
-0.76
-0.32
-0.23
-0.50
-1.20
-2.44
-4.37
-7.09
-10.40
-13.78
-16.47
-17.64
-16.76
-13.80
-9.28
-4.13
0.59
4.07
5.90
6.16
5.20
3.59
1.79
0.19
-1.05
-1.86
-2.27
-2.33
-2.13
-1.78
-1.44
-1.32
-1.62
-2.51
-4.20
-6.86
-10.60
-15.30
-20.39
-24.90
-27.65
-27.64
-24.50
-18.69
-11.30
-3.71
2.92
7.88
10.95
12.19
11.79
10.01
7.16
3.75
0.35
-2.41
-4.19
-4.95
-5.00
-4.86
-5.02
-5.81
-7.30
-9.36
-11.85
-14.65
-17.73
-21.02
-24.26
-26.95
-28.44
-28.15
-25.82
-21.59
-15.97
-9.72
-3.57
1.77
5.82
8.28
9.14
8.66
7.30
5.57
3.93
2.64
1.74
1.11
0.65
0.29
0.05
-0.10
-0.27
-0.78
-2.04
-4.37
-7.84
-12.14
-16.63
-20.45
-22.83
-23.19
-21.31
-17.33
-11.72
-5.22
1.23
6.70
10.46
12.20
12.07
10.65
8.71
6.93
5.68
5.01
4.74
4.62
4.48
4.27
3.98
3.62
3.09
2.20
0.77
-1.36
-4.24
-7.80
-11.78
-15.73
-18.99
-20.81
-20.55
-17.90
-13.10
-6.94
-0.54
4.99
8.84
10.78
11.06
10.31
9.20
8.26
7.75
7.72
8.10
8.78
9.69
10.76
11.83
12.60
12.73
11.84
9.65
6.09
1.30
-4.37
-10.36
-15.97
-20.34
-22.63
-22.24
-18.99
-13.27
-5.99
1.67
8.59
14.01
17.63
19.53
20.05
19.57
18.37
16.75
14.93
13.26
12.03
11.47
11.58
12.09
12.54
12.40
11.21
8.66
4.70
-0.51
-6.58
-12.87
-18.50
-22.50
-23.99
-22.48
-18.11
-11.62
-4.17
3.06
9.19
13.79
16.82
18.50
19.10
18.84
17.93
16.57
15.00
13.51
12.27
11.42
10.93
10.67
10.45
9.98
8.97
7.05
3.92
-0.63
-6.49
-13.14
-19.55
-24.44
-26.51
-24.95
-19.74
-11.71
-2.36
6.66
14.01
18.96
21.44
21.96
21.17
19.73
18.05
16.35
14.71
13.19
11.92
11.00
10.44
10.03
9.38
8.06
5.77
2.45
-1.69
-6.36
-11.24
-15.93
-19.90
-22.35
-22.36
-19.17
-12.64
-3.48
6.80
16.36
23.59
27.52
28.11
26.01
22.26
17.96
13.94
10.73
8.48
7.12
6.43
6.18
6.19
6.28
6.23
5.77
4.58
2.32
-1.16
-5.82
-11.30
-16.92
-21.79
-24.93
-25.42
-22.72
-16.77
-8.13
2.09
12.51
21.82
29.07
33.80
36.03
36.16
34.77
32.46
29.81
27.23
24.92
22.90
21.04
19.22
17.45
15.82
14.43
13.21
11.96
10.31
7.87
4.38
-0.30
-6.06
-12.49
-18.76
-23.73
-26.08
-24.81
-19.73
-11.65
-2.20
6.67
13.40
17.35
18.80
18.63
17.80
16.92
16.19
15.55
14.94
14.40
14.16
14.36
14.81
14.99
14.05
11.26
6.27
-0.66
-8.74
-16.83
-23.87
-29.07
-31.93
-32.24
-29.90
-24.99
-17.86
-9.34
-0.61
7.02
12.54
15.54
16.30
15.59
14.25
12.89
11.73
10.69
9.61
8.42
7.23
6.21
5.51
5.05
4.55
3.55
1.61
-1.48
-5.58
-10.15
-14.31
-17.10
-17.72
-15.83
-11.63
-5.83
0.49
6.21
10.46
12.80
13.30
12.41
10.77
8.96
7.38
6.21
5.47
5.06
4.93
5.00
5.27
5.71
6.22
6.52
6.20
4.74
1.74
-2.87
-8.76
-15.09
-20.68
-24.31
-25.08
-22.62
-17.27
-9.95
-1.87
5.75
12.02
16.48
19.11
20.10
19.77
18.37
16.08
13.16
10.01
7.14
5.01
3.89
3.67
3.92
4.06
3.56
2.09
-0.43
-3.93
-8.19
-12.86
-17.35
-20.83
-22.41
-21.36
-17.47
-11.18
-3.50
4.32
11.15
16.28
19.47
20.89
20.90
19.85
18.06
15.76
13.18
10.59
8.30
6.56
5.53
5.10
4.95
4.61
3.57
1.49
-1.80
-6.20
-11.38
-16.82
-21.76
-25.30
-26.54
-24.89
-20.35
-13.59
-5.81
1.58
7.46
11.25
13.04
13.33
12.71
11.65
10.38
9.00
7.58
6.24
5.18
4.49
4.11
3.83
3.28
2.11
0.06
-2.99
-7.01
-11.80
-17.00
-22.06
-26.24
-28.78
-29.06
-26.78
-22.12
-15.71
-8.48
-1.38
4.78
9.47
12.48
13.84
13.78
12.72
11.13
9.47
8.09
7.09
6.39
5.77
5.07
4.22
3.22
2.07
0.66
-1.29
-4.09
-7.94
-12.76
-18.00
-22.79
-26.08
-27.01
-25.14
-20.68
-14.39
-7.33
-0.55
5.11
9.20
11.61
12.49
12.13
10.98
9.52
8.23
7.42
7.20
7.44
7.85
8.14
8.07
7.49
6.38
4.72
2.51
-0.24
-3.53
-7.24
-11.10
-14.63
-17.15
-18.03
-16.85
-13.62
-8.89
-3.48
1.72
6.05
9.21
11.23
12.24
12.42
11.88
10.75
9.25
7.66
6.29
5.34
4.86
4.73
4.72
4.52
3.89
2.60
0.51
-2.41
-6.03
-10.09
-14.10
-17.42
-19.41
-19.49
-17.44
-13.41
-7.97
-1.96
3.75
8.52
11.98
14.10
15.04
15.06
14.40
13.24
11.74
10.04
8.32
6.81
5.71
5.12
4.99
5.03
4.77
3.69
1.40
-2.25
-7.04
-12.46
-17.75
-22.08
-24.68
-25.01
-22.91
-18.64
-12.83
-6.39
-0.24
4.83
8.34
10.18
10.54
9.79
8.40
6.77
5.17
3.78
2.68
1.92
1.52
1.43
1.53
1.57
1.24
0.26
-1.59
-4.38
-8.09
-12.45
-16.91
-20.65
-22.67
-22.14
-18.73
-12.81
-5.44
2.03
8.35
12.77
15.14
15.76
15.13
13.69
11.78
9.66
7.58
5.82
4.54
3.79
3.45
3.25
2.87
2.05
0.60
-1.59
-4.54
-8.23
-12.50
-17.00
-21.19
-24.35
-25.74
-24.85
-21.54
-16.19
-9.60
-2.78
3.30
8.00
11.05
12.57
12.80
12.06
10.65
8.88
7.09
5.65
4.85
4.80
5.35
6.14
6.72
6.69
5.82
4.05
1.46
-1.82
-5.62
-9.71
-13.69
-17.02
-19.10
-19.42
-17.70
-14.07
-9.02
-3.31
2.13
6.50
9.21
10.14
9.50
7.80
5.64
3.50
1.73
0.47
-0.27
-0.51
-0.29
0.29
1.10
1.93
2.48
2.41
1.44
-0.59
-3.61
-7.27
-10.97
-13.95
-15.47
-15.02
-12.44
-7.98
-2.26
3.88
9.54
13.92
16.51
17.20
16.18
13.94
11.02
7.97
5.18
2.92
1.31
0.33
-0.11
-0.24
-0.31
-0.52
-1.03
-1.91
-3.26
-5.17
-7.72
-10.86
-14.32
-17.52
-19.70
-20.12
-18.37
-14.52
-9.15
-3.17
2.49
7.10
10.31
12.16
12.84
12.63
11.77
10.45
8.92
7.48
6.42
5.94
6.04
6.42
6.68
6.40
5.28
3.21
0.21
-3.64
-8.17
-13.09
-17.85
-21.63
-23.55
-22.94
-19.65
-14.17
-7.53
-0.91
4.71
8.81
11.37
12.71
13.16
12.98
12.22
10.85
8.95
6.74
4.62
3.02
2.15
1.98
2.17
2.24
1.66
0.10
-2.63
-6.53
-11.38
-16.74
-21.86
-25.83
-27.70
-26.81
-23.07
-17.04
-9.80
-2.63
3.40
7.67
10.13
11.15
11.25
10.87
10.25
9.41
8.31
6.96
5.49
4.10
2.91
1.92
1.00
-0.07
-1.45
-3.21
-5.41
-8.11
-11.31
-14.80
-18.04
-20.15
-20.26
-17.85
-13.06
-6.70
0.09
6.23
11.04
14.30
16.12
16.70
16.20
14.84
12.88
10.69
8.63
6.96
5.76
4.87
4.09
3.21
2.17
0.94
-0.49
-2.17
-4.27
-6.94
-10.22
-13.86
-17.31
-19.82
-20.64
-19.27
-15.65
-10.16
-3.55
3.28
9.41
14.09
16.85
17.59
16.58
14.40
11.72
9.13
6.99
5.40
4.30
3.57
3.14
2.95
2.91
2.85
2.47
1.43
-0.52
-3.47
-7.27
-11.49
-15.47
-18.41
-19.54
-18.40
-14.89
-9.41
-2.68
4.34
10.78
15.99
19.62
21.66
22.32
21.94
20.87
19.39
17.70
15.89
14.07
12.36
10.94
10.00
9.60
9.62
9.67
9.20
7.67
4.68
0.25
-5.16
-10.61
-14.93
-17.06
-16.35
-12.79
-7.02
-0.10
6.75
12.50
16.53
18.63
18.92
17.80
15.75
13.28
10.84
8.73
7.09
5.94
5.19
4.72
4.44
4.22
3.93
3.41
2.44
0.78
-1.78
-5.28
-9.43
-13.53
-16.62
-17.71
-16.16
-12.00
-5.91
0.95
7.35
12.39
15.66
17.15
17.15
15.99
14.04
11.66
9.18
6.95
5.21
4.00
3.18
2.49
1.66
0.54
-0.90
-2.60
-4.52
-6.72
-9.35
-12.47
-15.95
-19.28
-21.64
-22.15
-20.15
-15.53
-8.81
-1.04
6.52
12.75
17.04
19.24
19.60
18.56
16.56
13.94
11.03
8.14
5.55
3.50
2.00
0.88
-0.16
-1.39
-2.98
-5.00
-7.47
-10.45
-13.93
-17.69
-21.25
-23.86
-24.77
-23.50
-20.03
-14.80
-8.56
-2.18
3.57
8.14
11.28
13.02
13.68
13.70
13.52
13.39
13.37
13.26
12.84
11.96
10.65
9.12
7.66
6.43
5.45
4.52
3.35
1.68
-0.67
-3.65
-7.03
-10.35
-13.03
-14.48
-14.24
-12.14
-8.39
-3.58
1.44
5.81
8.95
10.61
11.02
10.58
9.80
9.05
8.56
8.36
8.39
8.51
8.58
8.49
8.14
7.47
6.42
4.99
3.15
0.87
-1.86
-4.91
-7.98
-10.59
-12.12
-12.01
-9.98
-6.22
-1.35
3.76
8.23
11.44
13.16
13.48
12.68
11.11
9.05
6.77
4.57
2.74
1.55
1.16
1.51
2.30
3.08
3.45
3.08
1.84
-0.28
-3.25
-6.99
-11.27
-15.68
-19.50
-21.84
-21.96
-19.54
-14.91
-8.97
-2.93
2.15
5.62
7.40
7.83
7.36
6.32
4.88
3.08
1.01
-1.11
-2.91
-4.04
-4.38
-4.11
-3.64
-3.51
-4.13
-5.71
-8.20
-11.43
-15.14
-19.01
-22.60
-25.32
-26.48
-25.52
-22.25
-17.03
-10.77
-4.66
0.25
3.34
4.59
4.45
3.53
2.30
1.01
-0.38
-1.91
-3.60
-5.28
-6.75
-7.85
-8.59
-9.10
-9.57
-10.16
-10.93
-11.99
-13.44
-15.40
-17.82
-20.40
-22.51
-23.39
-22.35
-19.14
-14.02
-7.72
-1.28
4.28
8.17
10.05
10.01
8.54
6.30
3.96
1.96
0.44
-0.69
-1.65
-2.61
-3.60
-4.59
-5.49
-6.35
-7.34
-8.69
-10.63
-13.18
-16.21
-19.30
-22.00
-23.81
-24.34
-23.34
-20.74
-16.69
-11.57
-5.98
-0.61
3.91
7.23
9.29
10.30
10.53
10.21
9.41
8.20
6.64
4.94
3.26
1.74
0.38
-0.90
-2.15
-3.32
-4.39
-5.46
-6.77
-8.60
-11.10
-14.04
-16.77
-18.40
-18.20
-15.85
-11.63
-6.25
-0.61
4.49
8.62
11.60
13.51
14.41
14.39
13.50
11.88
9.78
7.61
5.77
4.57
4.09
4.15
4.44
4.60
4.35
3.50
1.87
-0.65
-4.15
-8.47
-13.12
-17.27
-19.93
-20.34
-18.20
-13.83
-7.98
-1.64
4.31
9.23
12.76
14.77
15.32
14.66
13.13
11.13
9.00
6.98
5.21
3.76
2.69
2.01
1.61
1.22
0.49
-0.95
-3.33
-6.68
-10.79
-15.28
-19.58
-23.01
-24.85
-24.52
-21.76
-16.76
-10.18
-3.00
3.71
9.08
12.69
14.52
14.95
14.50
13.60
12.48
11.16
9.65
7.98
6.36
5.05
4.18
3.71
3.32
2.60
1.16
-1.23
-4.67
-9.10
-14.27
-19.69
-24.58
-27.98
-29.04
-27.34
-23.04
-16.93
-10.05
-3.43
2.20
6.49
9.38
10.97
11.43
11.01
10.01
8.78
7.71
7.01
6.78
6.92
7.18
7.28
6.94
5.94
4.08
1.21
-2.71
-7.55
-12.96
-18.31
-22.86
-25.81
-26.51
-24.67
-20.45
-14.41
-7.50
-0.71
5.11
9.42
12.16
13.52
13.87
13.59
12.91
12.01
11.08
10.29
9.77
9.56
9.54
9.54
9.40
8.98
8.21
6.95
5.02
2.24
-1.42
-5.66
-9.80
-12.91
-14.10
-12.87
-9.31
-4.11
1.69
7.02
11.14
13.71
14.81
14.65
13.49
11.48
8.80
5.70
2.52
-0.32
-2.45
-3.72
-4.16
-4.02
-3.60
-3.20
-3.06
-3.40
-4.45
-6.31
-8.92
-11.89
-14.56
-16.10
-15.81
-13.29
-8.67
-2.57
4.13
10.47
15.73
19.49
21.71
22.59
22.47
21.65
20.35
18.79
17.21
15.94
15.36
15.73
17.02
18.82
20.42
21.00
19.94
16.89
11.87
5.19
-2.50
-10.22
-16.73
-20.76
-21.40
-18.43
-12.49
-4.84
3.09
10.14
15.71
19.63
22.00
22.92
22.47
20.85
18.44
15.76
13.35
11.54
10.36
9.63
9.12
8.55
7.73
6.44
4.46
1.56
-2.36
-7.13
-12.26
-16.96
-20.28
-21.34
-19.60
-15.07
-8.35
-0.50
7.25
13.88
18.79
21.86
23.32
23.53
22.83
21.42
19.50
17.30
15.13
13.34
12.15
11.57
11.32
10.98
10.12
8.41
5.73
2.07
-2.51
-7.84
-13.58
-19.12
-23.56
-25.93
-25.45
-21.83
-15.51
-7.54
0.73
8.06
13.64
17.21
18.99
19.42
18.88
17.67
15.93
13.83
11.61
9.59
8.06
7.13
6.69
6.49
6.21
5.60
4.43
2.48
-0.50
-4.66
-9.85
-15.46
-20.47
-23.71
-24.21
-21.65
-16.44
-9.56
-2.25
4.39
9.69
13.39
15.59
16.57
16.64
16.02
14.89
13.42
11.74
10.00
8.35
6.92
5.80
5.03
4.50
3.94
2.96
1.12
-1.88
-6.14
-11.32
-16.68
-21.18
-23.65
-23.18
-19.42
-12.69
-4.04
5.12
13.41
19.76
23.76
25.48
25.37
23.99
21.85
19.32
16.72
14.31
12.26
10.63
9.31
8.13
6.90
5.50
3.86
1.89
-0.62
-3.86
-7.89
-12.47
-16.96
-20.43
-21.96
-20.96
-17.37
-11.74
-4.97
1.99
8.36
13.64
17.58
20.08
21.16
20.93
19.67
17.75
15.56
13.44
11.62
10.20
9.19
8.56
8.22
7.98
7.54
6.53
4.54
1.29
-3.24
-8.69
-14.25
-18.86
-21.40
-21.06
-17.64
-11.65
-4.21
3.41
10.12
15.27
18.68
20.44
20.76
19.84
17.89
15.20
12.18
9.29
6.90
5.27
4.35
3.87
3.41
2.55
0.89
-1.79
-5.64
-10.59
-16.37
-22.41
-27.87
-31.79
-33.27
-31.80
-27.42
-20.77
-12.94
-5.18
1.43
6.23
9.06
10.14
9.89
8.73
7.00
4.97
2.91
1.13
-0.08
-0.56
-0.42
0.02
0.34
0.22
-0.55
-2.04
-4.40
-7.80
-12.36
-17.80
-23.34
-27.70
-29.52
-27.91
-22.86
-15.24
-6.56
1.60
8.14
12.54
14.88
15.47
14.73
13.02
10.66
8.01
5.38
3.05
1.19
-0.18
-1.19
-2.03
-2.98
-4.30
-6.19
-8.81
-12.20
-16.25
-20.67
-24.89
-28.08
-29.30
-27.77
-23.23
-16.14
-7.62
0.90
8.11
13.24
16.14
17.17
16.80
15.48
13.48
11.00
8.24
5.44
2.88
0.74
-0.89
-2.08
-2.94
-3.62
-4.27
-5.06
-6.18
-7.90
-10.41
-13.82
-17.92
-22.09
-25.41
-26.86
-25.65
-21.53
-14.91
-6.80
1.55
8.95
14.57
18.01
19.28
18.73
16.82
14.12
11.10
8.13
5.46
3.22
1.47
0.21
-0.63
-1.19
-1.72
-2.52
-3.88
-5.98
-8.82
-12.19
-15.69
-18.78
-20.84
-21.31
-19.80
-16.19
-10.76
-4.10
2.93
9.45
14.69
18.18
19.78
19.64
18.14
15.74
12.89
10.04
7.55
5.67
4.54
4.10
4.16
4.42
4.53
4.14
2.91
0.58
-2.93
-7.43
-12.37
-16.86
-19.89
-20.65
-18.78
-14.49
-8.52
-1.87
4.51
9.91
13.93
16.47
17.56
17.36
16.09
14.09
11.79
9.71
8.26
7.67
7.88
8.51
9.02
8.90
7.81
5.65
2.56
-1.32
-5.82
-10.71
-15.65
-20.00
-22.92
-23.59
-21.57
-17.03
-10.81
-4.08
2.10
7.07
10.72
13.32
15.13
16.19
16.36
15.47
13.56
11.01
8.40
6.23
4.79
3.98
3.47
2.90
1.96
0.47
-1.73
-4.80
-8.82
-13.61
-18.63
-22.97
-25.58
-25.65
-22.94
-17.84
-11.29
-4.40
1.89
7.01
10.76
13.18
14.39
14.55
13.86
12.56
10.99
9.48
8.28
7.50
7.12
6.99
6.91
6.57
5.71
4.08
1.55
-1.93
-6.19
-10.90
-15.52
-19.34
-21.66
-21.87
-19.72
-15.38
-9.52
-3.11
2.84
7.55
10.62
12.13
12.44
11.94
10.99
9.80
8.49
7.11
5.74
4.51
3.50
2.80
2.40
2.21
2.03
1.49
0.20
-2.21
-5.83
-10.35
-15.06
-19.00
-21.25
-21.22
-18.83
-14.47
-8.91
-3.07
2.24
6.41
9.18
10.63
11.04
10.75
10.05
9.08
7.91
6.56
5.15
3.79
2.65
1.79
1.14
0.52
-0.37
-1.84
-4.11
-7.27
-11.16
-15.40
-19.37
-22.32
-23.51
-22.44
-18.96
-13.40
-6.54
0.55
6.82
11.46
14.15
15.11
14.86
13.97
12.83
11.55
10.08
8.38
6.60
5.01
3.87
3.21
2.78
2.14
0.82
-1.46
-4.73
-8.82
-13.42
-18.12
-22.37
-25.47
-26.69
-25.52
-21.86
-16.17
-9.37
-2.56
3.35
7.84
10.83
12.49
13.05
12.68
11.48
9.58
7.18
4.64
2.34
0.56
-0.60
-1.27
-1.74
-2.33
-3.34
-5.02
-7.54
-10.99
-15.25
-19.92
-24.24
-27.20
-27.90
-25.82
-21.12
-14.61
-7.53
-1.05
4.01
7.41
9.33
10.18
10.35
10.05
9.42
8.50
7.37
6.20
5.16
4.40
4.00
3.88
3.87
3.68
2.99
1.39
-1.39
-5.51
-10.79
-16.65
-22.19
-26.31
-28.01
-26.76
-22.66
-16.40
-9.11
-2.00
3.95
8.19
10.61
11.40
10.99
9.79
8.18
6.41
4.66
3.07
1.73
0.71
-0.00
-0.52
-1.00
-1.64
-2.62
-4.05
-5.99
-8.49
-11.53
-14.97
-18.40
-21.09
-22.14
-20.73
-16.51
-9.81
-1.66
6.61
13.72
18.90
21.95
23.18
23.04
21.91
20.01
17.45
14.42
11.22
8.29
6.01
4.61
4.04
4.02
4.14
3.96
3.07
1.25
-1.62
-5.38
-9.68
-13.96
-17.44
-19.38
-19.11
-16.30
-11.07
-4.02
3.82
11.31
17.42
21.56
23.69
24.13
23.46
22.12
20.34
18.19
15.75
13.25
11.07
9.55
8.80
8.57
8.33
7.45
5.41
1.97
-2.83
-8.58
-14.67
-20.18
-24.10
-25.53
-23.84
-19.03
-11.76
-3.24
5.16
12.25
17.35
20.38
21.70
21.83
21.17
19.92
18.11
15.74
12.97
10.10
7.46
5.28
3.60
2.25
0.93
-0.74
-3.10
-6.47
-11.01
-16.56
-22.55
-27.94
-31.46
-32.01
-29.04
-22.76
-14.11
-4.50
4.70
12.44
18.17
21.78
23.51
23.65
22.57
20.61
18.15
15.59
13.31
11.57
10.38
9.53
8.62
7.23
5.13
2.25
-1.37
-5.69
-10.67
-16.20
-21.87
-26.89
-30.24
-30.89
-28.29
-22.54
-14.54
-5.58
2.99
10.20
15.60
19.18
21.19
21.87
21.49
20.26
18.49
16.58
14.94
13.90
13.48
13.47
13.38
12.75
11.21
8.61
4.93
0.24
-5.39
-11.76
-18.45
-24.74
-29.62
-32.00
-31.00
-26.33
-18.45
-8.56
1.68
10.70
17.35
21.21
22.55
22.07
20.58
18.73
16.88
15.16
13.66
12.42
11.53
11.03
10.80
10.61
10.02
8.64
6.11
2.26
-2.88
-8.98
-15.43
-21.34
-25.72
-27.65
-26.56
-22.40
-15.72
-7.54
0.93
8.59
14.71
19.00
21.54
22.55
22.30
21.01
18.95
16.42
13.84
11.62
10.06
9.21
8.83
8.55
7.90
6.47
3.96
0.21
-4.77
-10.66
-16.83
-22.34
-26.14
-27.33
-25.42
-20.53
-13.29
-4.76
3.91
11.69
17.87
22.09
24.32
24.75
23.72
21.66
18.99
16.15
13.52
11.36
9.81
8.82
8.19
7.61
6.75
5.27
2.81
-0.92
-6.08
-12.46
-19.40
-25.72
-30.02
-31.11
-28.42
-22.26
-13.73
-4.39
4.28
11.26
16.17
19.17
20.68
21.10
20.65
19.42
17.45
14.91
12.11
9.42
7.19
5.60
4.58
3.87
3.11
1.90
-0.14
-3.29
-7.72
-13.27
-19.41
-25.16
-29.28
-30.62
-28.52
-23.05
-15.05
-5.89
2.98
10.41
15.77
18.98
20.28
20.03
18.61
16.34
13.56
10.69
8.14
6.22
5.03
4.37
3.85
3.08
1.75
-0.29
-3.11
-6.79
-11.36
-16.66
-22.14
-26.84
-29.55
-29.23
-25.43
-18.54
-9.66
-0.31
8.08
14.50
18.54
20.28
20.18
18.78
16.64
14.16
11.64
9.26
7.15
5.41
4.12
3.31
2.92
2.75
2.48
1.71
0.02
-2.99
-7.49
-13.28
-19.76
-25.87
-30.37
-32.13
-30.53
-25.61
-18.16
-9.40
-0.68
6.86
12.49
15.99
17.49
17.36
16.06
14.02
11.62
9.16
6.91
5.08
3.79
3.05
2.77
2.73
2.63
2.14
0.95
-1.25
-4.61
-9.08
-14.27
-19.43
-23.53
-25.54
-24.71
-20.93
-14.71
-7.12
0.60
7.37
12.54
15.94
17.72
18.23
17.80
16.67
15.05
13.12
11.10
9.24
7.72
6.69
6.17
6.05
6.06
5.83
4.84
2.58
-1.25
-6.56
-12.74
-18.73
-23.30
-25.31
-24.14
-19.81
-12.95
-4.64
3.91
11.60
17.60
21.46
23.13
22.92
21.30
18.84
15.98
13.03
10.18
7.57
5.36
3.71
2.65
2.06
1.58
0.69
-1.18
-4.44
-9.19
-15.08
-21.29
-26.70
-30.10
-30.51
-27.49
-21.28
-12.77
-3.25
5.85
13.44
18.89
22.08
23.31
23.03
21.69
19.59
16.94
13.98
10.97
8.22
5.98
4.31
3.05
1.97
0.77
-0.84
-3.14
-6.39
-10.77
-16.15
-21.98
-27.26
-30.76
-31.44
-28.72
-22.81
-14.55
-5.25
3.77
11.42
16.98
20.19
21.14
20.17
17.79
14.58
11.07
7.76
4.97
2.91
1.56
0.78
0.29
-0.18
-0.93
-2.19
-4.22
-7.22
-11.27
-16.20
-21.42
-26.00
-28.77
-28.72
-25.36
-18.89
-10.23
-0.78
8.03
15.06
19.76
22.18
22.72
21.93
20.27
18.06
15.46
12.63
9.77
7.15
5.00
3.46
2.49
1.88
1.31
0.38
-1.32
-4.11
-8.14
-13.25
-18.91
-24.23
-28.12
-29.62
-28.15
-23.66
-16.69
-8.20
0.62
8.64
14.95
19.05
20.87
20.73
19.15
16.72
13.92
11.11
8.53
6.32
4.60
3.38
2.59
2.05
1.55
0.84
-0.32
-2.18
-4.96
-8.71
-13.23
-17.91
-21.85
-24.02
-23.59
-20.19
-14.06
-6.01
2.81
11.22
18.21
23.19
25.98
26.73
25.77
23.51
20.34
16.65
12.93
9.65
7.22
5.82
5.27
5.12
4.72
3.47
0.95
-3.04
-8.46
-15.02
-22.11
-28.84
-34.10
-36.79
-36.17
-32.10
-25.08
-16.19
-6.77
1.94
9.05
14.13
17.18
18.47
18.36
17.14
15.06
12.42
9.62
7.13
5.34
4.40
4.08
3.94
3.45
2.24
0.13
-2.99
-7.18
-12.42
-18.43
-24.41
-29.19
-31.47
-30.33
-25.65
-18.20
-9.34
-0.50
7.16
13.03
17.01
19.27
20.05
19.61
18.21
16.15
13.73
11.30
9.10
7.31
5.99
5.10
4.56
4.15
3.56
2.32
-0.06
-3.99
-9.52
-16.27
-23.30
-29.35
-33.12
-33.66
-30.61
-24.40
-16.08
-7.02
1.45
8.37
13.32
16.34
17.81
18.16
17.75
16.81
15.47
13.86
12.10
10.39
8.81
7.39
6.02
4.56
2.78
0.45
-2.68
-6.82
-12.00
-17.93
-23.95
-29.10
-32.28
-32.64
-29.80
-23.98
-15.98
-6.95
1.86
9.40
14.98
18.39
19.76
19.48
18.01
15.77
13.15
10.54
8.26
6.56
5.56
5.18
5.16
5.12
4.68
3.48
1.24
-2.27
-7.11
-13.05
-19.51
-25.56
-30.06
-31.99
-30.73
-26.25
-19.18
-10.67
-2.00
5.64
11.47
15.21
17.01
17.25
16.38
14.80
12.81
10.71
8.72
7.11
6.02
5.45
5.21
4.99
4.38
3.01
0.60
-3.01
-7.76
-13.37
-19.19
-24.36
-27.84
-28.76
-26.64
-21.56
-14.23
-5.75
2.70
10.15
16.03
20.15
22.56
23.37
22.77
20.95
18.26
15.19
12.30
10.06
8.74
8.23
8.19
8.14
7.57
6.04
3.22
-1.09
-6.91
-13.90
-21.30
-27.90
-32.32
-33.35
-30.41
-23.84
-14.78
-4.87
4.25
11.45
16.24
18.75
19.45
18.85
17.39
15.31
12.85
10.25
7.82
5.83
4.41
3.52
2.95
2.43
1.69
0.47
-1.47
-4.46
-8.72
-14.21
-20.45
-26.42
-30.81
-32.36
-30.33
-24.77
-16.52
-6.99
2.35
10.25
16.09
19.70
21.32
21.30
20.00
17.74
14.88
11.86
9.18
7.28
6.30
6.10
6.32
6.52
6.30
5.37
3.44
0.20
-4.55
-10.72
-17.70
-24.33
-29.20
-31.04
-29.21
-23.92
-16.17
-7.36
1.14
8.30
13.65
17.10
18.86
19.24
18.61
17.31
15.72
14.20
12.97
12.13
11.59
11.16
10.60
9.70
8.26
6.07
2.89
-1.53
-7.31
-14.29
-21.89
-29.05
-34.48
-36.90
-35.51
-30.19
-21.71
-11.42
-0.98
8.18
15.13
19.54
21.58
21.60
20.00
17.12
13.35
9.21
5.33
2.32
0.59
0.15
0.66
1.56
2.17
1.87
0.09
-3.56
-9.22
-16.51
-24.48
-31.60
-36.15
-36.75
-32.80
-24.78
-14.05
-2.46
8.26
16.86
22.79
26.08
27.14
26.51
24.70
22.18
19.36
16.63
14.29
12.54
11.40
10.65
9.98
8.99
7.33
4.75
1.09
-3.77
-9.80
-16.76
-24.09
-30.78
-35.48
-36.87
-34.07
-27.03
-16.66
-4.59
7.28
17.38
24.77
29.19
30.90
30.34
28.04
24.48
20.25
16.02
12.45
10.04
8.93
8.90
9.40
9.82
9.62
8.46
6.16
2.68
-1.90
-7.31
-13.03
-18.16
-21.71
-22.68
-20.48
-15.13
-7.27
1.96
11.29
19.57
26.05
30.43
32.75
33.29
32.40
30.48
27.90
25.05
22.23
19.67
17.51
15.77
14.36
13.14
11.91
10.40
8.29
5.22
0.89
-4.75
-11.40
-18.33
-24.40
-28.35
-29.18
-26.43
-20.43
-12.12
-2.87
5.97
13.33
18.58
21.48
22.04
20.53
17.34
13.05
8.36
3.94
0.31
-2.31
-4.01
-5.08
-5.88
-6.75
-8.00
-9.89
-12.68
-16.61
-21.69
-27.60
-33.60
-38.55
-41.20
-40.56
-36.21
-28.51
-18.56
-7.86
2.06
10.06
15.60
18.68
19.72
19.22
17.67
15.44
12.84
10.19
7.83
6.00
4.86
4.29
3.99
3.63
2.88
1.59
-0.32
-2.87
-6.02
-9.60
-13.19
-16.13
-17.55
-16.81
-13.69
-8.62
-2.59
3.16
7.63
10.35
11.38
11.16
10.22
8.92
7.37
5.59
3.69
1.86
0.46
-0.23
-0.09
0.72
1.82
2.68
2.66
1.22
-2.01
-7.05
-13.45
-20.30
-26.39
-30.47
-31.49
-28.96
-22.98
-14.25
-3.94
6.55
15.90
23.11
27.66
29.58
29.25
27.24
24.07
20.16
15.88
11.62
7.85
4.94
3.09
2.17
1.79
1.41
0.52
-1.32
-4.44
-9.01
-14.96
-21.83
-28.71
-34.24
-37.05
-36.09
-31.06
-22.66
-12.27
-1.66
7.67
14.80
19.47
21.96
22.75
22.22
20.62
18.11
14.94
11.49
8.20
5.45
3.40
1.95
0.85
-0.23
-1.68
-3.86
-7.18
-11.93
-18.05
-25.05
-31.84
-37.00
-39.17
-37.47
-31.82
-23.01
-12.50
-1.96
7.13
13.85
17.93
19.65
19.62
18.48
16.69
14.55
12.24
9.89
7.67
5.73
4.13
2.84
1.67
0.39
-1.21
-3.32
-6.13
-9.80
-14.43
-19.88
-25.64
-30.80
-34.18
-34.69
-31.73
-25.48
-16.92
-7.51
1.18
8.01
12.41
14.47
14.65
13.63
12.03
10.30
8.74
7.50
6.59
5.97
5.56
5.30
5.11
4.93
4.56
3.66
1.79
-1.45
-6.20
-12.20
-18.67
-24.44
-28.26
-29.11
-26.45
-20.45
-11.96
-2.27
7.16
15.07
20.65
23.68
24.37
23.26
20.96
17.99
14.77
11.63
8.83
6.57
4.99
4.02
3.43
2.84
1.80
-0.05
-3.02
-7.24
-12.72
-19.21
-26.10
-32.38
-36.80
-38.20
-35.84
-29.82
-21.01
-10.88
-0.94
7.63
14.26
18.89
21.69
22.88
22.57
20.93
18.28
15.15
12.16
9.83
8.39
7.68
7.31
6.78
5.63
3.56
0.36
-4.12
-9.90
-16.76
-24.13
-30.98
-36.00
-37.89
-35.88
-29.96
-21.05
-10.71
-0.64
7.84
14.02
17.91
19.92
20.54
20.15
18.91
16.92
14.35
11.51
8.75
6.35
4.42
2.87
1.47
0.02
-1.71
-3.97
-7.11
-11.50
-17.30
-24.25
-31.41
-37.36
-40.58
-39.93
-35.16
-26.92
-16.57
-5.73
4.20
12.29
18.13
21.74
23.40
23.50
22.45
20.70
18.64
16.64
15.01
13.90
13.31
13.08
12.91
12.53
11.68
10.21
7.92
4.63
0.12
-5.54
-11.82
-17.59
-21.28
-21.38
-16.99
-8.22
3.82
17.27
30.16
40.88
48.42
52.40
52.95
50.51
45.76
39.47
32.50
25.60
19.38
14.20
10.20
7.30
5.32
3.95
2.79
1.37
-0.82
-4.25
-9.23
-15.69
-23.05
-30.20
-35.66
-38.01
-36.32
-30.55
-21.56
-10.89
-0.28
8.77
15.39
19.39
21.15
21.30
20.47
19.12
17.49
15.69
13.83
12.05
10.56
9.49
8.79
8.20
7.30
5.66
2.94
-1.05
-6.31
-12.56
-19.21
-25.35
-29.87
-31.72
-30.28
-25.58
-18.36
-9.85
-1.39
5.90
11.32
14.64
15.94
15.50
13.75
11.18
8.36
5.79
3.89
2.87
2.70
3.20
4.04
4.88
5.33
5.05
3.70
1.04
-3.03
-8.39
-14.56
-20.73
-25.79
-28.58
-28.18
-24.24
-17.20
-8.18
1.31
9.88
16.56
21.01
23.34
23.84
22.77
20.30
16.65
12.25
7.75
3.87
1.11
-0.44
-1.12
-1.49
-2.11
-3.33
-5.31
-8.12
-11.81
-16.37
-21.58
-26.74
-30.82
-32.61
-31.20
-26.33
-18.53
-8.98
0.86
9.74
16.84
21.83
24.76
25.87
25.35
23.41
20.29
16.41
12.33
8.68
5.96
4.33
3.56
3.21
2.71
1.61
-0.46
-3.76
-8.38
-14.24
-20.84
-27.26
-32.28
-34.64
-33.52
-28.79
-21.10
-11.66
-1.90
6.93
14.01
19.01
21.99
23.26
23.17
22.05
20.15
17.76
15.17
12.74
10.71
9.17
7.95
6.77
5.28
3.27
0.56
-2.96
-7.40
-12.74
-18.69
-24.53
-29.18
-31.47
-30.48
-25.88
-18.08
-8.10
2.72
13.04
21.81
28.41
32.65
34.63
34.61
32.85
29.69
25.55
21.02
16.83
13.57
11.57
10.69
10.45
10.19
9.37
7.58
4.60
0.23
-5.54
-12.42
-19.63
-25.87
-29.68
-29.82
-25.83
-18.12
-7.77
3.75
15.08
25.15
33.23
38.90
41.94
42.38
40.46
36.59
31.35
25.36
19.28
13.73
9.25
6.13
4.37
3.55
2.95
1.68
-1.10
-5.93
-12.88
-21.48
-30.65
-38.96
-44.95
-47.61
-46.67
-42.68
-36.74
-30.07
-23.65
-18.00
-13.34
-9.80
-7.53
-6.73
-7.44
-9.38
-11.96
-14.49
-16.34
-17.14
-16.82
-15.56
-13.65
-11.52
-9.65
-8.64
-9.15
-11.69
-16.48
-23.21
-30.97
-38.40
-43.95
-46.26
-44.52
-38.66
-29.40
-18.14
-6.65
3.34
10.51
14.28
14.83
12.99
9.94
6.76
4.22
2.64
1.95
1.92
2.25
2.63
2.73
2.16
0.56
-2.30
-6.48
-11.74
-17.68
-23.71
-29.19
-33.35
-35.40
-34.54
-30.17
-22.21
-11.21
1.60
14.53
25.91
34.45
39.55
41.30
40.33
37.58
34.01
30.44
27.43
25.24
23.85
23.02
22.46
21.86
20.96
19.57
17.51
14.54
10.42
4.99
-1.65
-9.04
-16.30
-22.36
-26.17
-27.04
-24.86
-20.13
-13.79
-6.97
-0.59
4.72
8.73
11.42
12.85
13.01
11.94
9.84
7.21
4.84
3.43
3.37
4.41
5.80
6.62
6.21
4.46
1.61
-2.17
-7.13
-13.91
-23.10
-34.39
-46.31
-56.35
-61.98
-61.68
-55.63
-45.40
-33.00
-19.81
-6.29
7.46
20.61
31.09
36.28
34.57
26.70
15.85
6.20
0.73
-0.11
1.91
4.60
7.20
10.87
17.42
27.16
37.58
43.96
41.74
29.28
9.19
-12.60
-29.42
-36.76
-33.76
-23.07
-9.07
4.20
14.39
21.03
24.79
26.44
26.01
22.94
16.58
6.94
-4.95
-17.19
-27.74
-34.97
-38.10
-37.18
-32.80
-25.81
-17.26
-8.44
-0.83
4.04
4.99
1.69
-5.14
-13.78
-21.98
-27.58
-29.08
-26.04
-19.05
-9.54
0.70
9.91
16.75
20.56
21.28
19.41
15.79
11.45
7.36
4.34
2.87
2.99
4.34
6.36
8.39
9.96
10.77
10.69
9.59
7.26
3.43
-1.96
-8.56
-15.46
-21.25
-24.42
-23.89
-19.35
-11.48
-1.70
8.22
16.75
22.95
26.64
28.20
28.23
27.32
25.84
23.96
21.79
19.50
17.30
15.42
13.99
12.91
11.88
10.48
8.29
5.00
0.47
-5.27
-11.96
-19.21
-26.30
-32.22
-35.80
-35.93
-32.00
-24.24
-13.79
-2.43
8.00
16.12
21.46
24.30
25.37
25.44
24.98
24.21
23.23
22.20
21.39
21.04
21.17
21.44
21.21
19.71
16.32
10.72
3.00
-6.52
-17.24
-28.37
-38.90
-47.51
-52.82
-53.66
-49.52
-40.85
-29.09
-16.25
-4.39
4.96
11.14
14.28
15.04
14.22
12.52
10.45
8.36
6.48
4.98
3.97
3.52
3.60
4.07
4.73
5.26
5.35
4.67
2.95
0.07
-3.87
-8.43
-12.79
-15.81
-16.27
-13.33
-6.78
2.69
13.68
24.52
33.70
40.21
43.57
43.79
41.15
36.21
29.75
22.72
16.07
10.56
6.57
4.11
2.90
2.51
2.50
2.37
1.65
-0.17
-3.41
-8.08
-13.83
-19.93
-25.34
-28.92
-29.63
-26.79
-20.32
-10.86
0.32
11.56
21.31
28.47
32.64
33.98
32.98
30.27
26.42
21.98
17.43
13.25
9.81
7.30
5.68
4.68
3.85
2.68
0.70
-2.41
-6.82
-12.58
-19.57
-27.36
-35.09
-41.46
-44.94
-44.13
-38.36
-28.02
-14.50
0.21
14.19
26.04
35.14
41.43
45.12
46.45
45.66
43.03
38.99
34.11
28.93
23.81
18.87
14.03
9.17
4.24
-0.72
-5.68
-10.77
-16.26
-22.43
-29.33
-36.50
-42.96
-47.35
-48.39
-45.26
-37.99
-27.46
-15.15
-2.78
8.17
16.80
22.76
26.22
27.54
27.13
25.34
22.53
19.08
15.50
12.29
9.80
8.06
6.79
5.50
3.67
1.00
-2.62
-7.12
-12.40
-18.30
-24.51
-30.40
-34.95
-36.95
-35.43
-30.05
-21.34
-10.57
0.63
10.80
18.96
24.70
28.00
29.12
28.38
26.19
23.00
19.35
15.78
12.70
10.42
8.98
8.27
7.97
7.65
6.84
5.07
1.99
-2.57
-8.50
-15.33
-22.23
-28.03
-31.46
-31.55
-27.87
-20.77
-11.26
-0.79
9.22
17.62
23.83
27.72
29.50
29.54
28.26
26.06
23.38
20.59
18.06
16.00
14.45
13.25
12.12
10.76
8.88
6.28
2.77
-1.85
-7.61
-14.25
-21.04
-26.72
-29.93
-29.53
-25.13
-17.35
-7.56
2.49
11.25
17.77
21.82
23.66
23.77
22.58
20.38
17.36
13.75
9.86
6.02
2.61
-0.17
-2.27
-3.84
-5.19
-6.74
-8.91
-12.07
-16.35
-21.56
-27.13
-32.12
-35.47
-36.25
-33.93
-28.55
-20.71
-11.44
-1.96
6.60
13.40
17.97
20.23
20.44
19.04
16.51
13.32
9.88
6.59
3.85
1.97
1.10
1.09
1.46
1.55
0.78
-1.19
-4.39
-8.64
-13.68
-19.19
-24.72
-29.55
-32.68
-33.11
-30.13
-23.75
-14.77
-4.54
5.52
14.30
21.25
26.18
29.13
30.09
29.05
26.12
21.68
16.42
11.18
6.70
3.42
1.38
0.32
-0.16
-0.52
-1.17
-2.53
-5.03
-8.92
-14.13
-20.00
-25.31
-28.58
-28.48
-24.39
-16.67
-6.60
4.05
13.51
20.54
24.62
25.83
24.67
21.78
17.74
13.09
8.31
3.83
0.04
-2.85
-4.85
-6.16
-7.11
-8.11
-9.39
-11.11
-13.39
-16.41
-20.35
-25.36
-31.11
-36.70
-40.71
-41.51
-37.94
-29.83
-18.13
-4.66
8.57
19.86
28.32
33.76
36.51
37.07
35.92
33.48
30.16
26.40
22.68
19.44
16.96
15.25
14.05
12.90
11.31
8.85
5.32
0.64
-5.14
-11.88
-19.24
-26.57
-32.81
-36.66
-37.00
-33.37
-26.26
-17.06
-7.53
0.71
6.68
10.14
11.40
10.97
9.38
7.09
4.54
2.19
0.38
-0.68
-1.12
-1.24
-1.43
-1.94
-2.83
-4.03
-5.51
-7.47
-10.31
-14.46
-20.08
-26.79
-33.55
-38.98
-41.70
-40.82
-36.24
-28.69
-19.42
-9.87
-1.25
5.67
10.54
13.37
14.39
13.93
12.41
10.30
8.12
6.31
5.14
4.68
4.77
5.07
5.18
4.71
3.34
0.86
-2.81
-7.60
-13.14
-18.75
-23.43
-26.09
-25.80
-22.14
-15.37
-6.38
3.53
13.04
21.04
26.83
30.09
30.84
29.35
26.02
21.40
16.16
10.96
6.35
2.67
-0.01
-1.86
-3.26
-4.61
-6.28
-8.54
-11.57
-15.50
-20.30
-25.71
-31.15
-35.67
-38.13
-37.51
-33.30
-25.71
-15.68
-4.64
5.92
14.79
21.28
25.27
27.07
27.16
26.04
24.11
21.63
18.82
15.88
13.06
10.53
8.35
6.38
4.36
1.97
-1.07
-4.91
-9.67
-15.35
-21.75
-28.33
-34.15
-38.00
-38.76
-35.82
-29.39
-20.46
-10.51
-0.97
7.12
13.23
17.32
19.49
19.91
18.74
16.23
12.81
9.09
5.65
2.96
1.18
0.17
-0.41
-1.01
-2.03
-3.82
-6.67
-10.79
-16.21
-22.68
-29.56
-35.75
-39.96
-41.01
-38.24
-31.79
-22.63
-12.33
-2.49
5.61
11.42
14.99
16.78
17.33
17.04
16.15
14.84
13.31
11.82
10.63
9.83
9.29
8.69
7.69
6.05
3.68
0.55
-3.40
-8.34
-14.34
-21.15
-27.99
-33.61
-36.57
-35.79
-30.96
-22.73
-12.51
-1.98
7.42
14.89
20.25
23.70
25.55
25.98
25.07
22.93
19.89
16.44
13.20
10.60
8.83
7.74
6.97
6.11
4.76
2.58
-0.77
-5.55
-11.78
-19.02
-26.28
-32.17
-35.20
-34.37
-29.44
-21.14
-10.85
-0.21
9.41
17.13
22.65
26.04
27.56
27.45
25.99
23.42
20.14
16.58
13.18
10.30
8.07
6.46
5.22
4.01
2.43
0.15
-3.13
-7.57
-13.15
-19.52
-25.90
-31.13
-33.90
-33.15
-28.46
-20.26
-9.79
1.31
11.48
19.68
25.47
28.96
30.52
30.51
29.19
26.79
23.58
20.04
16.77
14.29
12.85
12.30
12.14
11.70
10.43
7.99
4.27
-0.69
-6.79
-13.69
-20.73
-26.82
-30.61
-30.89
-27.06
-19.42
-9.16
1.99
12.34
20.63
26.31
29.46
30.54
30.13
28.68
26.51
23.83
20.89
17.98
15.42
13.43
12.00
10.89
9.72
8.08
5.64
2.15
-2.54
-8.54
-15.73
-23.61
-31.16
-36.95
-39.52
-37.86
-31.85
-22.37
-11.05
0.24
9.94
17.14
21.66
23.82
24.13
23.03
20.85
17.86
14.43
11.00
8.10
6.11
5.20
5.17
5.57
5.80
5.35
3.82
0.99
-3.27
-8.90
-15.60
-22.61
-28.75
-32.54
-32.66
-28.43
-20.16
-9.11
2.83
13.82
22.58
28.61
32.04
33.27
32.65
30.41
26.78
22.22
17.48
13.40
10.70
9.61
9.86
10.74
11.51
11.49
10.25
7.53
3.19
-2.70
-9.75
-17.08
-23.44
-27.38
-27.72
-23.96
-16.43
-6.28
4.93
15.60
24.48
30.82
34.38
35.28
33.86
30.56
25.94
20.61
15.30
10.75
7.54
5.90
5.62
6.05
6.35
5.67
3.49
-0.39
-5.85
-12.50
-19.68
-26.46
-31.67
-34.06
-32.64
-27.07
-17.84
-6.26
5.94
17.04
25.84
31.79
35.00
35.98
35.31
33.47
30.75
27.37
23.55
19.63
16.01
12.96
10.53
8.48
6.44
4.01
0.95
-2.92
-7.70
-13.49
-20.25
-27.49
-34.21
-38.91
-40.10
-36.82
-29.16
-18.27
-6.00
5.73
15.46
22.48
26.72
28.47
28.12
26.04
22.69
18.59
14.38
10.66
7.90
6.25
5.58
5.51
5.55
5.21
4.06
1.81
-1.75
-6.68
-12.85
-19.76
-26.55
-31.99
-34.76
-33.85
-28.91
-20.53
-10.08
0.67
10.04
16.93
20.95
22.34
21.70
19.66
16.76
13.42
10.01
6.85
4.26
2.42
1.30
0.64
0.06
-0.79
-2.20
-4.32
-7.26
-11.12
-15.88
-21.31
-26.83
-31.51
-34.22
-33.98
-30.29
-23.36
-14.09
-3.81
6.05
14.37
20.50
24.28
25.84
25.48
23.56
20.50
16.75
12.86
9.33
6.54
4.63
3.47
2.74
2.05
1.05
-0.53
-2.89
-6.19
-10.47
-15.52
-20.79
-25.25
-27.70
-27.10
-22.97
-15.68
-6.31
3.62
12.69
19.93
24.97
27.86
28.88
28.34
26.50
23.65
20.19
16.57
13.24
10.46
8.23
6.37
4.56
2.49
-0.06
-3.25
-7.16
-11.84
-17.20
-22.97
-28.55
-33.04
-35.41
-34.74
-30.53
-22.98
-12.98
-1.99
8.43
16.95
22.84
26.06
27.04
26.34
24.37
21.30
17.20
12.24
6.87
1.76
-2.48
-5.63
-7.93
-9.98
-12.38
-15.43
-19.11
-23.15
-27.36
-31.59
-35.66
-39.07
-40.99
-40.37
-36.41
-29.03
-18.99
-7.76
3.05
12.12
18.77
22.96
25.04
25.51
24.83
23.36
21.39
19.21
17.13
15.42
14.25
13.57
13.15
12.61
11.48
9.40
6.12
1.53
-4.31
-11.16
-18.54
-25.71
-31.68
-35.42
-36.13
-33.55
-28.10
-20.82
-13.05
-6.08
-0.73
2.66
4.26
4.52
3.93
2.84
1.56
0.32
-0.61
-1.02
-0.78
0.04
1.17
2.21
2.73
2.39
0.93
-1.78
-5.79
-10.94
-16.89
-22.93
-28.04
-31.06
-31.02
-27.46
-20.62
-11.51
-1.56
7.70
15.10
20.05
22.60
23.17
22.31
20.43
17.82
14.72
11.49
8.59
6.50
5.52
5.58
6.24
6.85
6.78
5.57
3.03
-0.84
-5.88
-11.77
-17.91
-23.41
-27.16
-28.11
-25.64
-19.86
-11.71
-2.64
5.79
12.45
16.87
19.21
19.97
19.59
18.31
16.15
13.14
9.52
5.77
2.48
0.10
-1.30
-2.05
-2.73
-3.91
-5.94
-8.91
-12.75
-17.30
-22.40
-27.70
-32.59
-36.14
-37.28
-35.26
-29.90
-21.87
-12.48
-3.23
4.64
10.49
14.25
16.21
16.70
16.04
14.44
12.17
9.62
7.27
5.49
4.48
4.14
4.16
4.10
3.57
2.34
0.26
-2.79
-6.94
-12.23
-18.43
-24.85
-30.28
-33.34
-32.88
-28.48
-20.74
-11.08
-1.28
7.08
13.08
16.52
17.72
17.24
15.57
13.07
10.06
6.85
3.80
1.25
-0.59
-1.70
-2.24
-2.54
-2.95
-3.80
-5.37
-7.88
-11.49
-16.19
-21.73
-27.42
-32.26
-35.07
-34.89
-31.31
-24.71
-16.16
-7.09
1.11
7.47
11.60
13.57
13.83
12.87
11.19
9.13
6.92
4.69
2.52
0.50
-1.25
-2.65
-3.64
-4.29
-4.81
-5.51
-6.76
-8.98
-12.44
-17.14
-22.65
-28.05
-32.07
-33.42
-31.23
-25.41
-16.72
-6.55
3.48
12.07
18.43
22.40
24.24
24.43
23.51
21.86
19.77
17.38
14.86
12.38
10.19
8.49
7.40
6.84
6.50
5.94
4.68
2.27
-1.49
-6.59
-12.63
-18.82
-24.00
-26.91
-26.52
-22.47
-15.21
-5.97
3.70
12.38
19.18
23.76
26.25
26.97
26.18
24.11
21.02
17.27
13.40
9.98
7.44
5.87
4.97
4.16
2.85
0.64
-2.55
-6.60
-11.31
-16.50
-21.93
-27.11
-31.28
-33.43
-32.65
-28.51
-21.27
-11.86
-1.67
7.98
16.09
22.07
25.85
27.56
27.42
25.56
22.15
17.62
12.90
9.24
7.70
8.52
10.81
12.86
12.92
10.06
4.59
-2.32
-9.37
-15.82
-21.65
-27.04
-31.76
-34.76
-34.64
-30.34
-21.87
-10.48
1.81
12.99
21.67
27.41
30.54
31.75
31.64
30.60
28.73
26.03
22.65
18.86
15.09
11.74
9.01
6.88
5.03
3.06
0.54
-2.92
-7.56
-13.47
-20.41
-27.77
-34.47
-39.11
-40.36
-37.39
-30.22
-19.80
-7.74
4.20
14.56
22.47
27.67
30.32
30.81
29.61
27.14
23.83
20.09
16.31
12.87
10.08
8.13
6.99
6.43
6.01
5.19
3.48
0.54
-3.73
-9.18
-15.26
-21.11
-25.50
-27.16
-25.07
-18.93
-9.32
2.38
14.35
24.93
33.02
38.26
40.83
41.19
39.83
37.11
33.34
28.91
24.29
20.03
16.57
14.11
12.47
11.22
9.76
7.56
4.24
-0.39
-6.33
-13.37
-21.02
-28.41
-34.31
-37.32
-36.29
-30.81
-21.36
-9.42
3.17
14.60
23.66
29.88
33.35
34.49
33.69
31.34
27.73
23.29
18.55
14.15
10.65
8.35
7.19
6.74
6.37
5.40
3.33
-0.11
-4.97
-11.05
-17.92
-24.78
-30.50
-33.71
-33.22
-28.41
-19.58
-8.07
4.21
15.27
23.78
29.23
31.91
32.44
31.41
29.18
25.93
21.88
17.48
13.31
9.94
7.66
6.36
5.62
4.85
3.55
1.33
-2.03
-6.63
-12.40
-19.04
-25.81
-31.59
-35.04
-34.98
-30.76
-22.61
-11.62
0.52
12.01
21.38
27.87
31.37
32.33
31.37
29.05
25.76
21.77
17.33
12.80
8.57
5.04
2.35
0.43
-1.08
-2.58
-4.43
-6.93
-10.27
-14.65
-20.13
-26.53
-33.14
-38.73
-41.80
-41.04
-35.92
-26.96
-15.62
-3.84
6.59
14.51
19.49
21.70
21.57
19.66
16.55
12.83
9.15
6.13
4.18
3.42
3.67
4.53
5.50
6.12
6.01
4.83
2.33
-1.62
-6.93
-13.11
-19.25
-24.08
-26.29
-24.87
-19.46
-10.57
0.57
12.29
22.98
31.38
36.83
39.27
39.03
36.66
32.81
28.09
23.11
18.47
14.64
11.96
10.53
10.14
10.30
10.39
9.76
7.86
4.38
-0.78
-7.38
-14.93
-22.57
-29.20
-33.61
-34.84
-32.40
-26.54
-18.14
-8.46
1.26
10.01
17.17
22.32
25.15
25.50
23.40
19.30
14.09
8.83
4.42
1.34
-0.47
-1.43
-2.13
-3.13
-4.87
-7.75
-12.05
-17.87
-24.85
-32.21
-38.67
-42.82
-43.48
-40.03
-32.58
-22.02
-9.78
2.48
13.29
21.56
26.85
29.26
29.20
27.22
23.73
19.06
13.58
7.80
2.41
-1.84
-4.38
-5.02
-3.99
-1.85
0.80
3.44
5.67
7.12
7.34
5.87
2.55
-2.18
-7.10
-10.51
-10.80
-7.14
0.07
9.26
18.32
25.31
29.14
29.74
27.87
24.58
20.76
16.95
13.27
9.67
5.98
2.05
-2.23
-6.87
-11.84
-17.02
-22.26
-27.45
-32.55
-37.69
-43.08
-48.94
-55.28
-61.76
-67.57
-71.43
-71.93
-67.91
-58.99
-45.76
-29.71
-12.86
2.92
16.33
26.86
34.80
40.96
46.42
52.15
58.67
65.73
72.27
76.57
76.81
71.69
60.85
45.00
25.60
4.32
-17.30
-38.12
-57.33
-74.31
-88.48
-99.08
-105.31
-106.38
-101.80
-91.60
-76.68
-58.67
-39.63
-21.60
-6.09
6.14
15.06
21.03
24.48
25.69
24.76
21.67
16.50
9.56
1.52
-6.78
-14.42
-20.76
-25.55
-29.07
-31.96
-35.03
-38.94
-43.96
-49.85
-55.78
-60.58
-62.98
-62.04
-57.46
-49.69
-39.75
-28.86
-18.06
-7.94
1.28
9.53
16.61
22.11
25.56
26.66
25.56
22.89
19.56
16.42
13.94
12.03
10.17
7.79
4.56
0.56
-3.81
-8.16
-12.27
-16.08
-19.44
-21.91
-22.67
-20.80
-15.73
-7.60
2.70
13.69
23.87
32.03
37.50
40.08
39.93
37.40
32.97
27.22
20.80
14.42
8.77
4.33
1.36
-0.21
-0.75
-0.76
-0.74
-1.12
-2.21
-4.29
-7.52
-11.86
-16.79
-21.30
-24.01
-23.54
-19.14
-11.01
-0.34
11.15
21.76
30.41
36.71
40.87
43.28
44.27
43.98
42.48
39.92
36.55
32.78
29.01
25.54
22.52
19.91
17.53
15.15
12.50
9.36
5.49
0.67
-5.17
-11.89
-18.98
-25.42
-29.93
-31.21
-28.48
-21.81
-12.30
-1.71
8.06
15.55
20.08
21.72
21.04
18.73
15.35
11.35
7.07
2.90
-0.73
-3.44
-5.03
-5.53
-5.25
-4.62
-4.15
-4.35
-5.71
-8.60
-13.24
-19.46
-26.56
-33.27
-37.95
-39.05
-35.59
-27.56
-16.04
-2.84
10.06
21.06
29.29
34.57
37.14
37.36
35.54
31.99
27.11
21.53
16.04
11.45
8.24
6.53
5.92
5.76
5.22
3.61
0.39
-4.70
-11.48
-19.33
-27.09
-33.22
-36.16
-34.81
-28.91
-19.16
-7.13
5.33
16.54
25.43
31.61
35.20
36.54
35.95
33.72
30.16
25.70
20.91
16.40
12.67
9.97
8.21
6.97
5.71
3.80
0.74
-3.86
-10.12
-17.88
-26.51
-34.84
-41.30
-44.26
-42.52
-35.76
-24.74
-11.10
3.12
16.12
26.72
34.47
39.44
41.96
42.37
41.03
38.31
34.77
31.01
27.61
24.97
23.16
21.95
20.84
19.27
16.63
12.49
6.61
-1.03
-10.13
-19.95
-29.29
-36.59
-40.15
-38.69
-31.76
-20.05
-5.30
10.11
23.83
34.22
40.57
43.13
42.70
40.24
36.55
32.18
27.53
22.96
18.84
15.48
13.04
11.43
10.32
9.31
7.94
5.89
2.90
-1.25
-6.69
-13.30
-20.51
-27.22
-31.93
-33.19
-30.08
-22.74
-12.36
-0.90
9.60
17.68
22.65
24.70
24.45
22.60
19.68
16.05
12.01
7.88
4.02
0.73
-1.87
-3.82
-5.35
-6.70
-8.07
-9.60
-11.41
-13.71
-16.79
-20.83
-25.68
-30.65
-34.53
-35.83
-33.37
-26.72
-16.44
-4.04
8.56
19.52
27.60
32.33
33.88
32.85
29.96
25.90
21.24
16.53
12.22
8.75
6.39
5.24
5.09
5.49
5.73
5.04
2.70
-1.76
-8.39
-16.74
-25.84
-34.24
-40.36
-42.83
-40.81
-34.34
-24.30
-12.28
-0.12
10.48
18.39
23.24
25.26
25.08
23.37
20.66
17.28
13.49
9.55
5.86
2.78
0.48
-1.11
-2.33
-3.63
-5.45
-8.10
-11.86
-16.81
-22.94
-29.79
-36.42
-41.46
-43.45
-41.35
-34.91
-24.88
-12.80
-0.49
10.43
18.91
24.57
27.59
28.39
27.47
25.24
22.07
18.29
14.33
10.69
7.80
5.86
4.81
4.30
3.81
2.83
0.93
-2.23
-6.84
-12.88
-19.92
-27.03
-32.78
-35.60
-34.28
-28.47
-18.91
-7.17
4.80
15.32
23.34
28.56
31.26
31.93
31.12
29.25
26.64
23.58
20.35
17.26
14.50
12.14
10.11
8.23
6.32
4.24
1.84
-1.08
-4.78
-9.53
-15.40
-21.99
-28.35
-33.05
-34.64
-32.10
-25.37
-15.40
-3.90
7.21
16.42
22.93
26.66
28.02
27.54
25.66
22.71
19.00
14.96
11.03
7.63
4.92
2.84
1.08
-0.69
-2.72
-5.15
-8.07
-11.62
-15.97
-21.22
-27.13
-32.96
-37.55
-39.58
-38.12
-32.96
-24.82
-15.16
-5.65
2.40
8.26
11.93
13.80
14.32
13.80
12.32
9.93
6.76
3.13
-0.55
-3.90
-6.66
-8.85
-10.60
-12.14
-13.66
-15.35
-17.46
-20.35
-24.33
-29.50
-35.42
-41.06
-44.95
-45.65
-42.32
-35.06
-24.95
-13.69
-3.05
5.62
11.66
15.02
16.04
15.20
12.99
9.88
6.39
3.01
0.17
-1.91
-3.22
-3.97
-4.50
-5.17
-6.36
-8.41
-11.62
-16.16
-21.93
-28.44
-34.77
-39.64
-41.75
-40.13
-34.50
-25.45
-14.25
-2.60
7.91
16.14
21.60
24.38
24.92
23.80
21.51
18.49
15.06
11.56
8.31
5.54
3.38
1.76
0.48
-0.82
-2.48
-4.81
-8.06
-12.44
-18.00
-24.58
-31.59
-38.01
-42.44
-43.52
-40.34
-32.87
-22.05
-9.59
2.51
12.58
19.66
23.58
24.83
24.17
22.33
19.86
17.13
14.41
11.98
10.09
8.88
8.31
8.11
7.83
7.03
5.37
2.65
-1.24
-6.31
-12.46
-19.28
-25.88
-31.00
-33.19
-31.36
-25.17
-15.35
-3.46
8.50
18.76
26.13
30.24
31.35
30.10
27.19
23.31
19.02
14.86
11.23
8.42
6.50
5.40
4.91
4.77
4.71
4.43
3.55
1.64
-1.76
-6.85
-13.40
-20.55
-26.94
-30.96
-31.30
-27.39
-19.67
-9.49
1.26
10.81
17.95
22.25
23.94
23.62
21.88
19.21
15.95
12.43
9.02
6.10
3.94
2.58
1.84
1.38
0.81
-0.20
-1.93
-4.66
-8.65
-14.05
-20.71
-27.98
-34.74
-39.54
-41.08
-38.59
-32.19
-22.83
-12.11
-1.70
7.04
13.35
17.14
18.72
18.54
16.96
14.24
10.63
6.47
2.29
-1.35
-4.04
-5.69
-6.52
-7.04
-7.78
-9.17
-11.55
-15.12
-20.00
-26.05
-32.73
-39.00
-43.41
-44.51
-41.33
-33.78
-22.83
-10.19
2.17
12.63
20.31
25.06
27.30
27.67
26.74
24.92
22.51
19.81
17.13
14.79
12.99
11.74
10.83
9.90
8.52
6.31
2.89
-1.99
-8.42
-16.16
-24.54
-32.39
-38.29
-40.84
-39.07
-32.77
-22.58
-9.87
3.60
16.11
26.30
33.41
37.31
38.38
37.27
34.68
31.20
27.27
23.20
19.27
15.72
12.74
10.41
8.61
7.09
5.44
3.26
0.09
-4.41
-10.38
-17.58
-25.16
-31.74
-35.61
-35.27
-29.97
-20.11
-7.16
6.76
19.56
29.72
36.59
40.29
41.38
40.53
38.32
35.13
31.31
27.19
23.18
19.69
17.05
15.31
14.24
13.34
11.97
9.55
5.64
0.03
-7.27
-15.95
-25.34
-34.26
-41.16
-44.39
-42.73
-35.93
-24.84
-11.26
2.64
15.01
24.71
31.35
35.06
36.14
34.87
31.54
26.54
20.51
14.26
8.60
4.17
1.22
-0.35
-1.00
-1.41
-2.32
-4.52
-8.57
-14.73
-22.75
-31.70
-40.12
-46.22
-48.34
-45.42
-37.47
-25.56
-11.57
2.37
14.45
23.64
29.63
32.74
33.46
32.28
29.63
26.00
21.92
17.92
14.42
11.57
9.23
7.07
4.69
1.79
-1.90
-6.66
-12.76
-20.38
-29.28
-38.62
-46.90
-52.27
-53.10
-48.53
-38.87
-25.51
-10.53
3.98
16.37
25.77
31.96
35.15
35.68
33.94
30.30
25.31
19.65
14.12
9.47
6.19
4.39
3.74
3.67
3.42
2.33
-0.16
-4.39
-10.48
-18.14
-26.55
-34.28
-39.48
-40.34
-35.69
-25.57
-11.33
4.76
20.20
32.96
42.02
47.28
49.21
48.45
45.54
40.93
35.14
28.92
23.15
18.66
15.94
14.99
15.29
16.05
16.46
15.86
13.85
10.18
4.67
-2.69
-11.52
-20.83
-28.92
-33.77
-33.59
-27.66
-16.66
-2.53
12.14
25.07
34.84
41.06
44.06
44.41
42.60
38.98
33.89
27.88
21.72
16.19
11.87
8.93
7.10
5.86
4.65
3.01
0.63
-2.76
-7.45
-13.69
-21.40
-29.91
-37.81
-43.14
-44.00
-39.27
-29.06
-14.83
1.12
16.31
28.85
37.64
42.47
43.69
41.92
37.85
32.25
25.94
19.73
14.38
10.35
7.76
6.31
5.39
4.34
2.52
-0.48
-4.87
-10.69
-17.81
-25.87
-34.15
-41.49
-46.34
-47.25
-43.32
-34.62
-22.34
-8.46
4.85
15.87
23.72
28.36
30.27
30.06
28.23
25.12
21.05
16.49
12.05
8.32
5.76
4.41
3.91
3.58
2.65
0.46
-3.45
-9.24
-16.70
-25.26
-33.89
-41.19
-45.58
-45.70
-40.86
-31.38
-18.58
-4.42
9.07
20.38
28.72
34.00
36.56
36.83
35.24
32.21
28.25
23.98
20.05
16.93
14.83
13.56
12.66
11.56
9.73
6.77
2.46
-3.26
-10.27
-18.26
-26.51
-33.90
-38.99
-40.34
-36.99
-28.93
-17.16
-3.53
9.88
21.34
29.88
35.29
37.96
38.47
37.36
35.05
31.86
28.16
24.38
20.90
18.01
15.73
13.86
12.05
9.94
7.23
3.75
-0.63
-6.04
-12.51
-19.73
-26.92
-32.70
-35.44
-33.84
-27.43
-17.01
-4.38
8.16
18.65
25.94
29.92
31.19
30.61
28.87
26.31
23.07
19.28
15.22
11.31
7.93
5.27
3.20
1.38
-0.59
-2.94
-5.81
-9.24
-13.35
-18.26
-23.95
-29.97
-35.35
-38.68
-38.60
-34.36
-26.17
-15.25
-3.39
7.60
16.41
22.48
25.78
26.66
25.51
22.74
18.72
13.96
9.03
4.55
0.95
-1.61
-3.34
-4.67
-6.08
-7.96
-10.54
-13.95
-18.35
-23.81
-30.24
-37.07
-43.19
-47.07
-47.30
-43.14
-34.90
-23.90
-12.03
-1.09
7.76
14.13
18.23
20.46
21.19
20.56
18.68
15.74
12.20
8.62
5.53
3.29
1.87
0.97
0.07
-1.35
-3.68
-7.12
-11.72
-17.38
-23.76
-30.21
-35.71
-39.05
-39.05
-35.11
-27.41
-17.08
-5.76
4.89
13.66
20.03
24.11
26.25
26.80
25.93
23.75
20.47
16.54
12.59
9.28
6.98
5.75
5.22
4.87
4.12
2.57
-0.06
-3.92
-9.02
-15.15
-21.64
-27.33
-30.77
-30.64
-26.35
-18.26
-7.70
3.50
13.64
21.58
26.91
29.84
30.82
30.34
28.82
26.54
23.76
20.71
17.58
14.52
11.68
9.16
7.01
5.20
3.57
1.89
-0.12
-2.77
-6.32
-10.88
-16.32
-22.06
-27.02
-29.87
-29.41
-25.11
-17.47
-7.87
1.85
10.06
15.86
19.18
20.50
20.45
19.43
17.57
14.91
11.63
8.20
5.19
3.10
2.08
1.95
2.22
2.40
2.07
0.94
-1.26
-4.81
-9.89
-16.37
-23.57
-30.21
-34.76
-35.89
-32.97
-26.42
-17.45
-7.77
1.04
7.87
12.23
14.16
14.00
12.17
9.13
5.30
1.14
-2.92
-6.50
-9.32
-11.31
-12.56
-13.33
-13.89
-14.53
-15.51
-17.14
-19.80
-23.77
-29.04
-35.05
-40.65
-44.33
-44.70
-41.03
-33.60
-23.56
-12.60
-2.31
6.22
12.52
16.59
18.66
18.97
17.75
15.25
11.88
8.15
4.67
1.98
0.35
-0.21
-0.02
0.41
0.47
-0.38
-2.59
-6.38
-11.74
-18.30
-25.24
-31.36
-35.27
-35.74
-32.15
-24.73
-14.58
-3.37
7.18
15.72
21.62
24.88
25.95
25.44
23.83
21.43
18.44
15.01
11.40
7.99
5.14
3.07
1.74
0.80
-0.25
-1.88
-4.45
-8.19
-13.12
-19.11
-25.69
-31.95
-36.56
-38.09
-35.52
-28.72
-18.65
-7.03
4.18
13.43
19.96
23.71
25.11
24.68
22.87
20.08
16.73
13.27
10.16
7.75
6.12
5.09
4.28
3.25
1.63
-0.80
-4.17
-8.56
-14.01
-20.45
-27.46
-34.15
-39.19
-41.16
-38.99
-32.48
-22.41
-10.37
1.78
12.46
20.69
26.14
28.99
29.63
28.51
26.05
22.66
18.81
15.00
11.65
9.07
7.39
6.49
6.05
5.63
4.79
3.12
0.32
-3.75
-9.11
-15.45
-22.05
-27.83
-31.51
-31.95
-28.54
-21.44
-11.60
-0.50
10.23
19.21
25.60
29.10
29.88
28.32
24.89
20.05
14.35
8.45
3.25
-0.34
-1.63
-0.54
2.35
5.87
8.69
9.74
8.38
4.48
-1.73
-9.76
-18.77
-27.56
-34.58
-38.30
-37.62
-32.39
-23.47
-12.49
-1.32
8.59
16.45
22.11
25.72
27.39
27.08
24.67
20.24
14.24
7.53
1.14
-4.11
-7.78
-9.99
-11.25
-12.21
-13.52
-15.76
-19.39
-24.78
-32.01
-40.61
-49.37
-56.50
-59.92
-58.09
-50.52
-38.10
-22.92
-7.56
5.70
15.44
21.32
23.80
23.72
22.04
19.60
17.07
15.04
13.89
13.69
14.26
15.14
15.75
15.52
14.03
10.97
6.17
-0.42
-8.68
-18.21
-28.19
-37.41
-44.39
-47.66
-46.17
-39.69
-28.99
-15.75
-2.00
10.45
20.48
27.82
32.76
35.71
36.88
36.28
33.87
29.95
25.16
20.43
16.60
14.04
12.61
11.70
10.60
8.73
5.78
1.62
-3.89
-10.79
-18.89
-27.48
-35.21
-40.21
-40.69
-35.54
-24.89
-10.11
6.53
22.57
36.05
45.83
51.66
53.84
52.98
49.71
44.69
38.62
32.28
26.47
21.81
18.62
16.78
15.82
15.08
13.94
11.92
8.68
3.96
-2.42
-10.39
-19.41
-28.24
-35.10
-38.11
-35.92
-28.29
-16.31
-2.09
11.97
23.79
32.19
36.94
38.45
37.39
34.37
29.98
24.81
19.62
15.23
12.32
11.10
11.16
11.59
11.40
9.89
6.84
2.43
-3.02
-9.33
-16.46
-24.28
-32.16
-38.92
-42.91
-42.62
-37.31
-27.33
-14.21
-0.06
12.98
23.34
30.29
33.75
34.02
31.54
26.86
20.76
14.38
8.96
5.59
4.70
5.89
8.06
9.83
10.02
7.95
3.46
-3.26
-11.89
-21.97
-32.79
-43.20
-51.60
-56.25
-55.72
-49.46
-38.03
-23.12
-7.03
7.95
20.10
28.63
33.58
35.47
34.98
32.66
28.92
24.18
19.03
14.20
10.41
7.99
6.80
6.20
5.41
3.80
1.08
-2.76
-7.68
-13.64
-20.49
-27.71
-34.12
-38.12
-38.12
-33.26
-23.86
-11.43
1.89
14.13
24.02
31.20
35.91
38.58
39.49
38.72
36.29
32.43
27.72
23.02
19.32
17.32
17.22
18.57
20.40
21.49
20.75
17.50
11.60
3.44
-6.16
-16.03
-24.70
-30.60
-32.33
-29.07
-20.99
-9.30
4.02
16.82
27.33
34.71
38.98
40.81
41.01
40.19
38.62
36.33
33.30
29.68
25.85
22.26
19.32
17.11
15.41
13.75
11.61
8.53
4.22
-1.48
-8.45
-16.21
-23.86
-30.03
-33.24
-32.36
-27.04
-17.97
-6.65
5.08
15.64
24.06
29.98
33.36
34.23
32.62
28.73
23.08
16.64
10.51
5.68
2.59
1.05
0.44
-0.05
-0.99
-2.66
-5.13
-8.41
-12.64
-18.00
-24.47
-31.45
-37.67
-41.36
-40.86
-35.31
-25.16
-12.15
1.27
12.81
21.09
25.81
27.54
27.14
25.25
22.17
18.05
13.14
7.98
3.30
-0.28
-2.54
-3.73
-4.48
-5.54
-7.46
-10.45
-14.42
-19.14
-24.37
-29.87
-35.25
-39.85
-42.69
-42.71
-39.21
-32.22
-22.61
-11.91
-1.74
6.68
12.79
16.66
18.68
19.25
18.59
16.85
14.20
10.95
7.59
4.58
2.29
0.81
0.09
-0.10
-0.05
-0.22
-1.19
-3.65
-8.16
-14.72
-22.61
-30.32
-35.97
-37.93
-35.43
-28.84
-19.44
-8.91
1.26
10.12
17.27
22.63
26.25
28.13
28.36
27.08
24.64
21.52
18.21
15.14
12.64
10.84
9.67
8.88
8.07
6.77
4.55
1.09
-3.75
-9.86
-16.85
-23.94
-29.95
-33.44
-33.11
-28.26
-19.18
-7.22
5.51
16.81
25.05
29.60
30.76
29.43
26.64
23.15
19.42
15.69
12.26
9.48
7.75
7.21
7.66
8.49
8.95
8.39
6.48
3.20
-1.29
-6.77
-12.98
-19.51
-25.57
-30.04
-31.73
-29.79
-24.23
-15.96
-6.48
2.65
10.30
16.00
19.77
21.75
22.02
20.54
17.38
12.96
8.01
3.41
-0.11
-2.23
-3.11
-3.21
-3.13
-3.34
-4.17
-5.81
-8.42
-12.17
-17.14
-23.12
-29.41
-34.79
-37.81
-37.28
-32.81
-24.95
-15.12
-4.96
4.11
11.33
16.49
19.68
20.96
20.30
17.70
13.39
7.97
2.30
-2.79
-6.75
-9.41
-10.97
-11.87
-12.61
-13.70
-15.53
-18.48
-22.70
-28.10
-34.17
-39.95
-44.17
-45.61
-43.43
-37.57
-28.79
-18.51
-8.37
0.27
6.69
10.87
13.26
14.44
14.84
14.56
13.50
11.56
8.86
5.84
3.07
1.07
-0.02
-0.43
-0.72
-1.49
-3.13
-5.80
-9.43
-13.89
-18.97
-24.28
-29.08
-32.28
-32.67
-29.40
-22.34
-12.31
-0.81
10.46
20.12
27.42
32.19
34.70
35.39
34.71
33.08
30.91
28.60
26.41
24.53
22.87
21.22
19.20
16.37
12.41
7.11
0.48
-7.29
-15.85
-24.73
-33.31
-40.70
-45.75
-47.26
-44.34
-36.92
-25.91
-13.18
-0.97
8.79
15.07
17.80
17.76
15.95
13.20
9.95
6.40
2.68
-0.88
-3.88
-6.02
-7.29
-8.10
-9.05
-10.69
-13.24
-16.64
-20.66
-25.13
-30.04
-35.28
-40.47
-44.75
-46.91
-45.84
-41.04
-32.85
-22.40
-11.22
-0.69
8.24
15.10
19.68
21.85
21.47
18.59
13.64
7.44
1.10
-4.38
-8.38
-10.86
-12.19
-13.00
-13.84
-15.06
-16.86
-19.43
-23.04
-27.99
-34.31
-41.51
-48.41
-53.35
-54.73
-51.63
-44.30
-34.12
-23.14
-13.27
-5.71
-0.71
2.13
3.39
3.46
2.44
0.40
-2.36
-5.15
-7.06
-7.28
-5.47
-1.93
2.44
6.37
8.58
8.09
4.36
-2.64
-12.43
-24.06
-36.12
-46.82
-54.29
-56.95
-53.95
-45.56
-33.12
-18.64
-4.28
8.28
18.13
24.98
29.01
30.52
29.90
27.61
24.24
20.50
17.04
14.28
12.31
10.90
9.68
8.27
6.38
3.84
0.48
-3.98
-9.75
-16.87
-24.84
-32.48
-38.17
-40.16
-37.28
-29.35
-17.40
-3.29
10.89
23.40
33.28
40.25
44.49
46.34
46.14
44.26
41.22
37.64
34.15
31.22
28.96
27.18
25.47
23.43
20.77
17.37
13.22
8.21
2.09
-5.40
-14.23
-23.75
-32.50
-38.48
-39.68
-34.93
-24.42
-9.76
6.52
21.78
34.09
42.52
47.07
48.35
47.17
44.36
40.71
36.93
33.57
30.88
28.78
26.92
24.89
22.35
19.19
15.45
11.16
6.26
0.50
-6.39
-14.54
-23.57
-32.45
-39.55
-42.99
-41.28
-33.89
-21.56
-6.19
9.76
23.99
34.98
42.13
45.57
45.77
43.27
38.55
32.21
25.02
17.95
11.93
7.60
5.10
4.03
3.60
2.93
1.27
-1.88
-6.85
-13.79
-22.62
-32.79
-43.06
-51.59
-56.25
-55.28
-48.03
-35.29
-19.08
-2.01
13.60
26.27
35.50
41.49
44.58
45.03
42.97
38.66
32.69
26.01
19.76
14.85
11.69
10.05
9.22
8.33
6.64
3.68
-0.73
-6.62
-13.91
-22.23
-30.77
-38.12
-42.52
-42.29
-36.51
-25.45
-10.61
5.70
21.12
33.81
42.86
48.14
50.05
49.16
46.04
41.24
35.42
29.40
24.09
20.30
18.42
18.29
19.16
19.93
19.55
17.24
12.73
6.05
-2.49
-12.38
-22.73
-32.15
-38.78
-40.69
-36.58
-26.41
-11.61
5.31
21.52
34.78
43.93
48.96
50.58
49.71
47.12
43.35
38.81
33.90
29.11
24.96
21.85
20.01
19.38
19.60
20.07
20.00
18.55
15.05
9.14
0.94
-8.81
-18.88
-27.61
-33.27
-34.44
-30.39
-21.39
-8.68
5.81
19.95
31.98
40.78
46.02
47.97
47.20
44.35
40.06
34.90
29.51
24.56
20.71
18.42
17.74
18.23
19.10
19.39
18.30
15.34
10.36
3.51
-4.81
-13.93
-22.79
-29.93
-33.79
-33.12
-27.48
-17.52
-4.87
8.29
19.91
28.54
33.60
35.24
34.10
30.95
26.53
21.43
16.16
11.16
6.87
3.59
1.44
0.23
-0.46
-1.17
-2.42
-4.50
-7.66
-12.03
-17.70
-24.50
-31.84
-38.55
-43.03
-43.79
-39.97
-31.86
-20.81
-8.83
2.10
10.61
16.17
18.92
19.35
17.94
15.06
11.05
6.33
1.50
-2.83
-6.18
-8.41
-9.71
-10.51
-11.30
-12.46
-14.29
-17.09
-21.12
-26.57
-33.27
-40.48
-46.87
-50.79
-50.81
-46.24
-37.52
-26.06
-13.83
-2.65
6.26
12.47
16.17
17.84
17.86
16.51
13.98
10.54
6.63
2.82
-0.41
-2.80
-4.39
-5.38
-5.99
-6.39
-6.68
-7.10
-8.11
-10.38
-14.36
-19.97
-26.35
-31.93
-34.97
-34.18
-29.24
-20.91
-10.74
-0.48
8.39
15.04
19.19
20.98
20.70
18.71
15.43
11.45
7.45
4.13
2.00
1.16
1.33
1.86
2.07
1.41
-0.39
-3.32
-7.19
-11.75
-16.67
-21.54
-25.76
-28.51
-28.96
-26.42
-20.72
-12.36
-2.47
7.44
15.98
22.17
25.71
26.86
26.17
24.18
21.34
17.99
14.45
11.11
8.31
6.28
5.05
4.46
4.23
4.06
3.68
2.82
1.14
-1.65
-5.74
-10.99
-16.87
-22.35
-26.16
-27.07
-24.37
-18.16
-9.44
0.19
9.00
15.69
19.70
21.18
20.69
18.88
16.19
12.94
9.37
5.80
2.66
0.37
-0.83
-1.06
-0.69
-0.26
-0.36
-1.40
-3.65
-7.24
-12.14
-18.09
-24.61
-30.85
-35.73
-38.13
-37.26
-32.89
-25.62
-16.65
-7.48
0.56
6.67
10.60
12.59
13.05
12.43
11.00
8.96
6.45
3.61
0.63
-2.16
-4.37
-5.68
-5.98
-5.54
-5.04
-5.45
-7.66
-12.16
-18.79
-26.73
-34.74
-41.29
-45.01
-44.95
-40.82
-33.18
-23.30
-12.91
-3.71
3.11
7.10
8.51
7.91
5.96
3.18
-0.11
-3.61
-6.98
-9.86
-11.95
-13.19
-13.76
-14.05
-14.50
-15.50
-17.28
-19.94
-23.56
-28.09
-33.31
-38.66
-43.13
-45.47
-44.50
-39.65
-31.28
-20.71
-9.74
-0.13
6.98
11.25
13.07
13.14
12.23
10.91
9.50
8.17
6.90
5.58
4.04
2.13
-0.18
-2.82
-5.61
-8.37
-11.09
-13.96
-17.42
-21.88
-27.56
-34.12
-40.58
-45.41
-47.04
-44.33
-37.19
-26.61
-14.39
-2.60
7.20
14.17
18.28
19.93
19.69
18.04
15.36
11.99
8.35
4.88
1.98
-0.16
-1.55
-2.48
-3.32
-4.46
-6.15
-8.49
-11.53
-15.28
-19.78
-24.89
-30.15
-34.65
-37.15
-36.46
-31.94
-23.82
-13.25
-1.84
8.82
17.66
24.21
28.51
30.78
31.23
30.06
27.57
24.18
20.50
17.09
14.38
12.50
11.31
10.46
9.54
8.12
5.88
2.65
-1.61
-6.84
-12.83
-19.17
-25.17
-29.82
-31.98
-30.70
-25.59
-17.16
-6.70
4.06
13.56
20.80
25.51
28.00
28.74
28.17
26.53
23.97
20.71
17.13
13.68
10.76
8.63
7.21
6.21
5.15
3.54
0.93
-3.03
-8.54
-15.58
-23.75
-32.18
-39.50
-44.07
-44.47
-39.97
-30.91
-18.62
-5.00
8.10
19.32
27.99
33.99
37.37
38.26
36.76
33.12
27.86
21.78
15.80
10.72
7.04
4.77
3.53
2.65
1.33
-1.13
-5.23
-11.24
-19.06
-28.18
-37.61
-45.87
-51.22
-52.04
-47.37
-37.37
-23.39
-7.66
7.45
20.09
29.46
35.68
39.33
41.00
40.93
39.08
35.43
30.29
24.39
18.71
14.07
10.82
8.75
7.21
5.44
2.75
-1.30
-6.94
-14.15
-22.68
-31.78
-40.12
-45.87
-47.21
-42.87
-32.76
-18.16
-1.35
15.04
28.91
39.15
45.66
48.98
49.78
48.59
45.67
41.31
36.00
30.47
25.58
21.99
19.95
19.19
19.03
18.66
17.31
14.45
9.74
3.04
-5.46
-15.12
-24.68
-32.30
-35.97
-34.17
-26.45
-13.79
1.71
17.48
31.29
41.74
48.46
51.76
52.22
50.47
47.00
42.30
36.93
31.51
26.62
22.75
20.04
18.32
17.16
15.95
14.14
11.28
7.10
1.41
-5.85
-14.45
-23.58
-31.76
-36.96
-37.14
-31.06
-18.89
-2.38
15.69
32.38
45.49
54.09
58.38
59.23
57.62
54.30
49.79
44.52
39.01
33.87
29.67
26.72
24.90
23.70
22.43
20.44
17.37
13.09
7.61
1.02
-6.56
-14.70
-22.48
-28.45
-30.94
-28.69
-21.40
-10.00
3.57
17.02
28.39
36.59
41.40
43.24
42.78
40.63
37.28
33.09
28.52
24.05
20.19
17.29
15.41
14.27
13.32
12.00
9.84
6.59
2.08
-3.80
-11.15
-19.79
-28.90
-36.99
-42.08
-42.39
-37.08
-26.78
-13.39
0.53
12.71
21.84
27.65
30.61
31.33
30.26
27.62
23.62
18.73
13.70
9.36
6.27
4.48
3.56
2.79
1.51
-0.68
-3.90
-8.22
-13.69
-20.33
-27.96
-35.89
-42.84
-47.22
-47.58
-43.23
-34.56
-22.92
-10.30
1.46
11.04
17.89
22.05
23.91
23.82
22.10
18.98
14.81
10.10
5.48
1.56
-1.33
-3.20
-4.36
-5.26
-6.33
-7.89
-10.18
-13.44
-17.84
-23.37
-29.56
-35.37
-39.40
-40.23
-36.99
-29.75
-19.53
-8.01
3.04
12.23
18.84
22.75
24.21
23.59
21.32
17.81
13.57
9.17
5.19
2.03
-0.17
-1.55
-2.41
-3.11
-3.95
-5.20
-7.18
-10.27
-14.80
-20.84
-27.86
-34.68
-39.71
-41.38
-38.77
-31.93
-21.90
-10.39
0.83
10.37
17.47
21.94
24.00
24.07
22.55
19.85
16.38
12.61
9.02
6.02
3.86
2.53
1.76
1.14
0.25
-1.19
-3.33
-6.20
-9.82
-14.20
-19.19
-24.37
-28.89
-31.63
-31.45
-27.73
-20.61
-11.14
-0.92
8.36
15.53
20.13
22.43
22.99
22.33
20.73
18.27
15.12
11.72
8.80
7.07
6.90
8.04
9.69
10.83
10.59
8.58
4.89
-0.06
-5.86
-12.13
-18.46
-24.25
-28.55
-30.25
-28.48
-23.01
-14.53
-4.52
5.21
13.15
18.44
21.04
21.44
20.36
18.38
15.87
13.01
9.92
6.81
3.93
1.52
-0.25
-1.45
-2.28
-3.02
-3.97
-5.43
-7.68
-11.00
-15.49
-20.91
-26.55
-31.27
-33.81
-33.20
-29.16
-22.28
-13.80
-5.16
2.42
8.21
11.97
13.75
13.69
11.99
8.90
4.87
0.56
-3.32
-6.17
-7.74
-8.13
-7.81
-7.36
-7.32
-8.09
-9.89
-12.85
-17.04
-22.35
-28.43
-34.51
-39.51
-42.23
-41.78
-37.88
-31.08
-22.54
-13.68
-5.78
0.40
4.65
7.16
8.23
8.12
6.99
5.04
2.56
-0.02
-2.24
-3.72
-4.34
-4.29
-3.95
-3.82
-4.31
-5.71
-8.20
-11.87
-16.68
-22.38
-28.30
-33.38
-36.27
-35.83
-31.56
-23.90
-14.17
-4.18
4.39
10.52
13.99
15.27
15.10
14.14
12.78
11.11
9.17
7.00
4.86
3.04
1.79
1.15
0.85
0.45
-0.52
-2.37
-5.22
-9.03
-13.66
-18.91
-24.31
-29.07
-32.08
-32.22
-28.86
-22.20
-13.31
-3.84
4.60
11.01
15.18
17.53
18.66
19.07
18.92
18.24
17.02
15.42
13.70
12.14
10.88
9.87
8.89
7.68
6.06
3.90
1.21
-2.03
-5.92
-10.48
-15.57
-20.63
-24.68
-26.50
-25.04
-19.91
-11.64
-1.61
8.36
16.64
22.19
24.82
25.00
23.51
21.11
18.38
15.67
13.20
11.12
9.54
8.48
7.87
7.49
7.08
6.37
5.12
3.21
0.45
-3.30
-8.11
-13.82
-19.87
-25.28
-28.86
-29.48
-26.57
-20.33
-11.75
-2.29
6.54
13.67
18.56
21.21
21.85
20.86
18.59
15.42
11.85
8.42
5.58
3.57
2.31
1.50
0.77
-0.18
-1.52
-3.34
-5.79
-9.04
-13.29
-18.50
-24.25
-29.72
-33.75
-35.22
-33.39
-28.26
-20.58
-11.72
-3.17
3.87
8.74
11.37
12.11
11.46
9.92
7.89
5.69
3.56
1.61
-0.14
-1.81
-3.55
-5.45
-7.55
-9.84
-12.37
-15.34
-19.09
-23.98
-30.13
-37.20
-44.22
-49.79
-52.40
-51.00
-45.37
-36.29
-25.30
-14.16
-4.34
3.42
9.02
12.78
15.03
15.95
15.56
13.89
11.19
8.01
5.03
2.79
1.52
0.98
0.65
-0.07
-1.60
-4.10
-7.62
-12.16
-17.72
-24.14
-30.85
-36.74
-40.27
-40.01
-35.25
-26.35
-14.76
-2.48
8.58
17.25
23.25
26.95
28.92
29.57
29.01
27.24
24.38
20.85
17.32
14.48
12.72
11.97
11.74
11.34
10.15
7.82
4.22
-0.64
-6.72
-13.84
-21.51
-28.70
-33.91
-35.52
-32.41
-24.51
-12.92
0.45
13.54
24.80
33.49
39.52
43.05
44.18
42.95
39.54
34.52
28.78
23.35
18.97
15.87
13.76
12.05
10.24
8.01
5.27
1.91
-2.30
-7.66
-14.36
-22.09
-29.88
-36.08
-38.89
-36.92
-29.78
-18.37
-4.54
9.41
21.57
30.76
36.75
39.84
40.60
39.55
37.13
33.80
30.05
26.44
23.43
21.29
19.97
19.21
18.58
17.67
16.16
13.80
10.46
5.93
0.07
-7.02
-14.78
-22.08
-27.27
-28.73
-25.36
-17.19
-5.40
7.96
20.63
30.83
37.64
41.06
41.68
40.33
37.74
34.40
30.63
26.63
22.65
19.02
16.04
13.92
12.60
11.78
10.95
9.62
7.37
3.92
-0.87
-6.93
-13.95
-21.15
-27.25
-30.71
-30.21
-25.16
-16.05
-4.41
7.75
18.53
26.70
31.84
34.17
34.18
32.37
29.20
25.12
20.68
16.44
12.91
10.32
8.62
7.49
6.48
5.21
3.38
0.78
-2.82
-7.64
-13.82
-21.17
-28.95
-35.84
-40.20
-40.60
-36.35
-27.87
-16.54
-4.38
6.75
15.49
21.33
24.33
24.91
23.53
20.62
16.55
11.82
7.03
2.84
-0.25
-2.06
-2.79
-2.99
-3.28
-4.19
-6.03
-8.93
-12.97
-18.22
-24.59
-31.54
-37.99
-42.40
-43.20
-39.47
-31.31
-19.95
-7.32
4.58
14.29
21.15
25.20
26.87
26.66
25.00
22.24
18.79
15.14
11.80
9.16
7.39
6.32
5.59
4.71
3.29
1.03
-2.24
-6.62
-12.21
-18.90
-26.19
-33.10
-38.20
-39.94
-37.28
-30.08
-19.28
-6.66
5.81
16.46
24.43
29.50
31.98
32.28
30.77
27.82
23.91
19.63
15.66
12.51
10.39
9.13
8.32
7.51
6.32
4.55
2.05
-1.41
-6.05
-12.01
-19.00
-26.17
-32.16
-35.42
-34.70
-29.56
-20.58
-9.20
2.74
13.51
21.98
27.67
30.70
31.51
30.59
28.33
25.07
21.15
16.99
13.08
9.88
7.66
6.38
5.69
5.06
3.98
2.05
-0.94
-5.03
-10.17
-16.09
-22.24
-27.63
-30.99
-31.06
-27.13
-19.36
-8.94
2.35
12.67
20.73
26.00
28.65
29.21
28.21
26.01
22.91
19.20
15.31
11.79
9.09
7.42
6.61
6.22
5.70
4.61
2.73
0.03
-3.43
-7.66
-12.64
-18.16
-23.62
-27.98
-29.92
-28.34
-22.86
-14.06
-3.36
7.41
16.68
23.53
27.77
29.73
29.89
28.61
26.13
22.70
18.72
14.78
11.50
9.31
8.28
8.11
8.29
8.25
7.62
6.23
3.99
0.86
-3.22
-8.24
-13.85
-19.27
-23.29
-24.65
-22.41
-16.51
-7.80
2.11
11.38
18.55
22.86
24.29
23.44
21.08
17.92
14.44
10.97
7.75
4.99
2.88
1.52
0.80
0.39
-0.16
-1.28
-3.31
-6.35
-10.40
-15.35
-20.98
-26.84
-32.14
-35.86
-36.90
-34.55
-28.77
-20.34
-10.61
-1.11
6.94
12.89
16.58
18.27
18.29
16.95
14.55
11.42
8.00
4.72
2.02
0.08
-1.10
-1.78
-2.32
-3.16
-4.65
-7.09
-10.67
-15.46
-21.34
-27.80
-33.96
-38.63
-40.55
-38.85
-33.42
-25.06
-15.27
-5.81
1.88
7.03
9.59
10.04
8.95
6.79
3.90
0.56
-2.81
-5.73
-7.75
-8.64
-8.56
-7.96
-7.47
-7.68
-8.96
-11.44
-15.09
-19.76
-25.18
-30.82
-35.92
-39.43
-40.28
-37.77
-31.84
-23.22
-13.31
-3.71
4.18
9.61
12.54
13.42
12.92
11.61
9.83
7.71
5.36
2.94
0.73
-0.97
-1.99
-2.38
-2.45
-2.65
-3.45
-5.22
-8.15
-12.30
-17.58
-23.62
-29.72
-34.82
-37.68
-37.27
-33.15
-25.80
-16.49
-6.89
1.49
7.76
11.73
13.77
14.41
14.08
13.03
11.37
9.26
6.96
4.78
2.96
1.60
0.57
-0.37
-1.50
-3.06
-5.20
-8.02
-11.65
-16.14
-21.36
-26.85
-31.69
-34.67
-34.62
-30.87
-23.56
-13.75
-3.07
6.78
14.59
19.87
22.80
23.90
23.71
22.58
20.71
18.29
15.66
13.26
11.50
10.57
10.32
10.30
10.01
9.06
7.32
4.81
1.58
-2.44
-7.40
-13.25
-19.52
-25.20
-28.93
-29.50
-26.31
-19.70
-10.89
-1.46
7.08
13.82
18.48
21.27
22.56
22.67
21.74
19.91
17.39
14.55
11.84
9.66
8.24
7.49
7.10
6.63
5.61
3.69
0.68
-3.53
-8.94
-15.41
-22.59
-29.72
-35.68
-39.18
-39.19
-35.31
-28.06
-18.72
-8.91
-0.06
7.00
12.06
15.31
17.02
17.35
16.38
14.26
11.37
8.29
5.62
3.79
2.87
2.58
2.40
1.80
0.34
-2.28
-6.24
-11.58
-18.13
-25.35
-32.29
-37.64
-40.03
-38.50
-32.89
-24.01
-13.46
-2.97
6.02
12.80
17.33
19.98
21.11
20.92
19.49
16.89
13.46
9.75
6.40
3.91
2.42
1.68
1.21
0.45
-1.07
-3.69
-7.67
-13.13
-20.04
-27.88
-35.62
-41.62
-44.17
-41.96
-34.69
-23.32
-9.73
3.89
15.80
25.12
31.81
36.28
38.95
39.98
39.33
36.99
33.28
28.85
24.53
21.01
18.61
17.13
16.04
14.69
12.51
9.15
4.38
-1.89
-9.59
-18.31
-27.11
-34.48
-38.66
-38.16
-32.33
-21.77
-8.14
6.27
19.35
29.74
37.09
41.81
44.57
45.93
46.07
44.94
42.56
39.21
35.47
32.03
29.39
27.59
26.32
25.02
23.21
20.57
16.94
12.17
6.12
-1.20
-9.37
-17.35
-23.57
-26.39
-24.65
-18.19
-7.94
4.39
16.84
27.77
36.25
42.04
45.38
46.68
46.31
44.53
41.56
37.74
33.55
29.58
26.38
24.23
23.00
22.23
21.28
19.56
16.71
12.53
6.96
0.05
-7.99
-16.46
-24.21
-29.70
-31.47
-28.77
-21.87
-12.07
-1.28
8.72
16.75
22.47
26.10
28.07
28.71
28.18
26.56
24.10
21.26
18.60
16.58
15.37
14.75
14.31
13.54
12.09
9.76
6.42
1.97
-3.67
-10.41
-17.73
-24.59
-29.53
-31.10
-28.41
-21.53
-11.58
-0.36
10.22
18.75
24.59
27.83
28.97
28.53
26.90
24.26
20.88
17.12
13.57
10.78
9.10
8.42
8.25
7.93
6.80
4.47
0.76
-4.31
-10.64
-17.93
-25.55
-32.47
-37.31
-38.76
-36.04
-29.29
-19.60
-8.70
1.60
9.94
15.73
19.11
20.60
20.80
20.08
18.60
16.38
13.56
10.45
7.50
5.15
3.65
2.94
2.65
2.27
1.28
-0.71
-3.93
-8.44
-14.05
-20.26
-26.14
-30.48
-32.00
-29.87
-24.00
-15.24
-5.13
4.63
12.65
18.22
21.38
22.59
22.41
21.30
19.51
17.19
14.55
11.89
9.55
7.78
6.63
5.94
5.42
4.79
3.84
2.47
0.54
-2.09
-5.53
-9.73
-14.24
-18.23
-20.58
-20.32
-16.93
-10.69
-2.63
5.78
13.12
18.42
21.39
22.31
21.78
20.40
18.52
16.37
14.04
11.69
9.57
7.94
6.93
6.44
6.15
5.65
4.68
3.12
1.01
-1.66
-4.97
-9.02
-13.68
-18.44
-22.30
-24.06
-22.76
-18.17
-10.95
-2.52
5.40
11.41
14.77
15.51
14.22
11.71
8.67
5.61
2.77
0.27
-1.79
-3.35
-4.36
-4.89
-5.11
-5.28
-5.61
-6.27
-7.31
-8.79
-10.76
-13.30
-16.40
-19.81
-22.98
-25.10
-25.39
-23.35
-19.07
-13.25
-6.92
-1.20
3.13
5.69
6.53
5.98
4.41
2.19
-0.42
-3.19
-5.85
-8.12
-9.77
-10.68
-10.95
-10.88
-10.91
-11.45
-12.78
-15.02
-18.16
-22.09
-26.55
-31.04
-34.73
-36.61
-35.80
-31.90
-25.36
-17.31
-9.31
-2.71
1.73
3.94
4.41
3.77
2.56
1.10
-0.46
-2.03
-3.55
-4.94
-6.15
-7.19
-8.10
-8.92
-9.69
-10.41
-11.18
-12.20
-13.76
-16.20
-19.66
-23.91
-28.21
-31.43
-32.40
-30.34
-25.28
-18.02
-9.97
-2.57
3.10
6.63
8.11
8.03
6.87
5.11
3.09
1.18
-0.30
-1.11
-1.19
-0.74
-0.12
0.18
-0.25
-1.58
-3.76
-6.60
-9.88
-13.51
-17.49
-21.68
-25.68
-28.69
-29.72
-28.00
-23.37
-16.49
-8.62
-1.21
4.63
8.43
10.30
10.69
10.08
8.77
6.90
4.63
2.15
-0.20
-2.10
-3.33
-3.90
-4.05
-4.15
-4.54
-5.48
-7.07
-9.33
-12.34
-16.17
-20.81
-25.90
-30.60
-33.68
-33.92
-30.65
-24.09
-15.39
-6.21
1.86
7.79
11.34
12.90
13.05
12.30
10.94
9.08
6.88
4.58
2.48
0.82
-0.29
-1.00
-1.57
-2.27
-3.29
-4.74
-6.69
-9.23
-12.49
-16.48
-20.98
-25.35
-28.60
-29.65
-27.67
-22.49
-14.74
-5.71
2.99
10.01
14.57
16.61
16.64
15.36
13.40
11.09
8.58
5.99
3.51
1.44
0.06
-0.51
-0.45
-0.12
0.02
-0.39
-1.59
-3.71
-6.85
-11.10
-16.41
-22.31
-27.92
-32.01
-33.37
-31.31
-26.03
-18.60
-10.57
-3.47
1.73
4.70
5.68
5.11
3.39
0.84
-2.20
-5.30
-7.91
-9.54
-9.96
-9.36
-8.22
-7.12
-6.49
-6.55
-7.39
-9.16
-12.14
-16.58
-22.48
-29.28
-35.83
-40.69
-42.54
-40.67
-35.21
-27.06
-17.59
-8.22
-0.10
6.09
10.09
11.95
11.90
10.24
7.27
3.39
-0.91
-5.02
-8.34
-10.46
-11.27
-11.05
-10.36
-9.90
-10.30
-12.10
-15.66
-21.14
-28.31
-36.42
-44.14
-49.71
-51.50
-48.48
-40.71
-29.30
-16.12
-3.17
8.01
16.58
22.41
25.75
27.02
26.57
24.74
21.93
18.69
15.63
13.29
11.91
11.31
10.98
10.29
8.77
6.15
2.36
-2.61
-8.77
-16.00
-23.77
-31.01
-36.15
-37.59
-34.30
-26.27
-14.59
-1.13
12.10
23.50
32.23
38.14
41.50
42.74
42.19
40.18
37.06
33.31
29.54
26.36
24.14
22.95
22.47
22.15
21.42
19.81
17.06
12.98
7.46
0.53
-7.39
-15.28
-21.56
-24.42
-22.37
-14.95
-2.94
11.73
26.65
39.60
49.18
55.04
57.63
57.81
56.46
54.19
51.32
47.93
44.13
40.08
36.06
32.38
29.24
26.65
24.40
22.12
19.35
15.65
10.64
4.11
-3.73
-12.09
-19.61
-24.57
-25.36
-21.08
-11.97
0.66
14.71
27.98
38.77
46.21
50.20
51.20
49.74
46.36
41.52
35.75
29.69
24.08
19.54
16.40
14.54
13.53
12.70
11.44
9.22
5.63
0.38
-6.63
-15.04
-23.90
-31.68
-36.56
-37.03
-32.42
-23.19
-10.86
2.49
14.93
25.06
32.28
36.62
38.37
37.92
35.61
31.80
27.00
21.93
17.31
13.71
11.38
10.08
9.30
8.37
6.71
3.89
-0.35
-6.12
-13.35
-21.62
-30.10
-37.48
-42.17
-42.74
-38.37
-29.27
-16.64
-2.40
11.44
23.30
32.31
38.28
41.50
42.33
41.07
38.04
33.64
28.51
23.48
19.34
16.58
15.19
14.69
14.25
13.09
10.62
6.56
0.92
-6.06
-13.82
-21.46
-27.68
-31.08
-30.43
-25.23
-15.99
-4.13
8.39
19.74
28.73
35.04
38.94
40.99
41.58
40.89
38.94
35.85
32.01
28.01
24.46
21.79
20.05
18.93
17.91
16.47
14.18
10.74
5.96
-0.18
-7.40
-15.00
-21.78
-26.30
-27.20
-23.71
-16.07
-5.44
6.36
17.50
26.66
33.25
37.31
39.17
39.23
37.73
34.92
31.19
27.10
23.31
20.34
18.36
17.18
16.36
15.38
13.89
11.67
8.64
4.70
-0.23
-6.10
-12.57
-18.87
-23.82
-26.14
-24.87
-19.79
-11.59
-1.77
7.89
15.88
21.35
24.27
25.14
24.61
23.19
21.14
18.60
15.77
13.01
10.75
9.30
8.64
8.44
8.19
7.43
5.92
3.64
0.68
-2.97
-7.34
-12.42
-17.82
-22.74
-26.05
-26.74
-24.34
-19.15
-12.19
-4.82
1.78
6.88
10.29
12.17
12.74
12.15
10.52
7.98
4.82
1.48
-1.55
-3.89
-5.39
-6.17
-6.56
-6.92
-7.56
-8.69
-10.44
-12.91
-16.17
-20.11
-24.30
-27.91
-29.89
-29.34
-25.85
-19.79
-12.19
-4.38
2.44
7.56
10.78
12.29
12.39
11.34
9.33
6.52
3.19
-0.26
-3.38
-5.76
-7.18
-7.74
-7.79
-7.83
-8.39
-9.84
-12.38
-16.02
-20.54
-25.53
-30.31
-33.94
-35.43
-34.02
-29.56
-22.66
-14.60
-6.90
-0.77
3.26
5.35
6.08
6.03
5.51
4.51
2.95
0.88
-1.40
-3.47
-4.95
-5.78
-6.21
-6.63
-7.45
-8.87
-10.97
-13.77
-17.32
-21.63
-26.53
-31.43
-35.37
-37.22
-36.12
-31.85
-25.04
-16.96
-9.14
-2.79
1.48
3.71
4.37
3.96
2.85
1.22
-0.80
-2.96
-4.85
-6.03
-6.26
-5.57
-4.35
-3.16
-2.53
-2.78
-4.08
-6.44
-9.84
-14.22
-19.31
-24.51
-28.85
-31.19
-30.61
-26.79
-20.25
-12.25
-4.29
2.33
6.97
9.67
10.94
11.32
11.18
10.61
9.61
8.24
6.71
5.30
4.26
3.68
3.43
3.20
2.66
1.51
-0.41
-3.14
-6.68
-10.94
-15.69
-20.45
-24.45
-26.71
-26.30
-22.72
-16.20
-7.79
0.97
8.50
13.71
16.28
16.63
15.58
13.95
12.28
10.77
9.34
7.86
6.29
4.74
3.42
2.50
1.98
1.76
1.58
1.10
0.03
-1.91
-4.83
-8.64
-13.01
-17.24
-20.43
-21.64
-20.24
-16.14
-9.95
-2.83
3.84
8.92
11.79
12.45
11.39
9.22
6.52
3.66
0.88
-1.65
-3.73
-5.16
-5.84
-5.84
-5.40
-4.92
-4.75
-5.22
-6.51
-8.72
-11.90
-15.98
-20.62
-25.17
-28.64
-29.94
-28.33
-23.69
-16.76
-8.85
-1.47
4.18
7.55
8.74
8.28
6.80
4.79
2.57
0.29
-1.96
-4.11
-6.09
-7.84
-9.32
-10.58
-11.68
-12.77
-14.05
-15.75
-18.13
-21.35
-25.42
-30.05
-34.63
-38.23
-39.81
-38.55
-34.17
-27.13
-18.60
-10.01
-2.71
2.51
5.47
6.51
6.21
5.18
3.85
2.48
1.24
0.20
-0.61
-1.20
-1.64
-2.08
-2.70
-3.69
-5.19
-7.30
-10.06
-13.58
-17.90
-22.94
-28.26
-32.96
-35.81
-35.66
-31.92
-24.93
-15.98
-6.83
0.86
6.18
9.09
10.22
10.41
10.24
9.90
9.23
8.10
6.51
4.75
3.17
1.99
1.17
0.41
-0.65
-2.27
-4.46
-7.05
-9.95
-13.17
-16.84
-20.96
-25.08
-28.32
-29.49
-27.59
-22.34
-14.38
-5.12
3.77
10.92
15.73
18.35
19.42
19.65
19.54
19.23
18.68
17.80
16.60
15.21
13.84
12.62
11.56
10.55
9.39
7.93
6.04
3.59
0.43
-3.59
-8.46
-13.85
-18.94
-22.57
-23.55
-21.12
-15.37
-7.22
1.83
10.23
16.81
21.10
23.16
23.39
22.27
20.21
17.51
14.47
11.35
8.41
5.86
3.79
2.19
0.95
-0.09
-1.12
-2.34
-4.08
-6.70
-10.53
-15.67
-21.74
-27.80
-32.51
-34.50
-32.89
-27.62
-19.53
-10.01
-0.53
7.74
14.17
18.57
21.01
21.67
20.74
18.48
15.25
11.55
7.90
4.78
2.46
0.97
0.04
-0.78
-1.95
-3.84
-6.69
-10.64
-15.73
-21.84
-28.53
-34.91
-39.66
-41.35
-38.93
-32.26
-22.18
-10.39
1.24
11.14
18.53
23.32
25.92
26.82
26.33
24.63
21.86
18.31
14.45
10.86
8.01
6.18
5.28
4.93
4.60
3.69
1.67
-1.87
-7.12
-13.96
-21.76
-29.36
-35.16
-37.57
-35.48
-28.76
-18.37
-6.05
6.22
16.82
24.85
30.10
32.86
33.52
32.49
30.13
26.88
23.26
19.81
17.00
15.05
13.93
13.40
13.09
12.57
11.44
9.32
5.91
1.06
-5.12
-12.11
-18.97
-24.37
-26.92
-25.54
-19.88
-10.51
1.23
13.58
24.93
34.14
40.70
44.65
46.34
46.18
44.58
41.89
38.50
34.83
31.33
28.41
26.30
24.99
24.18
23.35
21.93
19.42
15.49
10.04
3.19
-4.62
-12.60
-19.61
-24.23
-25.22
-21.88
-14.39
-3.88
7.89
19.09
28.32
34.92
38.87
40.59
40.56
39.19
36.74
33.52
29.88
26.24
22.97
20.27
18.10
16.15
14.08
11.59
8.52
4.79
0.28
-5.15
-11.54
-18.63
-25.63
-31.25
-34.06
-33.01
-27.82
-19.20
-8.56
2.40
12.27
20.18
25.84
29.31
30.79
30.50
28.68
25.66
21.89
17.90
14.19
11.13
8.89
7.38
6.33
5.31
3.84
1.45
-2.25
-7.46
-14.04
-21.36
-28.30
-33.38
-35.14
-32.65
-25.91
-15.96
-4.56
6.34
15.27
21.51
25.09
26.44
26.07
24.35
21.56
18.02
14.15
10.43
7.25
4.76
2.83
1.14
-0.57
-2.47
-4.62
-7.10
-10.14
-14.03
-18.99
-24.80
-30.59
-34.98
-36.42
-33.83
-27.06
-17.05
-5.57
5.51
14.79
21.65
26.17
28.76
29.77
29.38
27.60
24.61
20.87
17.06
13.84
11.64
10.44
9.88
9.41
8.54
6.94
4.43
0.91
-3.70
-9.38
-15.79
-22.10
-27.09
-29.35
-27.85
-22.38
-13.71
-3.45
6.58
14.89
20.75
24.19
25.72
25.89
25.12
23.57
21.33
18.62
15.81
13.32
11.48
10.31
9.57
8.86
7.79
6.12
3.69
0.39
-3.89
-9.18
-15.17
-21.10
-25.77
-27.89
-26.46
-21.28
-13.01
-3.03
7.01
15.73
22.29
26.47
28.49
28.79
27.85
26.05
23.73
21.16
18.54
16.08
13.90
12.10
10.64
9.46
8.39
7.21
5.61
3.26
-0.19
-4.90
-10.69
-16.89
-22.34
-25.73
-25.92
-22.45
-15.73
-6.96
2.22
10.33
16.40
20.12
21.75
21.76
20.66
18.83
16.58
14.12
11.65
9.38
7.41
5.79
4.47
3.33
2.19
0.86
-0.81
-3.08
-6.21
-10.48
-15.96
-22.30
-28.67
-33.78
-36.32
-35.45
-31.14
-24.25
-16.17
-8.27
-1.52
3.66
7.27
9.43
10.21
9.71
8.09
5.76
3.25
1.07
-0.42
-1.14
-1.26
-1.08
-0.95
-1.20
-2.16
-4.17
-7.49
-12.22
-18.11
-24.47
-30.20
-34.03
-34.86
-32.24
-26.48
-18.68
-10.33
-2.82
2.90
6.53
8.23
8.39
7.35
5.38
2.67
-0.49
-3.72
-6.64
-8.94
-10.50
-11.44
-12.00
-12.52
-13.31
-14.66
-16.79
-19.83
-23.76
-28.30
-32.86
-36.57
-38.41
-37.58
-33.71
-27.17
-18.96
-10.44
-2.90
2.83
6.51
8.41
8.99
8.64
7.56
5.84
3.61
1.10
-1.39
-3.59
-5.34
-6.67
-7.72
-8.72
-9.90
-11.53
-13.89
-17.23
-21.66
-26.99
-32.59
-37.48
-40.48
-40.57
-37.24
-30.73
-22.03
-12.58
-3.95
2.72
6.93
8.81
8.94
8.03
6.67
5.22
3.82
2.50
1.27
0.18
-0.77
-1.66
-2.68
-4.07
-5.98
-8.40
-11.26
-14.48
-18.08
-22.07
-26.29
-30.17
-32.71
-32.73
-29.33
-22.47
-13.05
-2.70
6.83
14.25
19.14
21.75
22.72
22.58
21.64
20.00
17.79
15.32
13.04
11.44
10.76
10.89
11.44
11.91
11.84
10.97
9.15
6.32
2.40
-2.62
-8.55
-14.78
-20.27
-23.71
-24.00
-20.63
-14.01
-5.35
3.67
11.54
17.35
20.92
22.67
23.21
23.03
22.35
21.17
19.42
17.21
14.78
12.49
10.60
9.23
8.24
7.32
6.13
4.36
1.75
-1.85
-6.50
-12.06
-18.04
-23.54
-27.39
-28.47
-26.10
-20.44
-12.39
-3.37
5.18
12.26
17.41
20.65
22.22
22.35
21.22
19.01
16.04
12.78
9.78
7.52
6.16
5.52
5.13
4.49
3.23
1.22
-1.58
-5.17
-9.55
-14.67
-20.12
-25.09
-28.38
-28.83
-25.76
-19.35
-10.65
-1.19
7.43
14.15
18.55
20.84
21.53
21.15
20.01
18.25
15.94
13.26
10.60
8.44
7.15
6.78
6.94
6.99
6.26
4.28
0.91
-3.74
-9.44
-15.80
-22.19
-27.70
-31.13
-31.42
-27.95
-20.93
-11.41
-1.01
8.64
16.33
21.57
24.53
25.70
25.66
24.76
23.21
21.10
18.64
16.14
13.97
12.38
11.39
10.76
10.04
8.80
6.69
3.53
-0.75
-6.06
-12.09
-18.19
-23.38
-26.53
-26.65
-23.32
-16.88
-8.37
0.76
9.21
16.08
21.06
24.23
25.88
26.24
25.47
23.72
21.21
18.32
15.52
13.19
11.51
10.38
9.47
8.39
6.87
4.79
2.10
-1.25
-5.37
-10.25
-15.59
-20.56
-23.91
-24.41
-21.24
-14.56
-5.39
4.67
14.00
21.49
26.69
29.74
31.02
30.93
29.76
27.73
25.10
22.20
19.42
17.09
15.40
14.28
13.51
12.75
11.70
10.19
8.08
5.28
1.62
-2.96
-8.23
-13.49
-17.56
-19.11
-17.15
-11.56
-3.24
6.21
15.05
21.98
26.52
28.86
29.55
29.06
27.66
25.42
22.45
19.02
15.53
12.43
9.93
7.97
6.32
4.66
2.82
0.70
-1.77
-4.74
-8.47
-13.08
-18.41
-23.78
-28.05
-30.00
-28.75
-24.12
-16.80
-8.06
0.63
8.09
13.61
17.02
18.50
18.35
16.94
14.60
11.66
8.49
5.45
2.82
0.76
-0.78
-2.01
-3.27
-4.85
-6.97
-9.72
-13.15
-17.22
-21.79
-26.53
-30.77
-33.60
-34.05
-31.51
-26.00
-18.30
-9.70
-1.58
4.99
9.53
12.04
12.87
12.35
10.80
8.43
5.53
2.40
-0.57
-3.04
-4.79
-5.80
-6.26
-6.51
-6.93
-7.89
-9.62
-12.32
-16.10
-20.92
-26.42
-31.84
-35.98
-37.50
-35.38
-29.38
-20.25
-9.58
0.77
9.28
15.18
18.48
19.75
19.64
18.67
17.12
15.11
12.80
10.42
8.23
6.47
5.19
4.29
3.53
2.63
1.35
-0.52
-3.15
-6.72
-11.24
-16.43
-21.54
-25.43
-26.83
-24.78
-19.10
-10.54
-0.58
9.02
16.83
22.07
24.74
25.34
24.56
22.99
21.05
18.96
16.91
15.07
13.59
12.51
11.75
11.14
10.39
9.32
7.81
5.80
3.22
-0.15
-4.54
-10.06
-16.34
-22.45
-27.02
-28.65
-26.50
-20.68
-12.29
-3.06
5.31
11.64
15.49
17.12
17.07
15.86
13.87
11.27
8.24
4.99
1.80
-1.03
-3.35
-5.19
-6.78
-8.41
-10.35
-12.77
-15.75
-19.30
-23.44
-28.06
-32.74
-36.76
-39.14
-38.94
-35.65
-29.48
-21.33
-12.47
-4.23
2.49
7.24
10.02
11.03
10.53
8.73
5.86
2.24
-1.71
-5.49
-8.70
-11.06
-12.57
-13.47
-14.12
-14.98
-16.40
-18.72
-22.14
-26.75
-32.37
-38.43
-43.93
-47.64
-48.41
-45.63
-39.49
-30.96
-21.49
-12.52
-5.06
0.47
4.12
6.22
7.06
6.85
5.75
3.94
1.81
-0.21
-1.67
-2.30
-2.16
-1.58
-1.02
-1.00
-1.93
-4.08
-7.62
-12.59
-18.72
-25.35
-31.37
-35.43
-36.29
-33.33
-26.79
-17.77
-7.85
1.41
8.92
14.27
17.58
19.29
19.87
19.62
18.76
17.45
15.92
14.42
13.23
12.51
12.23
12.17
11.97
11.32
9.95
7.69
4.41
0.07
-5.18
-10.91
-16.25
-20.03
-21.04
-18.48
-12.29
-3.30
7.06
17.16
25.73
32.08
36.19
38.40
39.15
38.76
37.40
35.23
32.50
29.60
26.91
24.73
23.11
21.88
20.74
19.42
17.76
15.58
12.69
8.86
3.94
-1.93
-8.08
-13.35
-16.34
-15.95
-11.83
-4.55
4.50
13.65
21.47
27.19
30.78
32.62
33.24
32.97
31.92
30.13
27.76
25.17
22.83
21.19
20.37
20.24
20.42
20.47
20.02
18.75
16.39
12.70
7.52
1.01
-6.24
-13.18
-18.53
-21.12
-20.36
-16.40
-10.08
-2.69
4.51
10.63
15.27
18.42
20.24
20.87
20.42
18.99
16.85
14.43
12.21
10.57
9.57
9.00
8.44
7.52
5.99
3.75
0.74
-3.15
-7.99
-13.64
-19.60
-24.90
-28.32
-28.80
-25.82
-19.72
-11.62
-3.07
4.53
10.25
13.87
15.70
16.22
15.85
14.74
12.88
10.31
7.25
4.08
1.28
-0.85
-2.27
-3.17
-3.89
-4.76
-6.02
-7.88
-10.50
-14.01
-18.30
-22.89
-26.87
-29.13
-28.70
-25.18
-18.98
-11.19
-3.21
3.73
8.91
12.20
13.83
14.18
13.53
12.06
9.91
7.31
4.59
2.09
0.13
-1.19
-1.95
-2.40
-2.87
-3.73
-5.32
-7.89
-11.57
-16.25
-21.48
-26.42
-29.99
-31.12
-29.06
-23.76
-15.92
-6.89
1.78
8.74
13.28
15.34
15.47
14.42
12.91
11.36
9.95
8.65
7.49
6.58
6.17
6.43
7.34
8.58
9.60
9.80
8.76
6.29
2.57
-2.07
-7.15
-12.02
-15.99
-18.31
-18.33
-15.73
-10.75
-4.12
3.13
9.91
15.44
19.31
21.54
22.34
22.07
21.06
19.62
17.99
16.42
15.07
14.04
13.36
12.90
12.45
11.80
10.73
9.10
6.82
3.76
-0.17
-4.91
-10.10
-14.93
-18.27
-18.99
-16.47
-10.92
-3.35
4.73
11.81
16.86
19.46
19.71
18.10
15.29
11.94
8.57
5.54
2.98
0.86
-0.89
-2.28
-3.32
-4.11
-4.89
-5.89
-7.25
-9.09
-11.46
-14.53
-18.49
-23.26
-28.16
-31.89
-32.90
-30.09
-23.48
-14.40
-4.94
2.95
8.17
10.79
11.59
11.41
10.70
9.36
7.18
4.15
0.61
-2.80
-5.44
-6.94
-7.41
-7.28
-7.19
-7.71
-9.21
-11.82
-15.43
-19.78
-24.49
-28.98
-32.52
-34.34
-33.76
-30.50
-24.83
-17.57
-9.85
-2.79
2.84
6.74
9.03
10.01
10.01
9.26
7.95
6.25
4.42
2.73
1.42
0.60
0.14
-0.21
-0.82
-1.95
-3.76
-6.24
-9.33
-12.99
-17.19
-21.72
-26.07
-29.35
-30.54
-28.84
-24.07
-16.84
-8.30
0.21
7.63
13.37
17.34
19.64
20.43
19.85
18.08
15.33
11.93
8.32
4.96
2.23
0.41
-0.48
-0.72
-0.76
-1.17
-2.40
-4.75
-8.28
-12.79
-17.79
-22.47
-25.77
-26.55
-24.01
-18.03
-9.32
0.72
10.46
18.50
24.09
27.12
28.00
27.38
25.87
23.95
21.89
19.81
17.78
15.85
14.17
12.83
11.84
11.03
10.08
8.66
6.52
3.57
-0.19
-4.65
-9.60
-14.59
-18.84
-21.26
-20.85
-17.09
-10.30
-1.67
7.11
14.49
19.56
22.25
23.08
22.77
21.87
20.58
18.87
16.72
14.23
11.73
9.60
8.13
7.38
7.16
7.10
6.75
5.74
3.74
0.56
-3.85
-9.26
-15.11
-20.44
-24.04
-24.83
-22.30
-16.73
-9.23
-1.32
5.60
10.70
13.81
15.26
15.53
14.95
13.67
11.74
9.29
6.56
3.90
1.60
-0.20
-1.52
-2.50
-3.33
-4.23
-5.46
-7.34
-10.17
-14.11
-19.00
-24.25
-28.88
-31.73
-31.83
-28.72
-22.67
-14.63
-5.95
2.02
8.30
12.41
14.36
14.49
13.23
10.96
8.01
4.68
1.30
-1.74
-4.06
-5.46
-6.03
-6.12
-6.31
-7.17
-9.09
-12.26
-16.60
-21.89
-27.71
-33.41
-38.11
-40.78
-40.53
-36.95
-30.32
-21.68
-12.44
-4.04
2.56
6.93
9.26
10.03
9.80
9.02
8.01
6.95
5.95
5.06
4.33
3.72
3.15
2.47
1.51
0.13
-1.81
-4.38
-7.71
-11.85
-16.73
-21.97
-26.82
-30.28
-31.36
-29.42
-24.51
-17.30
-8.98
-0.83
6.13
11.34
14.71
16.45
16.94
16.51
15.44
13.94
12.19
10.38
8.71
7.34
6.31
5.49
4.66
3.54
1.87
-0.52
-3.79
-8.00
-13.11
-18.81
-24.40
-28.84
-31.00
-29.99
-25.61
-18.38
-9.51
-0.43
7.55
13.66
17.68
19.80
20.49
20.24
19.43
18.33
17.05
15.66
14.21
12.79
11.47
10.31
9.30
8.30
7.13
5.61
3.53
0.64
-3.23
-8.08
-13.56
-18.78
-22.45
-23.26
-20.33
-13.68
-4.30
6.15
15.93
23.78
29.17
32.26
33.50
33.40
32.26
30.30
27.77
25.01
22.41
20.28
18.70
17.49
16.38
15.13
13.65
11.93
9.82
6.98
2.97
-2.46
-9.08
-15.98
-21.75
-24.93
-24.53
-20.34
-13.05
-3.93
5.52
13.99
20.59
24.93
26.99
27.04
25.48
22.73
19.20
15.34
11.60
8.40
5.94
4.22
2.98
1.90
0.70
-0.78
-2.63
-4.98
-8.08
-12.13
-17.10
-22.46
-27.22
-30.16
-30.23
-26.92
-20.50
-11.91
-2.44
6.63
14.32
20.09
23.77
25.41
25.10
22.95
19.20
14.29
8.93
3.99
0.19
-2.15
-3.21
-3.54
-3.81
-4.55
-6.05
-8.46
-11.93
-16.59
-22.35
-28.65
-34.36
-37.97
-38.13
-34.20
-26.59
-16.69
-6.33
2.84
9.88
14.64
17.55
19.16
19.79
19.52
18.26
16.06
13.23
10.29
7.74
5.86
4.56
3.55
2.41
0.84
-1.36
-4.34
-8.28
-13.31
-19.26
-25.52
-30.95
-34.12
-33.85
-29.67
-22.10
-12.46
-2.51
6.25
12.90
17.20
19.46
20.13
19.60
18.15
16.03
13.53
11.05
8.97
7.52
6.63
6.02
5.27
4.08
2.28
-0.17
-3.32
-7.30
-12.24
-18.06
-24.19
-29.55
-32.77
-32.66
-28.67
-21.21
-11.58
-1.50
7.42
14.23
18.69
21.19
22.35
22.67
22.39
21.52
20.07
18.13
15.93
13.74
11.73
9.86
7.99
5.96
3.69
1.15
-1.68
-4.94
-8.86
-13.56
-18.77
-23.72
-27.17
-27.78
-24.60
-17.51
-7.36
4.30
15.75
25.59
33.13
38.29
41.33
42.54
42.06
39.95
36.39
31.79
26.83
22.21
18.49
15.85
14.18
13.15
12.36
11.38
9.72
6.87
2.36
-4.00
-11.84
-20.14
-27.26
-31.44
-31.26
-26.19
-16.80
-4.67
8.01
19.04
26.74
30.22
29.44
25.10
18.40
10.77
3.59
-2.04
-5.39
-6.28
-5.02
-2.32
0.92
3.82
5.72
6.28
5.35
2.92
-1.08
-6.64
-13.52
-21.00
-27.75
-32.16
-32.79
-28.97
-21.15
-10.80
0.12
9.80
17.12
21.72
23.82
23.77
21.84
18.19
13.11
7.20
1.43
-3.13
-5.65
-5.88
-4.24
-1.66
0.77
2.08
1.63
-0.88
-5.42
-11.68
-18.94
-26.10
-31.77
-34.60
-33.70
-28.96
-21.17
-11.80
-2.50
5.38
11.15
14.83
16.86
17.85
18.22
18.15
17.63
16.63
15.24
13.67
12.17
10.90
9.82
8.75
7.42
5.63
3.24
0.14
-3.81
-8.70
-14.46
-20.56
-25.98
-29.33
-29.32
-25.27
-17.47
-7.14
3.97
14.16
22.24
27.72
30.73
31.70
31.13
29.43
27.00
24.16
21.31
18.75
16.68
15.15
14.02
13.07
12.08
10.81
9.03
6.50
2.96
-1.75
-7.53
-13.87
-19.76
-23.94
-25.16
-22.72
-16.71
-8.07
1.73
11.13
18.99
24.73
28.32
29.97
29.97
28.48
25.72
21.99
17.83
13.89
10.74
8.69
7.62
7.16
6.80
6.11
4.75
2.48
-0.95
-5.72
-11.79
-18.73
-25.48
-30.62
-32.71
-30.86
-25.09
-16.47
-6.68
2.54
9.96
15.11
18.13
19.48
19.57
18.71
17.05
14.83
12.41
10.17
8.39
7.16
6.30
5.60
4.96
4.38
3.91
3.47
2.65
0.86
-2.42
-7.28
-13.14
-18.72
-22.49
-23.15
-20.18
-14.07
-6.12
2.02
8.92
13.78
16.46
17.26
16.56
14.66
11.71
7.90
3.56
-0.74
-4.41
-6.98
-8.42
-9.00
-9.23
-9.65
-10.66
-12.53
-15.45
-19.55
-24.81
-30.87
-36.95
-41.80
-44.06
-42.71
-37.44
-28.91
-18.52
-7.97
1.27
8.36
13.09
15.76
16.81
16.59
15.33
13.16
10.36
7.33
4.55
2.38
0.91
-0.10
-1.05
-2.35
-4.20
-6.62
-9.53
-12.92
-16.82
-21.21
-25.69
-29.46
-31.39
-30.48
-26.23
-19.02
-10.00
-0.70
7.53
13.83
18.02
20.35
21.24
21.09
20.13
18.55
16.54
14.33
12.13
10.12
8.36
6.77
5.24
3.59
1.70
-0.58
-3.37
-6.80
-10.91
-15.60
-20.46
-24.69
-27.30
-27.29
-24.14
-18.04
-9.93
-1.28
6.44
12.24
15.82
17.45
17.75
17.21
16.12
14.56
12.61
10.49
8.58
7.23
6.57
6.45
6.51
6.37
5.78
4.64
2.88
0.34
-3.22
-7.99
-13.79
-19.99
-25.46
-28.95
-29.49
-26.83
-21.47
-14.55
-7.37
-1.02
3.94
7.43
9.63
10.79
11.05
10.49
9.14
7.16
4.84
2.50
0.48
-1.07
-2.18
-3.06
-4.00
-5.29
-7.16
-9.86
-13.53
-18.26
-23.92
-29.99
-35.52
-39.20
-39.85
-36.80
-30.32
-21.60
-12.33
-4.16
1.89
5.57
7.27
7.65
7.25
6.29
4.81
2.77
0.25
-2.54
-5.27
-7.68
-9.64
-11.17
-12.43
-13.67
-15.16
-17.25
-20.17
-24.12
-28.98
-34.23
-38.93
-41.90
-42.03
-38.70
-32.08
-23.11
-13.22
-3.85
3.98
9.79
13.63
15.76
16.48
16.03
14.62
12.49
9.96
7.42
5.19
3.42
2.12
1.15
0.25
-0.83
-2.42
-4.79
-8.21
-12.83
-18.57
-24.94
-31.00
-35.48
-37.07
-34.86
-28.80
-19.72
-9.12
1.27
10.09
16.66
20.92
23.21
23.94
23.41
21.86
19.58
16.94
14.37
12.24
10.66
9.52
8.54
7.40
5.90
3.90
1.31
-1.99
-6.20
-11.39
-17.38
-23.53
-28.73
-31.67
-31.22
-26.88
-18.99
-8.74
2.26
12.47
20.81
26.79
30.42
32.00
31.88
30.42
27.95
24.85
21.54
18.45
15.89
14.04
12.84
12.09
11.51
10.72
9.42
7.28
4.01
-0.58
-6.43
-13.06
-19.45
-24.17
-25.78
-23.33
-16.75
-7.02
4.16
14.91
23.75
29.95
33.46
34.75
34.41
32.93
30.65
27.81
24.65
21.47
18.55
16.14
14.37
13.14
12.23
11.30
9.98
7.86
4.59
-0.04
-5.97
-12.72
-19.36
-24.62
-27.22
-26.26
-21.55
-13.77
-4.19
5.65
14.40
21.20
25.72
28.04
28.45
27.26
24.78
21.34
17.33
13.24
9.55
6.68
4.80
3.84
3.48
3.24
2.62
1.11
-1.72
-6.18
-12.25
-19.48
-26.89
-33.03
-36.42
-35.93
-31.32
-23.27
-13.23
-2.98
5.97
12.65
16.81
18.71
18.88
17.86
16.05
13.70
10.97
8.06
5.21
2.69
0.68
-0.84
-2.06
-3.30
-4.89
-7.10
-10.15
-14.20
-19.35
-25.45
-31.90
-37.59
-41.11
-41.12
-36.94
-28.84
-18.07
-6.39
4.47
13.35
19.79
23.86
25.89
26.17
24.94
22.42
19.01
15.25
11.72
8.94
7.10
6.06
5.38
4.51
2.91
0.22
-3.78
-9.09
-15.53
-22.64
-29.57
-35.10
-37.82
-36.58
-30.96
-21.58
-9.97
1.92
12.37
20.35
25.68
28.73
30.05
30.06
28.90
26.67
23.56
19.97
16.42
13.43
11.22
9.75
8.65
7.50
5.87
3.46
0.10
-4.36
-9.99
-16.66
-23.84
-30.47
-35.10
-36.25
-32.89
-24.99
-13.55
-0.38
12.47
23.36
31.37
36.36
38.71
38.95
37.55
34.82
31.08
26.77
22.50
18.92
16.44
15.12
14.60
14.26
13.47
11.79
8.94
4.80
-0.71
-7.48
-15.07
-22.53
-28.46
-31.32
-30.04
-24.41
-15.24
-4.15
7.04
16.81
24.25
29.14
31.69
32.30
31.38
29.26
26.30
22.86
19.36
16.13
13.36
11.03
9.00
7.07
5.04
2.82
0.26
-2.87
-6.88
-12.06
-18.33
-25.06
-31.07
-34.92
-35.33
-31.74
-24.50
-14.74
-4.01
6.22
14.84
21.24
25.20
26.77
26.16
23.71
19.90
15.35
10.75
6.75
3.83
2.13
1.44
1.26
0.94
-0.09
-2.22
-5.69
-10.54
-16.67
-23.74
-30.94
-37.04
-40.53
-40.16
-35.41
-26.80
-15.84
-4.47
5.55
13.15
18.10
20.74
21.69
21.46
20.37
18.66
16.53
14.26
12.17
10.47
9.25
8.39
7.61
6.61
5.06
2.73
-0.58
-5.03
-10.64
-17.15
-23.87
-29.66
-33.16
-33.18
-29.15
-21.47
-11.34
-0.46
9.52
17.48
22.96
26.08
27.25
26.88
25.32
22.85
19.77
16.52
13.58
11.33
9.90
9.05
8.33
7.24
5.40
2.69
-0.96
-5.54
-11.08
-17.44
-24.06
-29.86
-33.40
-33.37
-29.10
-20.94
-10.18
1.39
12.07
20.66
26.68
30.16
31.49
31.15
29.62
27.39
24.87
22.36
20.02
17.87
15.85
13.94
12.12
10.42
8.77
6.98
4.71
1.54
-2.83
-8.41
-14.73
-20.82
-25.37
-27.03
-24.90
-18.87
-9.71
1.09
11.77
20.80
27.29
31.05
32.44
32.08
30.56
28.30
25.58
22.61
19.65
16.99
14.86
13.33
12.27
11.41
10.39
8.95
6.90
4.08
0.38
-4.24
-9.60
-15.10
-19.74
-22.32
-21.80
-17.78
-10.68
-1.67
7.69
16.00
22.33
26.39
28.39
28.81
28.09
26.57
24.48
22.03
19.45
16.97
14.76
12.82
10.99
9.01
6.67
3.89
0.70
-2.90
-6.99
-11.70
-17.03
-22.56
-27.49
-30.72
-31.24
-28.54
-22.84
-15.03
-6.40
1.78
8.59
13.57
16.64
18.00
17.88
16.53
14.21
11.24
7.98
4.93
2.50
0.94
0.18
-0.10
-0.39
-1.21
-2.89
-5.64
-9.54
-14.53
-20.30
-26.24
-31.37
-34.52
-34.71
-31.51
-25.30
-17.14
-8.45
-0.51
5.85
10.35
13.12
14.43
14.49
13.41
11.30
8.34
4.89
1.47
-1.48
-3.63
-4.96
-5.70
-6.25
-7.05
-8.50
-10.89
-14.36
-18.93
-24.27
-29.73
-34.28
-36.73
-36.12
-31.98
-24.72
-15.40
-5.54
3.42
10.44
15.12
17.60
18.34
17.81
16.41
14.39
11.99
9.51
7.32
5.74
4.86
4.52
4.29
3.70
2.38
0.13
-3.09
-7.24
-12.25
-17.86
-23.52
-28.31
-31.17
-31.13
-27.79
-21.52
-13.39
-4.88
2.61
8.21
11.65
13.24
13.49
12.91
11.83
10.38
8.68
6.92
5.38
4.26
3.64
3.39
3.22
2.82
2.00
0.70
-1.13
-3.57
-6.80
-10.88
-15.59
-20.23
-23.72
-24.92
-23.08
-18.18
-11.04
-3.04
4.34
10.05
13.68
15.48
16.01
15.86
15.37
14.68
13.79
12.77
11.80
11.08
10.68
10.49
10.18
9.39
7.90
5.68
2.84
-0.57
-4.61
-9.40
-14.85
-20.46
-25.19
-27.81
-27.26
-23.21
-16.26
-7.69
0.91
8.25
13.61
16.88
18.34
18.36
17.21
15.05
12.08
8.57
4.95
1.64
-1.02
-2.91
-4.15
-5.02
-5.82
-6.80
-8.12
-9.90
-12.32
-15.48
-19.34
-23.54
-27.29
-29.60
-29.54
-26.70
-21.37
-14.49
-7.29
-0.86
4.13
7.52
9.46
10.12
9.66
8.18
5.83
2.93
-0.10
-2.84
-4.98
-6.42
-7.30
-7.82
-8.21
-8.73
-9.69
-11.47
-14.48
-18.94
-24.66
-30.89
-36.42
-39.86
-40.10
-36.74
-30.26
-21.84
-12.99
-5.07
1.09
5.29
7.78
9.00
9.35
9.01
8.05
6.51
4.54
2.45
0.58
-0.85
-1.80
-2.47
-3.17
-4.22
-5.89
-8.38
-11.86
-16.44
-21.98
-28.00
-33.50
-37.25
-38.02
-35.16
-28.82
-20.02
-10.25
-1.03
6.54
12.02
15.45
17.19
17.59
16.96
15.48
13.35
10.88
8.47
6.49
5.20
4.57
4.29
3.95
3.10
1.50
-0.96
-4.35
-8.66
-13.88
-19.73
-25.57
-30.33
-32.76
-31.89
-27.43
-19.95
-10.74
-1.35
6.93
13.33
17.62
19.94
20.58
19.87
18.18
15.94
13.61
11.62
10.23
9.50
9.32
9.47
9.66
9.64
9.14
7.88
5.55
1.87
-3.27
-9.60
-16.40
-22.46
-26.34
-26.82
-23.31
-16.14
-6.55
3.78
13.19
20.59
25.62
28.48
29.67
29.61
28.57
26.70
24.15
21.27
18.51
16.31
14.85
13.99
13.34
12.37
10.69
8.10
4.53
-0.02
-5.59
-12.10
-19.13
-25.89
-31.19
-33.82
-32.94
-28.43
-20.99
-11.86
-2.51
5.83
12.36
16.73
19.02
19.53
18.61
16.66
14.05
11.13
8.27
5.80
4.00
2.98
2.61
2.57
2.38
1.55
-0.33
-3.52
-8.06
-13.77
-20.17
-26.44
-31.48
-34.09
-33.35
-28.96
-21.47
-12.19
-2.81
5.22
10.99
14.34
15.67
15.55
14.48
12.72
10.46
7.85
5.13
2.56
0.35
-1.42
-2.83
-4.05
-5.28
-6.77
-8.78
-11.55
-15.36
-20.30
-26.09
-31.95
-36.69
-38.89
-37.42
-31.89
-22.86
-11.73
-0.33
9.76
17.55
22.80
25.80
27.03
26.93
25.75
23.68
20.94
17.79
14.60
11.69
9.31
7.54
6.24
5.15
3.87
1.99
-0.88
-4.98
-10.33
-16.62
-23.17
-28.91
-32.59
-33.14
-30.01
-23.44
-14.44
-4.51
4.91
12.72
18.44
22.09
23.93
24.28
23.40
21.54
18.96
16.00
12.99
10.24
7.96
6.17
4.79
3.60
2.38
0.89
-1.16
-4.02
-7.88
-12.74
-18.17
-23.25
-26.71
-27.22
-23.90
-16.71
-6.54
5.06
16.32
25.89
33.00
37.56
39.90
40.46
39.63
37.64
34.70
31.06
27.06
23.18
19.92
17.59
16.28
15.70
15.36
14.62
12.97
10.06
5.77
0.24
-6.06
-12.35
-17.49
-20.22
-19.52
-15.02
-7.17
2.75
13.08
22.26
29.26
33.71
35.81
36.05
34.96
32.95
30.31
27.28
24.12
21.11
18.46
16.28
14.44
12.66
10.64
8.11
4.98
1.20
-3.27
-8.52
-14.51
-20.88
-26.80
-31.05
-32.32
-29.75
-23.31
-13.93
-3.09
7.56
16.73
23.67
28.15
30.26
30.25
28.36
24.98
20.61
15.89
11.45
7.83
5.29
3.73
2.78
1.92
0.64
-1.48
-4.71
-9.18
-14.82
-21.32
-28.00
-33.83
-37.58
-38.18
-35.06
-28.40
-19.21
-8.92
0.94
9.24
15.40
19.33
21.27
21.53
20.39
18.16
15.20
11.97
8.98
6.63
5.04
4.06
3.31
2.43
1.14
-0.68
-3.16
-6.43
-10.69
-15.90
-21.59
-26.82
-30.21
-30.48
-26.94
-19.84
-10.34
-0.15
9.12
16.39
21.31
24.15
25.44
25.60
24.88
23.37
21.13
18.40
15.56
13.01
11.02
9.58
8.40
7.09
5.28
2.76
-0.50
-4.48
-9.12
-14.32
-19.76
-24.81
-28.46
-29.62
-27.47
-21.87
-13.50
-3.72
5.87
13.94
19.77
23.31
24.97
25.36
24.99
24.10
22.78
20.99
18.79
16.39
14.10
12.24
10.98
10.20
9.51
8.43
6.48
3.41
-0.71
-5.60
-10.69
-15.30
-18.62
-19.92
-18.60
-14.49
-7.99
-0.10
7.85
14.52
19.02
21.09
21.11
19.80
17.91
16.00
14.34
12.99
11.92
11.03
10.22
9.31
8.15
6.65
4.80
2.72
0.48
-1.97
-4.84
-8.39
-12.65
-17.30
-21.58
-24.49
-25.14
-23.06
-18.40
-11.85
-4.42
2.86
9.18
14.07
17.33
18.90
18.80
17.11
14.07
10.13
5.88
1.94
-1.25
-3.52
-5.02
-6.13
-7.22
-8.59
-10.38
-12.68
-15.61
-19.32
-23.80
-28.79
-33.60
-37.21
-38.53
-36.85
-32.13
-25.06
-16.93
-9.11
-2.65
2.01
4.94
6.59
7.34
7.40
6.78
5.43
3.43
1.04
-1.36
-3.44
-4.99
-6.03
-6.78
-7.48
-8.38
-9.67
-11.55
-14.24
-17.87
-22.33
-27.12
-31.25
-33.53
-32.93
-29.11
-22.51
-14.37
-6.18
0.74
5.71
8.65
9.94
10.01
9.20
7.70
5.65
3.27
0.84
-1.32
-2.94
-3.92
-4.33
-4.37
-4.33
-4.53
-5.36
-7.14
-10.11
-14.25
-19.22
-24.31
-28.51
-30.75
-30.18
-26.52
-20.15
-12.11
-3.72
3.73
9.37
12.91
14.52
14.60
13.62
11.90
9.66
7.13
4.58
2.30
0.54
-0.62
-1.30
-1.79
-2.40
-3.41
-4.99
-7.23
-10.19
-13.87
-18.20
-22.87
-27.24
-30.40
-31.34
-29.37
-24.32
-16.78
-7.87
0.99
8.54
13.96
16.94
17.70
16.73
14.62
11.99
9.34
7.01
5.25
4.12
3.60
3.60
3.93
4.29
4.36
3.79
2.35
-0.08
-3.52
-7.90
-13.01
-18.42
-23.39
-26.90
-27.90
-25.68
-20.27
-12.49
-3.78
4.35
10.79
15.12
17.48
18.29
17.95
16.70
14.66
11.99
8.95
5.90
3.14
0.84
-1.01
-2.59
-4.12
-5.80
-7.77
-10.15
-13.07
-16.63
-20.85
-25.44
-29.72
-32.73
-33.43
-31.15
-25.91
-18.50
-10.24
-2.50
3.73
8.07
10.65
11.81
11.91
11.16
9.72
7.76
5.55
3.34
1.28
-0.60
-2.40
-4.25
-6.21
-8.31
-10.57
-13.10
-16.12
-19.88
-24.57
-30.08
-35.87
-40.97
-44.17
-44.41
-41.17
-34.67
-25.93
-16.30
-7.11
0.70
6.72
10.94
13.54
14.67
14.51
13.23
11.11
8.54
5.90
3.53
1.60
0.11
-1.06
-2.13
-3.31
-4.83
-6.94
-9.90
-13.92
-18.99
-24.67
-30.01
-33.64
-34.20
-30.89
-23.78
-13.98
-3.16
6.97
15.17
20.92
24.32
25.80
25.81
24.72
22.78
20.22
17.35
14.48
11.91
9.82
8.17
6.79
5.39
3.72
1.64
-0.91
-4.02
-7.85
-12.59
-18.21
-24.21
-29.55
-32.86
-32.93
-29.18
-21.96
-12.39
-1.99
7.85
16.19
22.63
27.11
29.79
30.88
30.58
29.21
27.10
24.68
22.35
20.45
19.20
18.60
18.45
18.36
17.87
16.51
13.88
9.72
3.98
-3.07
-10.71
-17.74
-22.72
-24.30
-21.71
-15.05
-5.37
5.71
16.46
25.52
32.18
36.32
38.27
38.47
37.33
35.19
32.31
28.97
25.52
22.31
19.65
17.66
16.27
15.25
14.25
12.92
10.89
7.83
3.49
-2.20
-8.93
-15.91
-21.94
-25.67
-26.05
-22.67
-16.00
-7.15
2.39
11.22
18.36
23.27
25.89
26.41
25.12
22.42
18.73
14.53
10.37
6.80
4.28
3.08
3.17
4.27
5.79
6.98
7.00
5.15
1.13
-4.75
-11.55
-17.77
-21.82
-22.50
-19.41
-13.04
-4.61
4.42
12.68
19.20
23.49
25.47
25.43
23.82
21.27
18.33
15.45
12.86
10.63
8.73
7.05
5.46
3.78
1.83
-0.64
-3.85
-8.06
-13.43
-19.91
-27.07
-34.04
-39.50
-42.06
-40.71
-35.19
-26.17
-15.13
-3.75
6.46
14.56
20.27
23.75
25.37
25.46
24.29
22.06
19.08
15.78
12.76
10.49
9.25
8.90
8.95
8.73
7.62
5.17
1.21
-4.28
-11.12
-18.79
-26.44
-32.76
-36.28
-35.80
-30.83
-21.93
-10.56
1.36
12.01
20.25
25.78
28.95
30.43
30.81
30.39
29.30
27.58
25.41
23.12
21.07
19.45
18.22
17.10
15.77
14.00
11.75
9.04
5.79
1.78
-3.15
-8.89
-14.75
-19.52
-21.74
-20.29
-14.85
-6.12
4.34
14.70
23.42
29.73
33.61
35.56
36.17
35.79
34.54
32.42
29.59
26.37
23.27
20.74
18.97
17.82
16.91
15.81
14.16
11.71
8.26
3.70
-1.98
-8.48
-15.10
-20.73
-24.11
-24.24
-20.71
-13.91
-4.96
4.68
13.56
20.66
25.48
28.04
28.59
27.55
25.31
22.18
18.47
14.53
10.74
7.42
4.78
2.86
1.48
0.41
-0.59
-1.69
-3.09
-5.02
-7.76
-11.50
-16.06
-20.81
-24.63
-26.31
-24.91
-20.23
-12.90
-4.17
4.52
11.93
17.39
20.72
22.15
22.01
20.61
18.17
14.93
11.15
7.26
3.69
0.90
-0.90
-1.81
-2.20
-2.62
-3.63
-5.65
-8.91
-13.42
-18.89
-24.75
-30.15
-34.03
-35.33
-33.40
-28.19
-20.34
-11.06
-1.76
6.36
12.60
16.75
19.03
19.80
19.40
18.10
16.09
13.63
11.01
8.58
6.65
5.38
4.69
4.27
3.73
2.65
0.73
-2.24
-6.38
-11.60
-17.51
-23.29
-27.80
-29.76
-28.29
-23.20
-15.21
-5.74
3.60
11.50
17.30
20.94
22.75
23.11
22.30
20.53
18.04
15.26
12.70
10.82
9.85
9.67
9.89
9.99
9.57
8.42
6.50
3.84
0.40
-3.88
-8.98
-14.52
-19.64
-23.17
-23.97
-21.36
-15.57
-7.66
0.82
8.37
14.07
17.72
19.64
20.27
20.00
18.94
17.17
14.86
12.39
10.19
8.65
7.88
7.71
7.73
7.57
6.86
5.43
3.16
-0.02
-4.10
-8.96
-14.19
-19.07
-22.58
-23.65
-21.63
-16.51
-9.11
-0.82
6.84
12.75
16.47
18.22
18.58
18.13
17.25
16.08
14.66
13.06
11.48
10.10
9.06
8.36
7.85
7.36
6.73
5.79
4.39
2.35
-0.53
-4.35
-8.94
-13.77
-17.98
-20.56
-20.72
-18.20
-13.44
-7.46
-1.52
3.31
6.46
7.93
8.12
7.54
6.61
5.56
4.45
3.31
2.17
1.04
-0.01
-0.97
-1.88
-2.81
-3.83
-5.03
-6.54
-8.54
-11.25
-14.85
-19.32
-24.32
-29.09
-32.60
-33.83
-32.20
-27.83
-21.54
-14.61
-8.31
-3.49
-0.44
1.04
1.34
0.82
-0.30
-1.87
-3.70
-5.55
-7.16
-8.32
-9.00
-9.28
-9.37
-9.44
-9.70
-10.31
-11.44
-13.31
-16.09
-19.78
-24.10
-28.39
-31.73
-33.18
-32.09
-28.39
-22.67
-16.00
-9.55
-4.25
-0.52
1.66
2.60
2.65
2.12
1.18
-0.07
-1.50
-2.95
-4.28
-5.31
-5.99
-6.33
-6.48
-6.62
-6.95
-7.70
-9.07
-11.21
-14.18
-17.84
-21.76
-25.17
-27.18
-26.95
-24.14
-19.07
-12.63
-6.02
-0.34
3.75
6.13
7.06
6.99
6.27
5.11
3.65
2.06
0.58
-0.50
-1.02
-1.02
-0.76
-0.68
-1.14
-2.39
-4.40
-7.02
-10.13
-13.66
-17.61
-21.86
-25.95
-29.08
-30.27
-28.77
-24.39
-17.68
-9.78
-2.05
4.41
9.07
12.01
13.71
14.63
15.07
15.05
14.39
13.03
11.06
8.85
6.81
5.28
4.32
3.76
3.35
2.81
1.99
0.72
-1.22
-4.12
-8.18
-13.18
-18.34
-22.41
-24.10
-22.53
-17.70
-10.51
-2.42
5.07
10.85
14.51
16.18
16.34
15.53
14.12
12.34
10.28
8.04
5.80
3.80
2.22
1.09
0.26
-0.54
-1.55
-2.90
-4.65
-6.90
-9.87
-13.80
-18.72
-24.17
-29.14
-32.37
-32.83
-30.16
-24.88
-18.13
-11.18
-5.05
-0.27
3.04
4.95
5.54
4.87
3.08
0.40
-2.79
-6.07
-9.07
-11.57
-13.41
-14.62
-15.30
-15.69
-16.11
-16.95
-18.57
-21.26
-25.13
-29.97
-35.26
-40.11
-43.40
-44.10
-41.56
-35.80
-27.57
-18.15
-8.99
-1.26
4.42
8.02
9.92
10.65
10.62
10.03
8.97
7.48
5.69
3.80
2.03
0.47
-0.92
-2.31
-3.85
-5.64
-7.76
-10.32
-13.51
-17.49
-22.25
-27.31
-31.76
-34.43
-34.26
-30.72
-24.10
-15.39
-5.99
2.78
10.02
15.38
18.96
21.04
21.89
21.72
20.66
18.93
16.88
14.87
13.23
12.05
11.22
10.44
9.38
7.81
5.59
2.62
-1.16
-5.83
-11.31
-17.19
-22.64
-26.55
-27.76
-25.49
-19.71
-11.19
-1.32
8.35
16.57
22.68
26.61
28.68
29.32
28.84
27.42
25.16
22.26
19.04
15.90
13.26
11.37
10.23
9.63
9.22
8.64
7.53
5.59
2.52
-1.86
-7.47
-13.77
-19.70
-23.86
-24.90
-22.00
-15.24
-5.59
5.39
16.09
25.22
32.11
36.61
38.90
39.29
38.16
35.91
32.98
29.83
26.87
24.39
22.50
21.14
20.18
19.39
18.53
17.34
15.49
12.62
8.41
2.80
-3.85
-10.68
-16.42
-19.70
-19.48
-15.44
-8.08
1.41
11.46
20.67
28.06
33.22
36.19
37.26
36.78
35.07
32.42
29.15
25.62
22.20
19.21
16.83
15.01
13.59
12.32
10.93
9.17
6.73
3.25
-1.53
-7.62
-14.59
-21.46
-26.85
-29.34
-28.00
-22.70
-14.28
-4.20
5.85
14.48
20.87
24.80
26.45
26.20
24.44
21.51
17.76
13.56
9.38
5.64
2.72
0.77
-0.30
-0.82
-1.29
-2.23
-4.08
-7.18
-11.64
-17.38
-24.00
-30.65
-36.14
-39.05
-38.25
-33.33
-24.86
-14.23
-3.24
6.57
14.31
19.74
23.07
24.57
24.43
22.76
19.83
16.12
12.32
9.10
6.83
5.54
4.89
4.49
3.91
2.88
1.16
-1.50
-5.39
-10.71
-17.31
-24.53
-31.15
-35.60
-36.47
-33.05
-25.67
-15.64
-4.84
4.96
12.64
17.91
21.10
22.76
23.29
22.84
21.46
19.32
16.79
14.35
12.44
11.21
10.54
10.05
9.33
8.10
6.17
3.43
-0.19
-4.77
-10.25
-16.24
-21.93
-26.12
-27.57
-25.41
-19.57
-10.87
-0.87
8.74
16.66
22.32
25.81
27.62
28.23
27.87
26.59
24.44
21.64
18.61
15.79
13.51
11.81
10.50
9.29
7.93
6.27
4.20
1.51
-2.10
-6.91
-12.92
-19.63
-25.95
-30.46
-31.80
-29.23
-22.89
-13.88
-3.82
5.61
13.20
18.50
21.64
23.13
23.49
23.06
21.99
20.38
18.42
16.47
14.93
14.08
13.84
13.87
13.62
12.63
10.69
7.82
4.13
-0.29
-5.43
-11.15
-16.99
-21.99
-24.94
-24.72
-20.84
-13.68
-4.46
5.23
13.95
20.79
25.51
28.38
29.81
30.16
29.59
28.12
25.82
22.94
19.89
17.11
14.89
13.26
11.98
10.71
9.16
7.13
4.49
1.04
-3.42
-8.97
-15.35
-21.73
-26.86
-29.42
-28.50
-24.01
-16.68
-7.86
0.97
8.61
14.30
17.83
19.29
18.97
17.29
14.71
11.71
8.75
6.18
4.17
2.72
1.71
0.88
0.03
-1.03
-2.41
-4.22
-6.59
-9.74
-13.87
-18.95
-24.55
-29.73
-33.29
-34.06
-31.40
-25.51
-17.34
-8.29
0.20
7.09
11.88
14.50
15.16
14.18
11.88
8.62
4.85
1.08
-2.16
-4.46
-5.69
-6.05
-6.00
-6.08
-6.71
-8.11
-10.38
-13.56
-17.69
-22.64
-27.95
-32.66
-35.51
-35.33
-31.53
-24.48
-15.35
-5.72
3.03
10.07
15.18
18.49
20.27
20.62
19.60
17.36
14.24
10.79
7.62
5.25
3.85
3.29
3.17
3.02
2.38
0.95
-1.49
-5.11
-9.96
-15.93
-22.51
-28.70
-33.22
-34.75
-32.47
-26.44
-17.59
-7.52
2.06
9.82
15.14
18.02
18.95
18.56
17.40
15.83
14.08
12.30
10.59
9.08
7.82
6.79
5.82
4.68
3.17
1.17
-1.37
-4.53
-8.35
-12.92
-18.03
-23.12
-27.15
-28.94
-27.54
-22.66
-14.88
-5.44
4.15
12.64
19.27
23.81
26.40
27.31
26.85
25.35
23.20
20.84
18.68
16.97
15.76
14.89
14.08
13.11
11.79
10.08
7.98
5.46
2.39
-1.40
-6.02
-11.29
-16.63
-21.09
-23.54
-23.09
-19.44
-13.06
-5.07
3.09
10.18
15.43
18.67
20.15
20.30
19.49
17.95
15.91
13.65
11.51
9.85
8.82
8.29
7.87
7.13
5.76
3.69
1.01
-2.18
-5.93
-10.36
-15.52
-21.08
-26.30
-30.06
-31.29
-29.36
-24.34
-17.05
-8.69
-0.55
6.39
11.64
15.08
16.81
16.96
15.69
13.23
9.94
6.31
2.87
0.01
-2.13
-3.61
-4.67
-5.58
-6.54
-7.80
-9.62
-12.38
-16.35
-21.62
-27.76
-33.84
-38.52
-40.51
-39.01
-33.99
-26.29
-17.26
-8.35
-0.68
5.20
9.24
11.68
12.82
12.83
11.80
9.83
7.14
4.10
1.10
-1.47
-3.46
-4.90
-5.95
-6.92
-8.07
-9.62
-11.79
-14.80
-18.82
-23.78
-29.23
-34.25
-37.61
-38.13
-35.12
-28.73
-19.90
-10.11
-0.89
6.66
12.06
15.44
17.20
17.77
17.42
16.29
14.48
12.18
9.70
7.38
5.46
4.06
3.08
2.33
1.58
0.58
-0.93
-3.29
-6.80
-11.57
-17.28
-23.10
-27.74
-29.86
-28.48
-23.42
-15.39
-5.77
3.84
12.09
18.19
21.93
23.55
23.47
22.18
20.09
17.58
14.99
12.63
10.72
9.34
8.49
7.99
7.61
7.11
6.29
4.98
3.07
0.39
-3.19
-7.67
-12.79
-17.86
-21.85
-23.62
-22.30
-17.66
-10.26
-1.29
7.86
15.92
22.17
26.32
28.52
29.04
28.18
26.22
23.50
20.40
17.36
14.78
12.93
11.84
11.31
10.98
10.42
9.28
7.35
4.51
0.73
-3.95
-9.35
-15.02
-20.10
-23.47
-24.05
-21.21
-15.11
-6.73
2.39
10.69
17.04
20.97
22.62
22.44
20.99
18.73
16.08
13.40
11.02
9.18
7.96
7.22
6.71
6.16
5.40
4.41
3.23
1.79
-0.12
-2.84
-6.66
-11.48
-16.77
-21.49
-24.42
-24.59
-21.56
-15.71
-8.00
0.24
7.79
13.77
17.80
19.83
20.09
18.86
16.50
13.36
9.87
6.42
3.31
0.79
-1.11
-2.41
-3.28
-3.94
-4.69
-5.92
-8.01
-11.32
-15.95
-21.65
-27.74
-33.14
-36.63
-37.18
-34.29
-28.27
-20.08
-11.07
-2.56
4.55
9.86
13.41
15.41
16.09
15.59
14.07
11.74
8.92
6.02
3.41
1.33
-0.18
-1.23
-2.04
-2.84
-3.84
-5.29
-7.45
-10.60
-14.86
-20.02
-25.40
-29.93
-32.37
-31.76
-27.73
-20.69
-11.75
-2.30
6.32
13.22
18.02
20.79
21.85
21.56
20.25
18.19
15.58
12.72
9.92
7.49
5.61
4.22
3.10
1.88
0.25
-2.02
-5.08
-9.02
-13.86
-19.48
-25.39
-30.71
-34.24
-34.85
-31.91
-25.59
-16.88
-7.29
1.65
8.91
14.01
17.08
18.50
18.68
17.90
16.35
14.23
11.87
9.68
8.03
7.12
6.83
6.86
6.79
6.26
5.10
3.22
0.56
-2.97
-7.44
-12.61
-17.87
-22.18
-24.32
-23.33
-18.87
-11.42
-2.16
7.43
15.98
22.59
26.94
29.18
29.67
28.81
26.95
24.35
21.32
18.23
15.47
13.37
12.08
11.48
11.21
10.79
9.85
8.16
5.70
2.48
-1.53
-6.34
-11.78
-17.27
-21.72
-23.83
-22.52
-17.54
-9.60
-0.22
8.87
16.31
21.51
24.50
25.66
25.32
23.71
20.93
17.22
13.01
8.84
5.18
2.28
0.13
-1.45
-2.70
-3.73
-4.61
-5.45
-6.53
-8.33
-11.35
-15.80
-21.36
-26.98
-31.16
-32.40
-29.75
-23.29
-14.08
-3.80
5.83
13.62
19.08
22.36
23.84
23.89
22.72
20.46
17.35
13.83
10.45
7.69
5.79
4.58
3.66
2.56
0.92
-1.36
-4.33
-8.02
-12.59
-18.14
-24.49
-30.92
-36.18
-38.84
-37.80
-32.79
-24.56
-14.62
-4.73
3.79
10.30
14.86
17.84
19.59
20.27
19.87
18.40
16.08
13.32
10.62
8.35
6.56
5.11
3.66
1.92
-0.29
-3.06
-6.51
-10.82
-16.12
-22.23
-28.47
-33.62
-36.24
-35.15
-30.00
-21.42
-10.88
-0.16
9.25
16.56
21.68
25.01
27.02
28.01
28.01
26.95
24.83
21.85
18.49
15.24
12.54
10.55
9.16
8.13
7.13
5.89
4.17
1.69
-1.79
-6.33
-11.65
-16.93
-20.94
-22.39
-20.39
-14.87
-6.65
2.85
12.06
19.84
25.59
29.27
31.13
31.51
30.65
28.79
26.22
23.32
20.46
17.93
15.86
14.17
12.72
11.32
9.84
8.16
6.08
3.31
-0.53
-5.70
-12.09
-19.05
-25.37
-29.60
-30.52
-27.57
-21.07
-12.12
-2.22
7.22
15.15
21.00
24.64
26.17
25.84
23.98
20.94
17.14
12.99
8.90
5.21
2.18
-0.05
-1.51
-2.36
-2.89
-3.42
-4.32
-5.99
-8.74
-12.76
-17.87
-23.34
-28.00
-30.46
-29.59
-25.01
-17.26
-7.68
2.08
10.57
16.90
20.88
22.75
22.93
21.78
19.54
16.40
12.67
8.80
5.36
2.82
1.39
0.91
0.91
0.79
-0.03
-1.90
-5.00
-9.41
-15.10
-21.83
-28.96
-35.35
-39.49
-39.97
-36.04
-28.07
-17.41
-6.00
4.35
12.54
18.22
21.64
23.23
23.28
21.97
19.50
16.22
12.62
9.26
6.57
4.69
3.51
2.73
1.98
0.87
-0.94
-3.72
-7.67
-12.84
-19.04
-25.66
-31.65
-35.67
-36.44
-33.18
-26.01
-15.97
-4.72
6.07
15.18
22.10
26.90
29.86
31.21
31.09
29.62
27.12
24.10
21.18
18.76
16.97
15.61
14.30
12.72
10.71
8.25
5.35
1.86
-2.48
-7.92
-14.37
-21.19
-27.17
-30.80
-30.78
-26.57
-18.62
-8.34
2.44
12.07
19.53
24.58
27.46
28.57
28.20
26.56
23.89
20.53
17.04
13.91
11.48
9.77
8.53
7.36
5.86
3.77
0.96
-2.55
-6.71
-11.40
-16.47
-21.62
-26.31
-29.71
-30.95
-29.31
-24.61
-17.31
-8.45
0.70
9.00
15.72
20.55
23.45
24.51
23.85
21.71
18.48
14.71
11.03
7.97
5.83
4.62
4.07
3.78
3.34
2.39
0.70
-1.93
-5.61
-10.42
-16.21
-22.48
-28.27
-32.38
-33.63
-31.36
-25.71
-17.61
-8.52
0.13
7.31
12.64
16.21
18.33
19.21
18.87
17.26
14.41
10.67
6.63
2.99
0.28
-1.33
-2.06
-2.40
-2.91
-4.00
-5.94
-8.87
-12.87
-17.90
-23.58
-29.16
-33.50
-35.32
-33.74
-28.57
-20.58
-11.19
-2.00
5.72
11.38
15.04
17.10
18.00
18.02
17.24
15.72
13.63
11.28
9.07
7.27
5.97
5.03
4.14
2.97
1.30
-1.01
-4.09
-8.06
-12.98
-18.71
-24.66
-29.75
-32.65
-32.18
-27.84
-20.11
-10.30
-0.16
8.76
15.53
19.95
22.36
23.32
23.25
22.40
20.89
18.81
16.38
13.92
11.78
10.15
9.04
8.26
7.55
6.67
5.47
3.84
1.60
-1.45
-5.49
-10.38
-15.50
-19.75
-21.87
-20.92
-16.73
-9.97
-1.98
5.76
12.14
16.67
19.45
20.85
21.25
20.86
19.71
17.82
15.36
12.66
10.16
8.27
7.21
6.94
7.12
7.33
7.13
6.20
4.29
1.25
-3.01
-8.31
-14.15
-19.64
-23.58
-24.88
-22.92
-17.84
-10.58
-2.50
5.02
11.04
15.20
17.64
18.70
18.71
17.88
16.34
14.24
11.86
9.51
7.47
5.86
4.63
3.57
2.44
1.04
-0.72
-2.90
-5.63
-9.05
-13.32
-18.36
-23.70
-28.41
-31.34
-31.43
-28.22
-22.03
-14.00
-5.64
1.62
6.92
10.01
11.21
11.02
9.90
8.06
5.62
2.67
-0.53
-3.60
-6.16
-7.94
-8.98
-9.55
-10.06
-10.85
-12.20
-14.24
-17.14
-21.02
-25.83
-31.17
-36.10
-39.39
-39.83
-36.79
-30.48
-21.98
-12.82
-4.42
2.27
6.92
9.62
10.67
10.35
8.96
6.81
4.30
1.81
-0.33
-1.98
-3.17
-4.03
-4.67
-5.15
-5.53
-5.89
-6.54
-7.90
-10.42
-14.28
-19.23
-24.46
-28.77
-30.90
-29.90
-25.52
-18.30
-9.44
-0.39
7.54
13.51
17.26
18.91
18.84
17.42
15.00
11.92
8.62
5.60
3.35
2.14
1.86
2.09
2.25
1.84
0.58
-1.62
-4.73
-8.75
-13.64
-19.19
-24.82
-29.56
-32.21
-31.74
-27.74
-20.61
-11.55
-2.14
6.13
12.33
16.19
17.98
18.17
17.20
15.35
12.86
10.00
7.20
4.87
3.35
2.70
2.71
3.00
3.18
2.92
2.00
0.25
-2.49
-6.36
-11.33
-17.09
-22.94
-27.86
-30.69
-30.49
-26.88
-20.24
-11.67
-2.70
5.30
11.39
15.30
17.30
17.88
17.48
16.38
14.73
12.73
10.67
8.89
7.66
7.04
6.81
6.60
6.03
4.88
3.08
0.65
-2.40
-6.17
-10.64
-15.62
-20.51
-24.35
-26.03
-24.69
-20.16
-13.02
-4.50
4.00
11.28
16.71
20.12
21.69
21.68
20.31
17.77
14.34
10.43
6.52
3.10
0.46
-1.40
-2.68
-3.71
-4.81
-6.16
-7.81
-9.76
-12.04
-14.77
-17.97
-21.47
-24.70
-26.79
-26.86
-24.37
-19.45
-12.89
-5.87
0.42
5.19
8.11
9.28
9.00
7.61
5.39
2.62
-0.47
-3.61
-6.54
-9.02
-10.92
-12.22
-13.10
-13.86
-14.84
-16.35
-18.66
-21.95
-26.31
-31.69
-37.74
-43.66
-48.23
-50.11
-48.33
-42.68
-33.92
-23.47
-12.94
-3.59
3.93
9.47
13.17
15.22
15.75
14.89
12.88
10.11
7.09
4.36
2.33
1.20
0.87
0.96
0.97
0.33
-1.40
-4.52
-9.18
-15.31
-22.49
-29.85
-36.07
-39.61
-39.16
-34.18
-25.17
-13.54
-1.18
10.18
19.38
26.03
30.28
32.52
33.13
32.36
30.38
27.41
23.79
19.96
16.38
13.38
11.05
9.24
7.59
5.68
3.12
-0.32
-4.80
-10.32
-16.74
-23.59
-29.93
-34.41
-35.58
-32.37
-24.61
-13.17
0.21
13.54
25.17
34.15
40.24
43.71
44.92
44.23
41.93
38.32
33.87
29.14
24.72
21.09
18.51
16.91
15.97
15.14
13.85
11.65
8.21
3.42
-2.61
-9.53
-16.64
-22.83
-26.73
-27.10
-23.18
-15.16
-4.18
7.97
19.39
28.61
34.93
38.37
39.34
38.42
36.10
32.80
28.90
24.83
21.03
17.87
15.51
13.80
12.46
11.06
9.28
6.83
3.44
-1.13
-7.17
-14.64
-23.09
-31.44
-38.17
-41.66
-40.76
-35.20
-25.75
-13.96
-1.63
9.63
18.81
25.43
29.48
31.13
30.64
28.32
24.62
20.15
15.63
11.73
8.86
7.09
6.12
5.46
4.62
3.18
0.82
-2.73
-7.72
-14.17
-21.73
-29.41
-35.71
-38.97
-37.92
-32.21
-22.60
-10.73
1.42
12.13
20.37
25.83
28.74
29.47
28.41
25.84
22.05
17.48
12.72
8.43
5.14
3.06
2.03
1.63
1.27
0.41
-1.31
-4.23
-8.59
-14.43
-21.49
-28.89
-35.22
-38.76
-38.12
-32.73
-23.21
-11.19
1.29
12.39
21.04
26.98
30.53
32.21
32.40
31.28
28.95
25.61
21.65
17.65
14.22
11.77
10.40
9.92
9.88
9.73
8.92
6.98
3.59
-1.39
-7.73
-14.70
-21.07
-25.36
-26.21
-22.85
-15.46
-5.13
6.43
17.44
26.56
33.11
37.12
38.99
39.18
38.03
35.73
32.46
28.54
24.44
20.73
17.79
15.69
14.16
12.73
10.99
8.69
5.74
2.08
-2.43
-7.87
-14.05
-20.27
-25.24
-27.45
-25.64
-19.47
-9.68
2.05
13.71
23.62
30.89
35.47
37.81
38.52
37.97
36.33
33.67
30.24
26.51
23.08
20.47
18.88
18.12
17.65
16.86
15.30
12.74
9.12
4.50
-1.04
-7.27
-13.65
-19.25
-22.87
-23.40
-20.20
-13.48
-4.31
5.80
15.25
22.91
28.22
31.17
32.03
31.14
28.80
25.27
20.93
16.20
11.59
7.57
4.43
2.22
0.77
-0.24
-1.16
-2.34
-4.11
-6.74
-10.42
-15.17
-20.59
-25.86
-29.79
-31.19
-29.25
-23.85
-15.67
-5.97
3.79
12.32
18.81
22.96
24.91
25.01
23.69
21.32
18.22
14.74
11.26
8.19
5.84
4.33
3.47
2.80
1.78
-0.07
-3.01
-7.17
-12.47
-18.70
-25.37
-31.67
-36.41
-38.35
-36.64
-31.18
-22.85
-13.18
-3.84
3.93
9.62
13.39
15.68
16.86
17.07
16.29
14.57
12.19
9.64
7.44
5.92
5.08
4.62
4.11
3.16
1.52
-0.93
-4.24
-8.45
-13.54
-19.25
-24.97
-29.67
-32.19
-31.52
-27.33
-20.14
-11.26
-2.29
5.36
10.97
14.54
16.54
17.50
17.71
17.22
15.98
14.11
11.93
9.87
8.23
6.98
5.82
4.38
2.41
-0.09
-3.00
-6.21
-9.80
-13.94
-18.68
-23.71
-28.17
-30.96
-31.03
-27.84
-21.64
-13.39
-4.41
4.07
11.25
16.80
20.75
23.25
24.40
24.26
22.97
20.78
18.10
15.40
13.06
11.29
10.05
9.12
8.18
6.92
5.08
2.49
-0.94
-5.24
-10.30
-15.80
-21.02
-24.99
-26.61
-25.09
-20.30
-12.88
-4.15
4.45
11.70
17.06
20.45
22.18
22.59
21.88
20.18
17.70
14.79
11.94
9.57
7.95
7.02
6.49
5.96
5.09
3.67
1.65
-0.99
-4.33
-8.49
-13.51
-19.17
-24.78
-29.29
-31.55
-30.75
-26.83
-20.51
-13.11
-6.02
-0.22
3.90
6.52
7.98
8.56
8.29
7.10
5.01
2.29
-0.49
-2.73
-3.97
-4.11
-3.47
-2.61
-2.14
-2.56
-4.19
-7.18
-11.54
-17.07
-23.28
-29.31
-34.01
-36.22
-35.10
-30.52
-23.15
-14.28
-5.46
1.99
7.33
10.33
11.24
10.52
8.59
5.84
2.63
-0.68
-3.68
-5.99
-7.42
-8.04
-8.20
-8.34
-8.84
-9.93
-11.71
-14.20
-17.48
-21.54
-26.20
-30.86
-34.60
-36.33
-35.24
-31.12
-24.53
-16.58
-8.64
-1.82
3.23
6.31
7.62
7.48
6.28
4.43
2.33
0.34
-1.22
-2.26
-2.82
-3.04
-3.07
-3.06
-3.13
-3.46
-4.31
-6.00
-8.88
-13.07
-18.38
-24.10
-29.15
-32.25
-32.39
-29.16
-22.95
-14.83
-6.20
1.68
7.93
12.21
14.59
15.32
14.77
13.33
11.45
9.57
7.99
6.86
6.06
5.30
4.29
2.83
0.93
-1.27
-3.60
-5.96
-8.50
-11.48
-15.21
-19.69
-24.50
-28.71
-31.15
-30.82
-27.33
-21.01
-12.86
-4.15
4.00
10.87
16.18
19.88
22.03
22.75
22.22
20.71
18.66
16.48
14.51
12.87
11.52
10.33
9.16
7.89
6.41
4.58
2.17
-1.04
-5.26
-10.38
-15.99
-21.20
-24.87
-25.91
-23.68
-18.29
-10.66
-2.22
5.61
11.81
16.06
18.55
19.76
20.11
19.74
18.68
16.88
14.47
11.74
9.03
6.64
4.67
3.09
1.78
0.67
-0.33
-1.41
-2.95
-5.56
-9.80
-15.86
-23.20
-30.60
-36.37
-39.00
-37.69
-32.62
-24.80
-15.65
-6.55
1.53
8.03
12.64
15.21
15.66
14.10
10.88
6.66
2.23
-1.68
-4.59
-6.37
-7.24
-7.58
-7.89
-8.55
-9.91
-12.19
-15.63
-20.37
-26.35
-33.10
-39.69
-44.78
-46.99
-45.39
-39.83
-31.11
-20.71
-10.31
-1.27
5.65
10.30
12.94
13.89
13.42
11.76
9.20
6.14
3.10
0.58
-1.17
-2.09
-2.38
-2.34
-2.24
-2.35
-2.97
-4.44
-7.14
-11.38
-17.06
-23.57
-29.77
-34.13
-35.25
-32.24
-25.14
-14.92
-3.28
7.86
16.94
23.07
26.16
26.67
25.35
22.98
20.16
17.29
14.66
12.41
10.64
9.30
8.28
7.35
6.30
4.98
3.21
0.82
-2.44
-6.83
-12.37
-18.68
-24.87
-29.66
-31.76
-30.26
-25.02
-16.73
-6.67
3.66
12.95
20.34
25.53
28.65
30.10
30.33
29.76
28.67
27.30
25.80
24.33
22.99
21.84
20.78
19.67
18.29
16.44
13.92
10.54
6.09
0.40
-6.43
-13.84
-20.69
-25.53
-26.91
-24.03
-17.01
-6.93
4.45
15.33
24.30
30.67
34.38
35.84
35.55
33.94
31.36
28.11
24.53
21.02
18.00
15.70
14.12
13.01
12.00
10.71
8.92
6.49
3.29
-0.85
-6.05
-12.18
-18.70
-24.56
-28.44
-29.19
-26.22
-19.81
-10.98
-1.22
7.99
15.56
20.89
23.88
24.71
23.75
21.45
18.32
14.88
11.59
8.79
6.67
5.24
4.33
3.73
3.17
2.35
0.96
-1.38
-5.05
-10.27
-16.88
-24.21
-30.98
-35.63
-36.73
-33.49
-26.09
-15.65
-3.88
7.43
16.91
23.85
28.08
29.84
29.52
27.52
24.27
20.20
15.79
11.50
7.74
4.77
2.66
1.29
0.35
-0.59
-2.10
-4.72
-8.90
-14.79
-22.09
-29.96
-37.05
-41.78
-42.75
-39.22
-31.40
-20.46
-8.16
3.64
13.58
20.98
25.81
28.34
28.91
27.76
25.10
21.27
16.84
12.52
8.97
6.62
5.53
5.43
5.77
5.93
5.26
3.21
-0.59
-6.21
-13.31
-21.05
-28.12
-33.01
-34.31
-31.19
-23.73
-12.95
-0.56
11.56
21.88
29.55
34.42
36.76
37.00
35.52
32.67
28.86
24.64
20.63
17.38
15.15
13.86
13.10
12.31
11.00
8.86
5.73
1.56
-3.74
-10.16
-17.42
-24.78
-30.97
-34.37
-33.60
-28.03
-18.15
-5.53
7.73
19.68
29.09
35.55
39.26
40.70
40.30
38.38
35.24
31.33
27.23
23.53
20.65
18.70
17.53
16.76
15.96
14.78
12.89
10.08
6.13
0.97
-5.28
-12.12
-18.67
-23.75
-26.21
-25.31
-20.92
-13.63
-4.54
5.05
13.96
21.32
26.66
29.85
31.00
30.45
28.72
26.29
23.65
21.11
18.81
16.75
14.88
13.14
11.45
9.71
7.76
5.35
2.18
-2.04
-7.48
-13.92
-20.72
-26.71
-30.54
-31.01
-27.62
-20.70
-11.47
-1.49
7.75
15.25
20.60
23.81
25.09
24.63
22.61
19.27
15.00
10.37
6.02
2.49
0.05
-1.36
-2.08
-2.61
-3.44
-4.96
-7.44
-11.04
-15.86
-21.76
-28.20
-34.14
-38.24
-39.20
-36.31
-29.73
-20.56
-10.41
-0.87
6.96
12.62
16.21
18.03
18.41
17.54
15.55
12.63
9.16
5.61
2.52
0.25
-1.14
-1.87
-2.32
-2.88
-3.82
-5.38
-7.76
-11.22
-15.98
-21.88
-28.17
-33.50
-36.26
-35.18
-29.88
-21.08
-10.41
0.25
9.34
16.04
20.29
22.44
22.98
22.21
20.31
17.50
14.14
10.70
7.69
5.41
3.87
2.80
1.80
0.54
-1.17
-3.39
-6.18
-9.74
-14.24
-19.66
-25.45
-30.51
-33.35
-32.74
-28.12
-19.98
-9.67
1.01
10.47
17.73
22.50
24.98
25.58
24.64
22.49
19.48
16.11
12.93
10.41
8.70
7.60
6.66
5.40
3.55
1.17
-1.54
-4.40
-7.51
-11.21
-15.80
-21.18
-26.64
-30.91
-32.60
-30.74
-25.25
-16.93
-7.28
2.13
10.07
15.94
19.70
21.66
22.14
21.42
19.66
17.11
14.11
11.16
8.72
7.08
6.19
5.73
5.25
4.39
3.01
1.10
-1.26
-4.12
-7.63
-11.81
-16.34
-20.42
-22.89
-22.66
-19.16
-12.67
-4.26
4.52
12.28
18.12
21.79
23.58
23.93
23.24
21.70
19.45
16.68
13.73
11.03
8.96
7.66
6.98
6.51
5.75
4.31
1.96
-1.35
-5.56
-10.59
-16.24
-22.10
-27.47
-31.37
-32.82
-31.09
-26.05
-18.31
-9.05
0.27
8.31
14.21
17.72
19.05
18.70
17.15
14.80
11.91
8.69
5.42
2.44
0.05
-1.62
-2.68
-3.47
-4.42
-5.87
-8.02
-10.91
-14.55
-18.93
-23.92
-29.06
-33.48
-36.04
-35.71
-32.01
-25.35
-16.93
-8.32
-0.87
4.65
8.18
10.10
10.79
10.46
9.11
6.76
3.65
0.26
-2.80
-5.08
-6.43
-7.00
-7.15
-7.20
-7.46
-8.21
-9.78
-12.56
-16.85
-22.55
-28.97
-34.82
-38.54
-38.81
-35.04
-27.66
-17.97
-7.69
1.65
9.03
14.13
17.08
18.24
17.91
16.33
13.76
10.54
7.17
4.21
2.07
0.87
0.48
0.53
0.60
0.34
-0.48
-2.02
-4.46
-7.94
-12.50
-17.85
-23.23
-27.48
-29.33
-27.80
-22.71
-14.74
-5.28
4.07
11.99
17.78
21.35
22.95
22.99
21.76
19.51
16.50
13.14
9.95
7.34
5.53
4.40
3.58
2.60
1.10
-1.04
-3.74
-6.84
-10.23
-13.87
-17.75
-21.63
-24.92
-26.72
-26.14
-22.66
-16.45
-8.40
0.14
7.79
13.60
17.20
18.76
18.77
17.75
16.17
14.34
12.50
10.83
9.49
8.53
7.95
7.67
7.57
7.47
7.21
6.52
5.12
2.67
-1.03
-5.95
-11.69
-17.34
-21.71
-23.52
-21.92
-16.82
-9.00
0.07
8.71
15.61
20.12
22.32
22.73
21.95
20.40
18.26
15.62
12.65
9.68
7.15
5.43
4.67
4.72
5.21
5.66
5.58
4.59
2.42
-1.05
-5.79
-11.47
-17.41
-22.61
-25.89
-26.23
-23.15
-16.92
-8.58
0.41
8.61
14.96
19.03
20.86
20.78
19.22
16.55
13.23
9.73
6.56
4.14
2.63
1.94
1.70
1.48
0.94
-0.07
-1.63
-3.80
-6.73
-10.57
-15.37
-20.77
-25.95
-29.71
-30.86
-28.63
-23.01
-14.82
-5.44
3.70
11.47
17.30
21.10
23.04
23.26
21.88
19.04
15.01
10.33
5.69
1.72
-1.13
-2.83
-3.68
-4.17
-4.83
-6.09
-8.24
-11.48
-15.93
-21.53
-27.87
-34.07
-38.83
-40.78
-38.93
-33.14
-24.24
-13.80
-3.58
5.01
11.27
15.20
17.23
17.82
17.32
15.89
13.63
10.77
7.68
4.84
2.60
1.10
0.16
-0.57
-1.52
-3.05
-5.38
-8.64
-12.89
-18.15
-24.15
-30.25
-35.31
-37.98
-37.11
-32.26
-23.97
-13.64
-3.04
6.30
13.49
18.36
21.22
22.47
22.46
21.34
19.29
16.61
13.74
11.15
9.14
7.77
6.80
5.86
4.57
2.76
0.40
-2.47
-5.91
-10.09
-15.08
-20.56
-25.60
-28.82
-28.83
-24.88
-17.24
-7.18
3.50
13.13
20.68
25.87
28.95
30.33
30.39
29.38
27.58
25.31
22.95
20.79
19.02
17.63
16.47
15.41
14.31
13.08
11.61
9.69
6.96
3.04
-2.28
-8.79
-15.64
-21.48
-24.74
-24.23
-19.55
-11.38
-1.24
9.03
17.87
24.44
28.63
30.81
31.43
30.75
28.90
26.01
22.41
18.67
15.38
12.97
11.46
10.56
9.80
8.87
7.62
6.06
4.11
1.46
-2.33
-7.53
-13.87
-20.37
-25.48
-27.64
-25.89
-20.26
-11.77
-2.05
7.25
14.94
20.51
23.97
25.58
25.65
24.42
22.06
18.87
15.31
11.93
9.27
7.66
7.10
7.26
7.63
7.71
7.06
5.42
2.62
-1.45
-6.71
-12.79
-18.87
-23.69
-25.93
-24.60
-19.48
-11.33
-1.61
7.99
16.07
21.95
25.53
27.12
27.10
25.70
23.11
19.59
15.60
11.74
8.60
6.51
5.45
5.05
4.75
4.00
2.40
-0.22
-3.91
-8.61
-14.10
-19.96
-25.41
-29.43
-30.93
-29.16
-23.95
-16.02
-6.68
2.50
10.25
15.91
19.45
21.26
21.79
21.31
19.94
17.81
15.16
12.47
10.24
8.82
8.25
8.26
8.33
7.98
6.85
4.77
1.72
-2.25
-7.04
-12.39
-17.70
-22.07
-24.38
-23.72
-19.76
-13.03
-4.76
3.54
10.59
15.72
18.95
20.63
21.17
20.82
19.65
17.80
15.57
13.40
11.72
10.70
10.26
10.08
9.79
9.16
8.07
6.44
4.13
0.95
-3.21
-8.28
-13.72
-18.56
-21.60
-21.80
-18.62
-12.39
-4.19
4.43
11.99
17.54
20.88
22.41
22.77
22.52
21.89
20.85
19.31
17.30
15.08
12.99
11.30
10.07
9.08
8.01
6.55
4.57
2.08
-0.85
-4.16
-7.83
-11.75
-15.54
-18.52
-19.83
-18.87
-15.55
-10.48
-4.76
0.40
4.17
6.25
6.85
6.39
5.27
3.67
1.69
-0.53
-2.75
-4.65
-5.92
-6.40
-6.14
-5.40
-4.51
-3.81
-3.57
-3.93
-5.01
-6.88
-9.65
-13.29
-17.51
-21.61
-24.54
-25.21
-22.94
-17.84
-10.82
-3.38
3.06
7.59
9.98
10.59
10.00
8.74
7.08
5.13
2.96
0.70
-1.39
-3.07
-4.17
-4.71
-4.92
-5.16
-5.82
-7.19
-9.48
-12.76
-17.00
-21.98
-27.24
-32.00
-35.25
-36.08
-34.04
-29.33
-22.84
-15.85
-9.58
-4.84
-1.83
-0.30
0.20
0.09
-0.38
-1.14
-2.23
-3.66
-5.35
-7.08
-8.59
-9.68
-10.30
-10.61
-10.87
-11.34
-12.26
-13.76
-16.01
-19.07
-22.79
-26.67
-29.79
-31.08
-29.70
-25.47
-19.06
-11.83
-5.22
-0.35
2.40
3.30
2.92
1.82
0.35
-1.36
-3.18
-4.94
-6.34
-7.14
-7.24
-6.75
-6.00
-5.42
-5.32
-5.88
-7.04
-8.72
-10.87
-13.56
-16.85
-20.54
-24.02
-26.33
-26.48
-23.93
-18.91
-12.43
-5.86
-0.40
3.38
5.64
6.90
7.73
8.40
8.88
8.94
8.49
7.61
6.52
5.52
4.74
4.18
3.63
2.88
1.76
0.24
-1.67
-3.97
-6.76
-10.18
-14.19
-18.41
-22.01
-23.92
-23.16
-19.38
-13.05
-5.43
1.92
7.72
11.32
12.85
12.93
12.21
11.14
9.82
8.25
6.44
4.60
3.06
2.10
1.75
1.73
1.59
0.87
-0.65
-2.92
-5.77
-9.07
-12.85
-17.20
-22.07
-26.96
-30.95
-32.95
-32.14
-28.37
-22.29
-15.11
-8.16
-2.40
1.80
4.57
6.24
7.11
7.19
6.40
4.63
2.02
-1.02
-3.91
-6.17
-7.59
-8.30
-8.68
-9.19
-10.17
-11.80
-14.17
-17.35
-21.38
-26.09
-30.95
-35.02
-37.16
-36.42
-32.49
-25.90
-17.86
-9.85
-3.19
1.42
3.93
4.71
4.30
3.17
1.60
-0.22
-2.13
-3.94
-5.49
-6.72
-7.72
-8.66
-9.71
-10.88
-12.10
-13.33
-14.74
-16.70
-19.63
-23.63
-28.26
-32.47
-34.91
-34.34
-30.08
-22.34
-12.14
-1.10
9.04
16.83
21.40
22.63
20.94
17.18
12.32
7.28
2.82
-0.52
-2.41
-2.79
-1.84
0.03
2.31
4.47
6.07
6.79
6.31
4.33
0.69
-4.43
-10.41
-16.15
-20.29
-21.57
-19.30
-13.57
-5.26
4.22
13.37
21.01
26.50
29.76
31.09
30.93
29.74
27.88
25.66
23.40
21.33
19.58
18.14
16.85
15.50
13.98
12.29
10.47
8.47
5.98
2.58
-2.10
-8.05
-14.68
-20.84
-25.06
-26.07
-23.18
-16.58
-7.29
3.20
13.34
21.97
28.40
32.51
34.47
34.60
33.24
30.78
27.70
24.56
21.96
20.34
19.84
20.22
20.98
21.46
21.10
19.52
16.59
12.35
6.91
0.56
-6.26
-12.73
-17.79
-20.34
-19.49
-15.03
-7.52
1.85
11.65
20.65
28.08
33.73
37.72
40.19
41.13
40.41
38.00
34.11
29.27
24.16
19.42
15.42
12.29
9.93
8.21
6.95
5.90
4.67
2.70
-0.54
-5.29
-11.20
-17.23
-21.85
-23.53
-21.28
-15.06
-5.83
4.82
15.12
23.66
29.67
32.94
33.68
32.27
29.16
24.79
19.69
14.42
9.54
5.47
2.47
0.51
-0.60
-1.24
-1.92
-3.11
-5.22
-8.50
-12.98
-18.40
-24.21
-29.49
-33.13
-34.00
-31.32
-25.03
-15.88
-5.27
5.18
14.12
20.75
24.89
26.76
26.69
25.01
22.09
18.34
14.31
10.55
7.52
5.39
4.10
3.34
2.71
1.80
0.23
-2.33
-6.12
-11.22
-17.47
-24.31
-30.74
-35.44
-37.09
-34.71
-28.15
-18.19
-6.38
5.44
15.68
23.40
28.33
30.68
30.86
29.31
26.47
22.83
18.99
15.57
12.99
11.42
10.68
10.35
9.95
9.08
7.49
4.99
1.42
-3.34
-9.28
-16.02
-22.72
-28.07
-30.69
-29.53
-24.34
-15.80
-5.33
5.44
15.09
22.74
28.08
31.12
32.05
31.11
28.66
25.20
21.30
17.53
14.29
11.79
10.04
8.90
8.18
7.56
6.72
5.27
2.86
-0.80
-5.82
-12.02
-18.81
-25.15
-29.72
-31.19
-28.77
-22.45
-13.18
-2.51
7.85
16.58
22.98
26.99
28.92
29.20
28.22
26.29
23.75
20.97
18.34
16.21
14.76
13.96
13.56
13.21
12.58
11.40
9.48
6.61
2.61
-2.65
-9.00
-15.77
-21.71
-25.28
-25.14
-20.70
-12.46
-1.93
8.92
18.25
24.95
28.79
30.20
29.95
28.71
26.88
24.64
22.11
19.43
16.84
14.61
12.87
11.62
10.66
9.71
8.52
6.92
4.77
1.87
-2.04
-7.15
-13.36
-20.01
-25.87
-29.46
-29.48
-25.43
-17.84
-8.10
1.97
10.74
17.19
21.03
22.51
22.12
20.35
17.61
14.24
10.61
7.15
4.24
2.19
1.05
0.61
0.47
0.13
-0.82
-2.68
-5.62
-9.77
-15.08
-21.26
-27.61
-33.06
-36.29
-36.21
-32.35
-25.10
-15.66
-5.62
3.48
10.62
15.37
17.80
18.27
17.19
14.91
11.72
7.93
3.92
0.10
-3.08
-5.32
-6.57
-7.08
-7.32
-7.86
-9.18
-11.65
-15.42
-20.45
-26.40
-32.57
-37.78
-40.69
-40.13
-35.60
-27.53
-17.29
-6.68
2.68
9.70
14.14
16.30
16.77
16.10
14.67
12.73
10.49
8.19
6.13
4.57
3.63
3.20
2.97
2.56
1.57
-0.23
-2.92
-6.52
-10.99
-16.19
-21.78
-27.00
-30.71
-31.70
-29.06
-22.72
-13.62
-3.40
6.12
13.59
18.49
21.05
21.92
21.67
20.67
19.03
16.86
14.41
12.06
10.18
8.89
8.02
7.13
5.82
3.87
1.28
-1.82
-5.37
-9.47
-14.25
-19.61
-24.99
-29.32
-31.35
-30.08
-25.22
-17.41
-7.99
1.43
9.52
15.54
19.36
21.22
21.54
20.64
18.77
16.15
13.08
9.95
7.18
5.17
4.03
3.68
3.79
3.94
3.72
2.83
1.04
-1.81
-5.80
-10.86
-16.52
-21.87
-25.67
-26.70
-24.23
-18.35
-10.03
-0.72
8.12
15.48
20.99
24.73
26.99
27.95
27.67
26.13
23.54
20.32
17.18
14.76
13.43
13.15
13.48
13.77
13.43
12.09
9.60
5.97
1.26
-4.40
-10.66
-16.87
-22.01
-24.94
-24.75
-21.15
-14.63
-6.40
2.08
9.48
14.94
18.20
19.43
19.04
17.43
14.95
11.98
8.89
6.14
4.11
3.01
2.77
3.07
3.46
3.54
3.00
1.66
-0.69
-4.27
-9.25
-15.47
-22.26
-28.38
-32.36
-32.95
-29.64
-22.88
-13.95
-4.46
4.10
10.78
15.21
17.47
17.82
16.58
14.05
10.63
6.72
2.82
-0.69
-3.52
-5.56
-6.84
-7.51
-7.82
-8.11
-8.86
-10.53
-13.53
-17.96
-23.56
-29.57
-34.87
-38.18
-38.46
-35.18
-28.61
-19.76
-10.10
-1.11
6.10
11.04
13.80
14.86
14.77
13.95
12.63
10.94
9.01
7.00
5.15
3.65
2.62
1.94
1.40
0.67
-0.55
-2.53
-5.45
-9.38
-14.23
