1625044171.00
64.000000
-0.00
-0.00
-0.00
-0.00
-0.00
-0.00
-0.00
-0.00
-0.00
-0.00
0.00
0.01
0.01
-0.00
-0.03
-0.05
-0.05
0.00
0.13
0.36
0.66
1.01
1.37
1.72
2.06
2.40
2.79
3.24
3.80
4.42
5.06
5.66
6.20
6.68
7.15
7.68
8.31
9.14
10.09
11.04
11.88
12.56
13.14
13.76
14.65
15.96
17.91
20.32
22.90
25.38
27.58
29.57
31.68
34.32
37.81
42.54
48.15
54.10
59.83
64.97
69.58
74.14
79.34
85.71
93.76
103.00
112.62
121.73
129.77
136.75
143.30
150.75
157.77
166.64
177.95
191.79
206.97
220.57
228.25
225.36
208.53
176.87
132.76
80.05
23.07
-34.94
-92.44
-149.16
-205.23
-260.37
-313.74
-363.87
-409.83
-450.91
-486.50
-515.74
-537.23
-549.22
-549.96
-538.37
-514.21
-478.67
-433.88
-382.45
-327.02
-269.84
-212.63
-156.66
-102.95
-52.36
-5.88
35.62
71.49
101.44
125.62
144.54
158.89
169.39
176.66
181.10
182.98
182.53
180.03
175.81
170.29
163.88
156.92
149.65
142.22
134.70
127.12
119.53
111.99
104.57
97.35
90.38
83.69
77.30
71.21
65.45
60.01
54.92
50.17
45.78
41.74
38.05
34.70
31.68
28.98
26.61
24.55
22.80
21.36
20.22
19.37
18.78
18.46
18.38
18.53
18.88
19.42
20.16
21.07
22.15
23.38
24.73
26.16
27.60
28.96
30.14
30.98
31.34
31.08
30.08
28.26
25.60
22.13
17.90
13.10
7.91
2.57
-2.66
-7.55
-11.88
-15.50
-18.29
-20.20
-21.23
-21.43
-20.90
-19.73
-18.03
-15.91
-13.46
-10.76
-7.88
-4.88
-1.88
1.01
3.69
6.03
7.96
9.38
10.30
10.74
10.81
10.62
10.31
10.10
10.26
11.01
12.60
15.20
18.95
23.92
29.93
36.78
44.27
52.18
60.30
68.48
76.59
84.62
92.59
100.32
107.73
114.80
121.55
128.04
134.34
140.52
146.70
152.98
159.14
164.95
170.24
174.80
178.34
180.47
180.60
177.86
173.84
169.06
163.81
158.28
152.58
146.78
140.91
134.98
128.97
122.92
116.48
109.36
101.35
92.29
82.08
70.69
58.21
44.87
31.05
16.90
2.72
-11.13
-24.30
-36.43
-47.18
-56.27
-63.47
-68.55
-71.57
-72.61
-71.85
-69.52
-65.95
-61.50
-56.48
-51.14
-45.60
-40.04
-34.55
-29.27
-24.46
-20.43
-17.47
-15.77
-15.34
-15.92
-17.20
-18.78
-20.44
-22.16
-24.10
-26.47
-29.35
-32.66
-36.02
-39.08
-41.69
-44.15
-47.32
-52.46
-60.94
-73.75
-91.29
-113.28
-139.06
-167.88
-199.10
-232.29
-267.02
-302.79
-339.20
-376.38
-414.78
-454.53
-494.20
-529.97
-555.91
-565.41
-553.42
-517.90
-460.53
-385.76
-299.62
-208.83
-120.43
-41.60
21.45
64.95
89.15
98.37
99.72
100.55
105.85
117.12
132.38
147.38
156.91
156.41
143.34
118.34
85.65
52.36
26.20
12.64
12.80
23.27
38.11
51.97
62.09
68.82
73.96
78.94
83.37
85.38
83.08
76.01
65.61
54.34
44.52
37.54
34.01
34.34
39.07
48.50
61.72
76.08
87.57
92.29
87.96
74.72
54.49
29.74
2.11
-27.89
-59.93
-92.72
-123.13
-146.60
-158.48
-155.61
-137.51
-106.67
-68.13
-28.22
6.73
31.80
44.46
45.17
36.87
23.72
9.46
-4.06
-17.15
-31.66
-49.60
-71.78
-97.10
-122.88
-145.58
-161.56
-167.77
-162.38
-145.75
-121.37
-95.81
-77.40
-73.38
-86.82
-114.60
-147.86
-175.23
-187.02
-178.95
-153.32
-117.50
-80.57
-49.76
-28.27
-15.01
-5.99
3.44
16.48
33.80
53.64
72.98
89.12
100.54
107.01
108.93
106.85
101.48
94.24
87.62
85.01
89.53
102.51
122.53
145.78
167.50
183.76
192.75
194.80
191.73
185.84
179.13
172.86
167.27
161.58
154.30
144.00
130.29
114.37
98.72
86.04
78.05
74.83
74.97
76.45
77.55
77.29
75.31
71.43
65.55
57.79
48.83
39.96
32.58
27.52
24.43
21.90
18.25
12.32
4.08
-5.41
-14.50
-21.80
-26.64
-29.43
-31.24
-33.17
-35.65
-38.25
-40.21
-41.47
-43.68
-50.13
-64.35
-87.59
-117.06
-145.89
-165.60
-169.72
-156.42
-128.96
-93.58
-56.47
-21.84
8.29
32.84
50.50
59.71
59.69
51.55
38.48
24.54
12.86
4.39
-2.05
-8.58
-16.84
-27.04
-38.03
-47.96
-55.17
-58.82
-58.99
-56.36
-51.80
-46.14
-40.18
-34.79
-30.92
-29.20
-29.64
-31.32
-32.70
-32.26
-29.17
-23.63
-16.62
-9.49
-3.43
0.93
3.57
4.87
5.49
6.18
7.45
9.48
11.90
13.90
14.39
12.47
7.93
1.40
-5.72
-11.78
-15.51
-16.67
-16.21
-15.99
-17.98
-23.43
-32.25
-43.07
-53.74
-62.28
-67.79
-70.92
-73.62
-78.29
-86.65
-98.54
-111.39
-120.23
-118.71
-100.73
-62.93
-6.58
61.60
130.48
187.58
222.79
231.44
215.59
183.01
144.09
108.16
80.66
62.18
49.09
35.56
15.95
-12.89
-50.40
-92.33
-132.04
-162.71
-179.52
-181.08
-169.47
-149.22
-125.64
-103.39
-85.38
-72.40
-63.52
-56.85
-50.40
-42.88
-34.00
-24.42
-15.41
-8.25
-3.67
-1.76
-2.17
-4.21
-7.01
-9.86
-12.27
-14.07
-15.31
-16.11
-16.55
-16.69
-16.67
-16.79
-17.36
-18.38
-19.33
-19.49
-18.30
-15.98
-13.68
-13.02
-14.98
-19.36
-24.89
-29.93
-33.53
-35.65
-36.48
-35.25
-29.81
-17.64
2.42
28.72
56.69
80.55
95.77
100.60
96.03
84.41
67.99
48.42
27.65
8.93
-2.97
-2.96
12.31
42.95
85.26
132.57
176.68
209.64
225.23
220.12
194.87
153.73
103.60
51.90
4.31
-36.51
-70.72
-99.76
-124.53
-144.46
-158.04
-163.90
-162.09
-154.26
-142.98
-130.48
-117.81
-104.85
-90.98
-76.17
-61.36
-48.29
-38.50
-32.44
-29.01
-25.91
-20.54
-11.15
2.30
18.32
34.37
48.22
58.91
67.11
74.62
83.39
94.42
107.30
120.43
131.59
138.81
140.93
137.94
130.92
121.72
112.20
103.64
96.46
90.44
85.37
81.49
79.49
79.93
82.56
86.08
88.58
88.50
85.35
80.03
74.26
69.63
67.18
67.07
68.88
71.98
75.61
78.93
81.18
81.80
80.68
78.34
75.75
74.20
74.82
78.29
84.58
92.88
101.75
109.34
113.87
113.88
108.70
98.70
85.57
72.05
61.20
55.15
54.04
55.56
55.76
50.66
37.94
17.64
-8.28
-37.51
-68.42
-100.25
-132.11
-161.84
-185.63
-199.25
-200.07
-188.80
-169.69
-148.95
-132.14
-122.29
-119.59
-122.50
-129.29
-138.83
-150.05
-161.11
-169.08
-170.74
-164.23
-150.09
-131.27
-112.09
-96.60
-87.36
-84.90
-87.83
-93.58
-99.37
-103.15
-104.34
-104.06
-104.45
-107.43
-113.33
-120.52
-126.16
-127.93
-125.36
-120.02
-114.20
-109.11
-103.83
-96.07
-83.50
-65.56
-43.81
-21.03
0.41
19.70
38.03
57.42
79.13
102.61
125.14
142.99
153.08
154.32
148.39
139.38
132.50
132.27
140.82
156.97
176.64
194.49
206.15
209.85
206.92
200.71
194.83
191.25
189.45
187.08
181.57
171.81
159.05
146.33
136.79
131.88
130.43
129.17
124.51
114.48
99.80
83.58
69.61
60.28
55.36
52.30
47.67
39.10
26.53
12.07
-1.07
-10.20
-14.47
-15.19
-15.44
-18.73
-27.78
-43.64
-65.68
-92.50
-122.77
-155.70
-190.39
-224.42
-252.62
-267.28
-260.56
-228.19
-172.71
-103.75
-35.03
20.81
56.63
72.12
71.59
59.87
39.24
9.41
-29.56
-74.14
-116.38
-146.45
-157.32
-148.45
-126.33
-101.27
-82.41
-73.66
-72.82
-74.00
-71.31
-62.25
-48.55
-34.67
-24.89
-20.97
-21.56
-23.46
-23.86
-22.05
-19.84
-20.38
-26.09
-36.74
-49.30
-59.28
-62.97
-59.24
-49.90
-38.54
-28.46
-20.88
-14.57
-7.07
3.52
17.06
31.37
43.43
51.08
54.34
55.32
57.07
62.03
71.03
83.23
96.74
109.52
119.95
127.09
130.62
130.71
127.94
123.19
117.33
110.83
103.74
95.77
86.67
76.49
65.80
55.44
46.39
39.51
35.32
34.07
35.49
38.85
43.21
47.66
51.69
55.23
58.48
61.50
63.96
65.16
64.39
61.42
56.71
51.21
45.89
41.13
36.50
31.10
24.11
15.36
5.56
-4.09
-12.47
-19.19
-24.69
-29.99
-36.18
-44.00
-53.53
-64.33
-75.46
-85.65
-93.32
-96.98
-95.64
-89.25
-78.94
-66.55
-54.06
-42.75
-32.80
-23.45
-13.52
-2.03
11.36
26.25
41.68
56.40
69.14
78.87
84.96
87.35
86.61
83.76
79.97
76.18
72.77
69.51
65.86
61.23
55.43
48.70
41.55
34.38
27.32
20.23
13.06
6.19
0.48
-3.18
-4.34
-3.41
-1.41
0.68
2.48
4.47
7.36
11.31
15.24
16.88
13.67
3.93
-12.18
-32.67
-54.41
-74.27
-90.07
-101.12
-108.25
-113.49
-119.42
-128.41
-141.98
-160.45
-182.87
-207.04
-229.82
-247.49
-256.41
-253.98
-239.42
-214.13
-181.24
-144.58
-107.26
-70.84
-35.19
0.57
36.62
71.62
102.82
127.14
142.78
150.04
151.04
148.52
144.47
139.53
133.33
125.40
115.86
105.47
94.88
83.81
70.96
54.65
34.05
10.01
-15.05
-38.12
-56.81
-70.18
-78.67
-83.56
-86.27
-87.85
-88.91
-89.61
-89.75
-88.93
-86.76
-82.99
-77.64
-71.06
-63.85
-56.70
-50.28
-45.03
-41.23
-38.87
-37.70
-37.36
-37.51
-37.94
-38.57
-39.24
-39.59
-38.95
-36.49
-31.47
-23.48
-12.59
0.59
14.98
29.25
42.23
53.24
62.34
69.93
76.27
81.01
83.05
81.07
74.50
63.95
51.27
38.71
27.96
19.68
13.80
10.23
9.27
11.50
16.96
24.74
33.20
40.79
47.00
52.64
59.29
68.33
80.02
92.97
104.58
111.75
111.99
104.28
89.46
70.09
49.47
30.56
14.94
2.57
-7.69
-17.01
-25.78
-33.53
-39.68
-44.34
-48.59
-53.79
-60.72
-68.86
-76.51
-81.87
-84.00
-83.55
-82.47
-82.98
-86.17
-91.39
-96.70
-100.12
-101.03
-100.82
-102.40
-108.44
-119.80
-134.52
-148.63
-157.64
-158.34
-149.41
-130.91
-103.42
-67.54
-24.63
22.18
67.67
105.75
131.55
143.43
143.07
134.11
120.08
103.28
85.07
67.33
53.44
47.67
53.35
71.00
97.16
125.04
146.81
156.22
150.77
132.26
106.11
79.27
57.99
45.67
42.33
45.36
51.23
57.30
62.47
66.76
70.15
71.87
70.45
64.57
53.89
39.48
23.44
8.30
-3.74
-11.51
-15.34
-16.96
-18.80
-23.26
-31.48
-42.57
-53.52
-60.15
-58.67
-47.23
-26.81
-1.31
23.28
40.82
46.91
40.34
23.36
0.45
-23.57
-45.32
-63.56
-78.61
-91.09
-100.87
-107.01
-108.39
-104.41
-95.48
-82.63
-66.85
-48.40
-26.81
-1.44
27.29
57.14
84.07
103.50
112.08
109.26
97.60
81.50
65.05
50.17
36.19
21.03
3.14
-16.85
-36.03
-50.53
-57.51
-56.36
-48.76
-37.65
-26.00
-15.92
-8.45
-3.73
-1.49
-1.23
-2.16
-3.39
-3.89
-2.84
0.15
5.23
12.53
22.37
35.03
50.64
68.65
87.72
105.62
119.27
124.76
117.74
94.47
53.94
0.01
-57.88
-107.07
-136.46
-141.61
-127.32
-105.94
-91.90
-95.27
-117.11
-149.40
-179.12
-194.49
-190.34
-169.85
-142.44
-118.89
-106.80
-108.55
-122.08
-143.23
-168.10
-193.83
-217.82
-236.64
-246.07
-242.75
-226.75
-202.78
-178.63
-161.69
-155.13
-156.06
-156.71
-148.11
-123.69
-81.42
-23.50
45.14
118.50
190.39
254.78
306.34
341.41
358.92
360.62
350.05
330.87
305.86
276.95
246.38
217.56
194.72
181.18
177.44
180.59
185.57
187.55
183.99
174.85
161.41
144.82
125.43
103.27
78.95
54.36
32.22
15.15
4.35
-0.84
-2.64
-3.80
-6.52
-11.68
-18.74
-26.17
-32.17
-35.29
-34.80
-30.61
-23.06
-12.85
-0.99
11.21
22.31
31.14
37.24
40.94
43.08
44.40
45.19
45.01
43.07
38.70
31.74
22.52
11.38
-1.72
-17.23
-35.57
-56.54
-79.28
-102.84
-127.01
-152.46
-180.14
-210.06
-240.48
-268.04
-289.10
-301.61
-306.19
-305.88
-304.40
-304.09
-304.48
-302.59
-294.40
-276.81
-248.84
-211.77
-168.42
-122.03
-75.44
-30.69
10.91
48.43
81.01
107.73
127.93
141.50
148.98
151.42
149.94
145.24
137.28
125.28
108.18
85.41
57.55
26.66
-4.01
-31.03
-51.99
-66.40
-75.68
-82.25
-88.17
-93.73
-97.06
-94.53
-82.06
-56.38
-15.79
39.30
106.12
179.25
250.55
309.94
347.42
355.87
333.63
285.54
221.64
153.90
92.69
44.49
11.72
-5.98
-10.39
-3.96
10.13
27.75
44.29
55.79
60.34
58.43
52.41
45.10
38.19
31.53
23.65
13.08
-0.52
-15.84
-30.48
-41.90
-48.18
-48.45
-42.68
-31.49
-15.98
1.90
19.09
31.77
36.28
30.60
15.31
-6.64
-30.98
-53.60
-72.04
-85.95
-96.49
-105.24
-113.08
-119.85
-124.39
-125.13
-120.57
-109.27
-89.85
-61.39
-24.41
17.98
59.77
93.42
112.49
114.47
102.12
82.21
62.37
47.61
38.68
32.87
26.61
17.84
6.73
-5.10
-15.88
-24.73
-31.51
-36.17
-38.37
-37.62
-33.94
-28.40
-22.92
-19.62
-19.54
-21.81
-23.57
-20.92
-10.39
9.43
37.05
68.35
97.73
119.90
131.50
131.86
122.97
108.54
92.81
79.35
70.46
66.86
67.95
72.23
77.81
82.64
84.76
82.46
74.85
62.32
46.83
31.51
19.59
13.13
12.13
14.52
17.07
16.90
12.60
4.60
-5.29
-14.96
-22.82
-28.34
-32.02
-34.95
-38.21
-42.45
-47.63
-53.10
-57.79
-60.58
-60.64
-57.53
-51.50
-43.31
-34.17
-25.33
-17.86
-12.37
-8.94
-7.27
-6.81
-7.02
-7.47
-7.89
-8.26
-8.83
-10.23
-13.24
-18.49
-25.86
-34.26
-41.83
-46.60
-47.42
-44.44
-39.19
-33.59
-29.14
-26.31
-24.69
-23.59
-22.79
-22.72
-24.19
-27.62
-32.48
-37.26
-39.90
-38.69
-32.98
-23.54
-12.30
-1.49
7.27
13.75
19.21
25.69
34.97
47.62
62.76
78.40
92.45
103.31
109.96
111.81
108.39
99.57
85.94
69.05
51.24
34.71
20.72
9.27
-0.53
-9.58
-18.21
-26.13
-32.90
-38.47
-43.40
-48.86
-56.13
-66.07
-78.57
-92.18
-104.54
-113.05
-116.12
-113.73
-107.40
-99.16
-90.01
-79.29
-64.90
-44.98
-19.79
7.71
32.95
52.29
64.95
73.26
80.71
89.48
98.63
104.57
103.18
92.46
73.94
52.05
32.03
17.38
8.67
3.85
-0.11
-5.51
-12.97
-21.48
-29.24
-34.44
-36.17
-34.55
-30.71
-26.15
-21.90
-18.32
-15.07
-11.75
-8.62
-6.77
-7.56
-11.62
-18.02
-24.34
-27.69
-26.40
-21.18
-15.10
-12.30
-16.11
-27.77
-46.32
-69.49
-94.74
-119.79
-142.20
-159.00
-166.57
-161.70
-143.10
-112.59
-75.12
-37.34
-5.48
16.62
28.22
31.08
28.16
22.19
15.05
7.73
0.66
-5.79
-11.09
-14.67
-16.21
-15.84
-14.21
-12.24
-10.78
-10.33
-10.93
-12.26
-13.91
-15.52
-16.89
-17.89
-18.34
-17.87
-16.03
-12.40
-6.88
0.25
8.39
16.73
24.45
30.87
35.61
38.63
40.22
40.93
41.27
41.69
42.45
43.80
45.97
49.15
53.22
57.72
61.93
65.37
68.08
70.49
72.92
74.88
74.92
71.37
63.36
51.75
39.03
28.23
21.47
18.95
18.98
19.09
17.41
13.42
7.98
2.31
-2.92
-8.04
-14.12
-22.17
-32.45
-44.33
-56.47
-67.55
-76.73
-83.86
-89.12
-92.54
-93.66
-91.56
-85.31
-74.59
-60.11
-43.55
-27.09
-12.65
-1.10
7.85
15.40
22.93
31.24
40.30
49.41
57.70
64.66
70.30
74.84
78.32
80.32
80.06
76.84
70.53
61.84
51.80
41.45
31.27
21.13
10.68
0.04
-9.78
-17.00
-19.88
-17.70
-11.21
-2.32
6.94
15.44
23.41
31.97
42.11
53.79
65.64
75.47
81.12
81.33
75.96
65.88
52.55
37.52
22.15
7.43
-6.01
-17.82
-27.68
-35.13
-39.84
-41.85
-41.87
-41.16
-41.06
-42.17
-44.01
-45.19
-44.46
-41.56
-37.85
-35.58
-36.75
-41.84
-49.19
-55.36
-56.31
-48.96
-32.49
-8.79
18.19
43.85
64.43
78.20
85.56
88.36
88.62
87.60
85.36
81.28
74.77
66.04
56.10
46.29
37.53
29.90
22.73
15.20
6.99
-1.50
-9.38
-15.74
-20.39
-23.84
-27.13
-31.22
-36.67
-43.43
-51.15
-59.41
-67.85
-76.00
-83.13
-88.30
-90.58
-89.44
-85.00
-77.89
-69.05
-59.21
-48.94
-38.55
-28.37
-18.80
-10.32
-3.36
1.84
5.38
7.62
9.11
10.33
11.62
13.08
14.65
16.10
17.16
17.58
17.15
15.74
13.33
10.12
6.44
2.63
-1.05
-4.56
-8.10
-11.95
-16.37
-21.46
-27.08
-32.93
-38.54
-43.37
-46.88
-48.57
-48.13
-45.54
-41.10
-35.45
-29.38
-23.78
-19.42
-16.90
-16.51
-18.23
-21.69
-26.20
-30.90
-34.91
-37.56
-38.58
-37.99
-36.16
-33.42
-29.89
-25.43
-19.65
-12.01
-1.98
10.63
25.32
40.71
54.75
65.37
71.28
72.63
71.04
68.93
68.61
71.44
77.57
86.24
96.27
106.54
116.10
124.16
130.08
133.50
134.37
132.94
129.52
124.12
116.44
106.23
93.50
78.79
63.03
47.20
31.90
17.38
3.72
-8.90
-20.06
-29.37
-36.81
-42.91
-48.57
-54.60
-61.22
-67.93
-73.87
-78.43
-81.65
-84.31
-87.32
-91.11
-95.15
-98.20
-98.91
-96.51
-91.24
-84.12
-76.54
-69.71
-64.36
-60.82
-59.16
-59.34
-61.09
-63.81
-66.51
-67.85
-66.52
-61.53
-52.52
-39.87
-24.58
-8.09
8.00
22.25
33.64
41.80
46.98
49.74
50.76
50.40
48.66
45.39
40.43
33.98
26.69
19.51
13.45
9.41
7.86
8.84
11.96
16.59
21.97
27.48
32.72
37.45
41.55
44.83
47.03
47.95
47.50
45.89
43.56
41.01
38.63
36.60
34.83
33.16
31.46
29.73
28.10
26.72
25.65
24.75
23.73
22.10
19.40
15.22
9.49
2.50
-5.03
-12.05
-17.43
-20.26
-20.11
-17.19
-12.21
-6.19
-0.11
5.36
9.88
13.34
15.69
16.81
16.57
15.01
12.50
9.76
7.53
6.35
6.21
6.62
6.89
6.45
5.24
3.61
2.11
1.09
0.48
-0.25
-1.77
-4.62
-8.99
-14.62
-20.88
-26.96
-31.94
-34.95
-35.36
-32.81
-27.53
-20.23
-11.95
-3.77
3.50
9.48
14.21
17.87
20.62
22.45
23.29
23.18
22.33
21.11
19.88
18.80
17.77
16.50
14.73
12.41
9.74
7.06
4.65
2.56
0.52
-1.97
-5.39
-10.03
-15.86
-22.42
-28.92
-34.36
-37.66
-37.95
-34.79
-28.34
-19.30
-8.81
1.90
11.86
20.40
27.26
32.35
35.58
36.86
36.13
33.59
29.85
25.82
22.42
20.26
19.42
19.40
19.41
18.67
16.73
13.62
9.73
5.62
1.74
-1.84
-5.43
-9.71
-15.33
-22.59
-31.09
-39.70
-46.74
-50.54
-49.95
-44.78
-35.72
-24.12
-11.46
0.98
12.34
22.26
30.60
37.29
42.19
45.09
45.85
44.57
41.76
38.29
35.15
33.16
32.62
33.14
33.77
33.44
31.37
27.45
22.28
16.85
12.08
8.27
4.92
0.95
-4.87
-13.31
-24.13
-36.19
-47.52
-55.99
-59.80
-57.92
-50.26
-37.58
-21.35
-3.70
12.87
25.88
33.55
35.34
32.19
26.18
19.67
14.45
11.24
9.79
9.36
9.35
9.55
10.05
10.86
11.67
11.91
11.11
9.16
6.46
3.72
1.51
0.14
-0.63
-1.37
-2.72
-5.19
-8.92
-13.74
-19.20
-24.68
-29.51
-32.95
-34.30
-33.13
-29.32
-23.25
-15.65
-7.47
0.49
7.68
13.88
19.00
22.91
25.37
26.10
25.03
22.47
19.12
15.87
13.52
12.44
12.52
13.23
13.89
13.97
13.28
11.98
10.39
8.80
7.24
5.52
3.41
0.70
-2.65
-6.58
-11.01
-15.90
-21.11
-26.24
-30.53
-32.97
-32.63
-29.07
-22.62
-14.26
-5.37
2.82
9.57
14.67
18.35
20.94
22.63
23.46
23.38
22.46
20.90
19.08
17.38
16.09
15.31
14.97
14.95
15.07
15.12
14.91
14.22
12.88
10.81
8.10
4.96
1.68
-1.60
-4.94
-8.59
-12.87
-17.98
-23.80
-29.80
-35.16
-38.83
-39.90
-37.84
-32.70
-25.14
-16.28
-7.37
0.53
6.80
11.32
14.35
16.28
17.50
18.21
18.50
18.39
17.91
17.11
16.11
15.02
13.93
12.92
12.02
11.18
10.26
9.09
7.45
5.24
2.45
-0.74
-4.04
-7.18
-10.01
-12.61
-15.26
-18.37
-22.30
-27.34
-33.48
-40.44
-47.48
-53.49
-57.16
-57.34
-53.51
-45.96
-35.84
-24.76
-14.26
-5.36
1.61
6.91
11.05
14.41
17.15
19.24
20.62
21.41
21.86
22.28
22.85
23.58
24.24
24.59
24.49
24.04
23.50
23.15
23.08
23.12
22.86
21.92
20.06
17.32
13.96
10.38
6.88
3.62
0.60
-2.31
-5.35
-8.83
-13.04
-18.12
-23.90
-29.75
-34.73
-37.77
-38.09
-35.48
-30.35
-23.63
-16.35
-9.38
-3.21
2.04
6.46
10.23
13.44
16.11
18.26
20.00
21.50
23.01
24.69
26.61
28.60
30.43
31.81
32.53
32.60
32.12
31.36
30.57
29.88
29.31
28.67
27.71
26.06
23.52
20.01
15.71
10.96
6.16
1.61
-2.58
-6.46
-10.28
-14.33
-18.85
-23.95
-29.42
-34.77
-39.20
-41.86
-42.01
-39.37
-34.19
-27.13
-19.18
-11.32
-4.34
1.34
5.52
8.28
9.84
10.50
10.56
10.27
9.87
9.49
9.24
9.15
9.20
9.25
9.21
8.99
8.65
8.31
8.09
8.01
7.96
7.69
6.93
5.53
3.51
1.04
-1.61
-4.21
-6.75
-9.32
-12.17
-15.60
-19.69
-24.24
-28.63
-31.99
-33.35
-32.07
-28.03
-21.73
-14.21
-6.63
0.01
5.16
8.73
11.00
12.30
12.85
12.70
11.85
10.37
8.49
6.67
5.32
4.74
4.95
5.75
6.85
7.97
8.96
9.64
9.85
9.34
7.87
5.35
1.86
-2.32
-6.79
-11.16
-15.24
-18.98
-22.55
-26.27
-30.42
-35.12
-40.21
-45.16
-49.12
-51.11
-50.34
-46.49
-39.87
-31.41
-22.39
-14.04
-7.26
-2.36
0.84
2.82
4.04
4.80
5.19
5.19
4.84
4.24
3.52
2.75
1.99
1.26
0.64
0.36
0.55
1.30
2.41
3.48
4.01
3.63
2.22
-0.08
-3.04
-6.36
-9.85
-13.45
-17.18
-21.17
-25.63
-30.76
-36.61
-42.91
-48.93
-53.53
-55.43
-53.70
-48.21
-39.71
-29.61
-19.51
-10.62
-3.51
1.90
6.10
9.55
12.56
15.22
17.45
19.25
20.63
21.69
22.49
23.08
23.54
24.00
24.66
25.69
27.15
28.95
30.71
32.00
32.41
31.68
29.77
26.87
23.26
19.32
15.37
11.59
7.97
4.26
-0.01
-5.27
-11.71
-19.07
-26.50
-32.76
-36.60
-37.14
-34.30
-28.70
-21.54
-14.06
-7.23
-1.55
2.98
6.59
9.60
12.18
14.40
16.30
17.90
19.23
20.34
21.19
21.79
22.14
22.31
22.40
22.47
22.51
22.41
22.00
21.07
19.46
17.13
14.13
10.67
7.00
3.35
-0.16
-3.61
-7.27
-11.45
-16.34
-21.75
-27.11
-31.49
-33.87
-33.45
-29.94
-23.67
-15.56
-6.80
1.48
8.54
14.07
18.21
21.29
23.54
24.99
25.51
24.94
23.37
21.12
18.74
16.72
15.38
14.73
14.56
14.52
14.32
13.75
12.69
11.10
8.94
6.19
2.92
-0.76
-4.66
-8.56
-12.31
-15.90
-19.44
-23.11
-26.96
-30.73
-33.80
-35.29
-34.43
-30.80
-24.56
-16.49
-7.62
0.93
8.39
14.33
18.67
21.51
23.03
23.34
22.52
20.72
18.20
15.31
12.53
10.26
8.70
7.78
7.18
6.44
5.19
3.25
0.74
-2.07
-4.88
-7.55
-10.13
-12.84
-15.97
-19.75
-24.33
-29.67
-35.56
-41.48
-46.59
-49.80
-50.03
-46.56
-39.37
-29.39
-18.14
-7.26
1.96
8.97
13.94
17.37
19.84
21.60
22.68
22.97
22.43
21.19
19.55
17.87
16.44
15.42
14.79
14.40
14.00
13.35
12.28
10.75
8.84
6.63
4.20
1.53
-1.46
-4.79
-8.51
-12.69
-17.44
-22.94
-29.25
-36.11
-42.84
-48.36
-51.46
-51.20
-47.23
-39.95
-30.35
-19.79
-9.61
-0.88
5.83
10.40
13.18
14.74
15.69
16.54
17.48
18.53
19.50
20.24
20.70
20.97
21.20
21.57
22.16
22.87
23.51
23.79
23.43
22.19
20.00
16.91
13.13
8.95
4.67
0.56
-3.26
-6.84
-10.47
-14.60
-19.66
-25.84
-32.83
-39.71
-45.07
-47.42
-45.68
-39.55
-29.77
-17.87
-5.74
4.98
13.31
19.05
22.66
24.81
26.10
26.81
27.00
26.62
25.74
24.54
23.28
22.16
21.21
20.36
19.49
18.54
17.57
16.71
16.03
15.46
14.81
13.87
12.40
10.33
7.66
4.51
0.99
-2.88
-7.15
-12.00
-17.55
-23.69
-29.87
-35.15
-38.32
-38.29
-34.46
-27.04
-17.02
-5.91
4.74
13.81
20.76
25.70
29.00
31.11
32.26
32.46
31.64
29.82
27.26
24.44
21.97
20.33
19.72
19.98
20.68
21.28
21.27
20.35
18.40
15.57
12.06
8.10
3.89
-0.50
-4.98
-9.53
-14.16
-18.99
-24.26
-30.08
-36.29
-42.17
-46.51
-47.92
-45.43
-38.89
-29.18
-17.90
-6.83
2.69
9.99
15.12
18.49
20.58
21.73
22.07
21.63
20.51
18.94
17.33
16.10
15.54
15.61
15.97
16.13
15.75
14.69
13.08
11.15
8.97
6.41
3.22
-0.67
-5.09
-9.59
-13.62
-16.80
-19.12
-20.99
-23.03
-25.93
-30.18
-35.82
-42.28
-48.38
-52.65
-53.69
-50.75
-43.91
-34.15
-22.98
-11.96
-2.23
5.68
11.77
16.39
19.92
22.65
24.66
25.96
26.57
26.59
26.22
25.64
24.95
24.16
23.22
22.06
20.75
19.47
18.43
17.71
17.22
16.59
15.35
13.13
9.84
5.70
1.21
-3.11
-6.91
-10.12
-12.93
-15.77
-19.07
-23.25
-28.47
-34.66
-41.25
-47.24
-51.32
-52.19
-49.04
-41.91
-31.74
-20.13
-8.77
1.04
8.72
14.34
18.30
21.03
22.76
23.60
23.61
22.98
22.03
21.10
20.44
20.19
20.36
20.84
21.53
22.24
22.76
22.81
22.19
20.76
18.60
15.93
12.97
9.93
6.86
3.76
0.58
-2.72
-6.32
-10.46
-15.41
-21.28
-27.75
-33.87
-38.27
-39.57
-36.92
-30.41
-21.08
-10.54
-0.44
8.06
14.39
18.59
21.02
22.13
22.32
21.90
21.16
20.33
19.62
19.22
19.21
19.60
20.27
21.03
21.68
21.99
21.81
21.05
19.63
17.54
14.79
11.41
7.53
3.32
-1.02
-5.24
-9.21
-12.92
-16.60
-20.72
-25.81
-32.12
-39.35
-46.43
-51.83
-53.90
-51.67
-45.21
-35.62
-24.67
-14.13
-5.18
1.72
6.70
10.22
12.73
14.53
15.84
16.81
17.57
18.22
18.84
19.46
20.05
20.51
20.72
20.60
20.13
19.45
18.76
18.27
18.05
17.92
17.49
16.29
13.96
10.39
5.80
0.68
-4.38
-8.86
-12.52
-15.46
-18.05
-20.84
-24.39
-29.07
-34.87
-41.36
-47.56
-52.20
-53.98
-51.98
-46.03
-36.82
-25.72
-14.30
-3.95
4.52
10.85
15.18
17.87
19.28
19.79
19.79
19.67
19.75
20.18
20.90
21.72
22.37
22.68
22.58
22.16
21.55
20.93
20.39
19.95
19.44
18.66
17.28
15.11
12.13
8.52
4.65
0.91
-2.47
-5.56
-8.63
-12.09
-16.30
-21.40
-27.28
-33.42
-39.06
-43.16
-44.74
-43.07
-38.00
-30.01
-20.20
-9.93
-0.47
7.35
13.27
17.43
20.19
21.82
22.45
22.04
20.63
18.44
15.91
13.64
12.15
11.73
12.29
13.50
14.83
15.78
16.01
15.37
13.90
11.82
9.39
6.89
4.45
2.07
-0.48
-3.52
-7.35
-12.23
-18.14
-24.82
-31.64
-37.64
-41.64
-42.57
-39.75
-33.28
-23.97
-13.23
-2.49
7.19
15.35
22.06
27.57
32.02
35.18
36.70
36.36
34.27
30.97
27.25
23.91
21.53
20.33
20.34
21.46
23.49
26.04
28.54
30.21
30.25
28.15
23.91
18.01
11.27
4.48
-1.85
-7.51
-12.60
-17.31
-21.84
-26.39
-31.14
-36.20
-41.42
-46.23
-49.64
-50.49
-47.85
-41.48
-31.98
-20.66
-9.15
1.07
9.11
14.71
18.16
20.03
20.94
21.32
21.44
21.38
21.15
20.76
20.19
19.43
18.47
17.37
16.24
15.29
14.72
14.61
14.91
15.35
15.55
15.06
13.51
10.72
6.82
2.14
-2.78
-7.39
-11.34
-14.64
-17.74
-21.33
-26.09
-32.19
-39.14
-45.80
-50.65
-52.36
-50.22
-44.42
-35.95
-26.39
-17.31
-9.96
-4.93
-2.23
-1.40
-1.86
-3.10
-4.76
-6.55
-8.32
-9.86
-10.97
-11.50
-11.38
-10.68
-9.55
-8.19
-6.79
-5.55
-4.53
-3.81
-3.30
-2.99
-2.86
-3.00
-3.59
-4.84
-6.81
-9.51
-12.90
-16.94
-21.58
-26.63
-31.56
-35.47
-37.27
-36.07
-31.59
-24.33
-15.51
-6.57
1.28
7.44
11.92
15.13
17.55
19.42
20.71
21.21
20.73
19.33
17.36
15.34
13.81
13.04
12.93
13.04
12.85
12.04
10.61
8.92
7.45
6.47
5.92
5.38
4.31
2.23
-1.03
-5.38
-10.46
-15.77
-20.75
-24.73
-27.07
-27.25
-25.02
-20.52
-14.26
-6.99
0.49
7.42
13.20
17.46
20.01
20.87
20.25
18.47
15.91
12.98
10.04
7.44
5.44
4.21
3.72
3.75
3.92
3.88
3.48
2.72
1.76
0.68
-0.63
-2.47
-5.25
-9.32
-14.77
-21.37
-28.49
-35.12
-39.98
-41.87
-39.93
-34.06
-24.99
-14.14
-3.09
6.81
14.86
20.96
25.35
28.34
30.09
30.65
30.05
28.54
26.44
24.22
22.23
20.67
19.62
18.98
18.59
18.21
17.62
16.58
14.98
12.78
10.03
6.85
3.34
-0.43
-4.39
-8.55
-13.00
-17.90
-23.43
-29.69
-36.36
-42.72
-47.54
-49.55
-47.75
-41.91
-32.69
-21.44
-9.74
0.95
9.72
16.24
20.63
23.24
24.46
24.71
24.36
23.82
23.41
23.30
23.50
23.79
23.92
23.67
23.03
22.12
21.17
20.31
19.51
18.52
17.03
14.72
11.50
7.44
2.84
-1.93
-6.53
-10.75
-14.51
-17.92
-21.26
-24.95
-29.41
-34.87
-41.11
-47.24
-51.91
-53.65
-51.44
-45.13
-35.54
-24.16
-12.62
-2.16
6.61
13.66
19.21
23.52
26.71
28.79
29.81
29.98
29.61
29.06
28.62
28.48
28.64
28.94
29.16
29.07
28.57
27.67
26.46
25.05
23.51
21.88
20.18
18.42
16.64
14.81
12.85
10.59
7.86
4.61
0.91
-3.09
-7.19
-11.32
-15.54
-20.03
-24.99
-30.54
-36.68
-43.10
-49.16
-53.92
-56.31
-55.41
-50.82
-42.92
-32.76
-21.84
-11.57
-2.95
3.74
8.65
12.27
15.03
17.19
18.85
20.08
20.98
21.71
22.49
23.43
24.55
25.73
26.82
27.71
28.38
28.90
29.34
29.62
29.53
28.68
26.69
23.32
18.66
13.10
7.29
1.86
-2.74
-6.40
-9.29
-11.76
-14.20
-16.82
-19.77
-23.02
-26.47
-29.99
-33.35
-36.20
-38.01
-38.24
-36.45
-32.57
-26.92
-20.24
-13.36
-7.10
-1.92
2.06
4.95
6.96
8.18
8.67
8.54
8.08
7.71
7.93
8.99
10.84
13.15
15.58
18.04
20.77
24.29
29.01
34.96
41.54
47.74
52.40
54.61
53.91
50.32
44.17
35.91
25.97
14.79
2.89
-9.07
-20.38
-30.40
-38.68
-45.13
-49.82
-52.86
-54.20
-53.67
-51.04
-46.31
-39.82
-32.27
-24.40
-16.78
-9.63
-2.85
3.78
10.48
17.39
24.72
32.77
41.84
52.02
62.86
73.28
81.86
87.28
88.78
86.49
81.26
74.30
66.64
58.84
50.82
42.10
32.11
20.51
7.30
-7.09
-21.96
-36.51
-49.88
-61.30
-70.10
-75.79
-78.19
-77.52
-74.37
-69.62
-64.14
-58.63
-53.50
-48.93
-44.91
-41.42
-38.38
-35.73
-33.37
-31.23
-29.24
-27.38
-25.63
-24.01
-22.50
-21.07
-19.66
-18.26
-17.00
-15.99
-15.39
-15.28
-15.64
-16.38
-17.47
-18.96
-20.92
-23.44
-26.33
-29.16
-31.25
-31.81
-30.27
-26.37
-20.17
-11.96
-2.15
8.88
20.62
32.46
43.71
53.61
61.57
67.33
70.97
72.76
72.97
71.72
69.08
65.20
60.50
55.62
51.20
47.60
44.70
42.03
39.02
35.28
30.76
25.67
20.27
14.66
8.75
2.39
-4.56
-12.05
-19.97
-28.05
-35.93
-43.10
-48.86
-52.42
-53.20
-50.95
-46.01
-39.19
-31.49
-23.89
-17.10
-11.49
-7.17
-4.17
-2.44
-1.81
-2.07
-2.81
-3.65
-4.19
-4.23
-3.78
-3.08
-2.52
-2.43
-2.94
-3.96
-5.24
-6.48
-7.53
-8.44
-9.48
-10.97
-13.18
-16.29
-20.26
-24.85
-29.56
-33.63
-36.19
-36.45
-34.03
-29.09
-22.33
-14.70
-7.13
-0.34
5.28
9.50
12.25
13.55
13.50
12.38
10.60
8.70
7.20
6.48
6.68
7.63
8.88
9.88
10.18
9.63
8.43
7.01
5.81
5.02
4.51
3.90
2.77
0.81
-2.12
-5.95
-10.45
-15.12
-19.33
-22.31
-23.37
-22.14
-18.68
-13.52
-7.48
-1.47
3.76
7.76
10.43
11.90
12.50
12.57
12.39
12.15
11.96
11.94
12.23
12.89
13.91
15.06
15.94
16.11
15.31
13.60
11.31
8.86
6.56
4.49
2.42
0.09
-2.81
-6.40
-10.69
-15.52
-20.56
-25.22
-28.77
-30.42
-29.57
-26.09
-20.34
-13.20
-5.65
1.34
7.19
11.67
14.86
17.01
18.32
18.96
18.97
18.44
17.53
16.50
15.66
15.32
15.59
16.40
17.54
18.73
19.68
20.17
20.03
19.12
17.37
14.82
11.61
7.98
4.11
0.16
-3.86
-7.99
-12.33
-16.93
-21.67
-26.24
-30.04
-32.27
-32.17
-29.23
-23.56
-15.82
-7.18
1.16
8.27
13.81
17.86
20.83
23.09
24.81
25.98
26.53
26.55
26.31
26.25
26.75
27.98
29.86
32.09
34.35
36.39
38.18
39.80
41.41
43.20
45.24
47.55
50.07
52.65
54.97
56.59
57.00
55.69
52.27
46.52
38.48
28.50
17.29
5.86
-4.65
-13.31
-19.60
-23.67
-26.15
-27.98
-29.94
-32.42
-35.37
-38.44
-41.22
-43.45
-44.98
-45.77
-45.67
-44.50
-41.99
-37.92
-32.32
-25.55
-18.22
-11.11
-4.98
-0.31
2.64
3.93
3.76
2.41
0.16
-2.66
-5.79
-9.01
-12.26
-15.70
-19.58
-24.11
-29.30
-34.96
-40.80
-46.55
-52.12
-57.47
-62.51
-66.83
-69.83
-70.88
-69.72
-66.64
-62.37
-57.77
-53.32
-48.98
-44.35
-39.20
-33.87
-29.21
-26.27
-25.50
-26.47
-27.93
-28.39
-26.93
-23.62
-19.39
-15.40
-12.40
-10.34
-8.55
-6.11
-2.42
2.64
8.73
15.23
21.45
26.63
30.27
32.16
32.59
32.30
32.29
33.31
35.46
38.14
40.20
40.65
39.17
36.46
33.93
33.21
35.49
41.04
49.27
58.99
68.90
78.03
85.93
92.51
97.89
101.96
104.33
104.42
101.69
96.04
87.99
78.58
69.09
60.46
53.03
46.46
40.14
33.56
26.70
19.96
13.84
8.53
3.81
-0.86
-5.92
-11.43
-17.01
-22.04
-26.06
-29.09
-31.62
-34.40
-37.98
-42.41
-47.16
-51.30
-53.96
-54.75
-54.05
-52.82
-52.20
-52.92
-54.86
-56.98
-57.74
-55.80
-50.62
-42.70
-33.32
-24.00
-15.88
-9.42
-4.47
-0.61
2.53
5.05
6.86
7.80
7.78
6.86
5.19
2.99
0.47
-2.34
-5.59
-9.70
-15.15
-22.18
-30.56
-39.45
-47.66
-54.06
-57.99
-59.54
-59.35
-58.34
-57.24
-56.40
-55.77
-55.09
-54.15
-52.99
-51.79
-50.74
-49.80
-48.65
-46.77
-43.69
-39.11
-32.84
-24.60
-14.04
-0.84
14.88
32.33
50.13
66.80
81.44
93.97
104.95
114.97
124.07
131.58
136.50
138.23
136.99
133.81
130.01
126.51
123.38
119.91
115.13
108.41
99.88
90.39
81.03
72.65
65.35
58.57
51.45
43.19
33.48
22.52
10.85
-0.88
-12.20
-22.88
-32.98
-42.72
-52.31
-61.81
-71.19
-80.21
-88.54
-95.74
-101.16
-104.18
-104.14
-100.78
-94.41
-85.95
-76.83
-68.47
-61.92
-57.51
-54.88
-53.27
-51.99
-50.64
-49.25
-48.03
-47.01
-45.75
-43.44
-39.17
-32.45
-23.57
-13.54
-3.80
4.28
9.89
12.83
13.56
12.89
11.68
10.63
10.07
9.97
10.03
9.98
9.89
10.24
11.76
14.93
19.58
24.71
28.73
30.08
27.77
21.71
12.67
2.10
-8.21
-16.47
-21.30
-21.95
-18.63
-12.33
-4.61
3.00
9.28
13.67
16.17
17.17
17.39
17.65
18.70
20.94
24.11
27.26
28.98
28.13
24.48
19.04
13.69
10.31
9.88
12.02
15.27
17.89
18.75
17.66
15.20
12.07
8.58
4.54
-0.43
-6.48
-13.19
-19.70
-25.15
-29.14
-31.97
-34.50
-37.73
-42.29
-48.10
-54.36
-59.71
-62.80
-62.69
-59.24
-52.99
-45.08
-36.84
-29.43
-23.68
-20.01
-18.48
-18.72
-20.08
-21.67
-22.60
-22.24
-20.40
-17.44
-14.05
-10.96
-8.64
-7.11
-5.99
-4.76
-3.04
-0.79
1.73
4.11
5.91
6.87
6.86
5.79
3.70
0.62
-3.15
-7.17
-10.93
-14.01
-16.42
-18.54
-21.04
-24.42
-28.55
-32.44
-34.47
-32.95
-26.90
-16.59
-3.46
10.49
23.47
34.47
43.26
49.93
54.42
56.37
55.41
51.65
46.02
40.06
35.28
32.49
31.56
31.64
31.75
31.25
30.01
28.22
26.13
23.91
21.62
19.37
17.21
15.17
13.09
10.60
7.28
2.91
-2.46
-8.62
-15.33
-22.60
-30.54
-39.27
-48.57
-57.78
-65.87
-71.68
-74.20
-72.96
-68.08
-60.17
-50.24
-39.37
-28.55
-18.53
-9.81
-2.62
3.01
7.21
10.25
12.54
14.57
16.76
19.43
22.59
26.06
29.40
32.16
33.97
34.73
34.64
34.13
33.66
33.47
33.48
33.27
32.37
30.42
27.41
23.57
19.25
14.72
10.06
5.13
-0.35
-6.67
-14.05
-22.40
-31.25
-39.67
-46.41
-50.19
-50.10
-45.93
-38.26
-28.30
-17.53
-7.30
1.33
7.70
11.49
12.60
11.11
7.43
2.24
-3.55
-8.94
-13.10
-15.55
-16.27
-15.53
-13.81
-11.51
-9.00
-6.62
-4.86
-4.39
-5.91
-9.86
-16.04
-23.51
-30.85
-36.59
-39.78
-40.34
-39.01
-37.03
-35.68
-35.86
-37.96
-41.84
-46.91
-52.21
-56.42
-58.15
-56.36
-50.77
-42.16
-32.17
-22.61
-14.66
-8.18
-2.01
5.40
14.84
25.63
35.98
43.95
48.69
50.84
51.96
53.25
54.63
54.71
51.82
45.26
36.00
26.17
17.93
12.33
8.95
6.64
4.39
2.06
0.16
-0.70
-0.57
-0.28
-1.06
-3.99
-9.38
-16.74
-24.84
-31.98
-36.63
-37.80
-35.37
-30.03
-22.92
-15.07
-6.98
1.42
10.51
20.44
30.78
40.62
48.97
55.26
59.53
62.26
64.01
65.09
65.70
66.14
66.98
68.88
72.22
76.80
81.67
85.62
87.83
88.27
87.88
88.03
89.63
92.31
94.10
91.74
81.71
61.47
30.38
-9.85
-55.66
-102.58
-146.36
-183.74
-212.66
-232.19
-242.16
-243.11
-236.28
-223.55
-206.93
-188.09
-167.74
-145.91
-122.38
-97.48
-72.28
-48.21
-26.62
-8.30
6.45
17.53
24.77
27.93
27.20
23.42
18.21
13.43
10.51
9.94
11.28
13.49
15.52
16.67
16.73
15.86
14.67
13.84
14.10
15.94
19.34
23.96
29.06
33.70
36.90
37.66
35.33
29.97
22.66
15.47
10.63
9.71
12.75
18.27
23.89
27.37
27.46
24.10
18.09
10.53
2.42
-5.17
-10.82
-12.68
-8.87
1.78
19.00
41.08
65.32
88.84
109.23
124.79
134.37
137.44
133.89
124.35
110.23
93.56
76.51
60.77
47.20
35.75
25.85
16.82
8.22
-0.26
-8.80
-17.52
-26.37
-34.88
-42.06
-46.55
-47.11
-43.02
-34.46
-22.41
-8.33
6.37
20.66
33.98
45.88
55.81
62.99
66.66
66.51
62.87
56.64
48.89
40.50
31.98
23.62
15.77
8.97
3.67
-0.06
-2.83
-5.74
-9.88
-15.83
-23.39
-31.77
-39.99
-47.42
-53.73
-58.92
-63.09
-66.40
-69.06
-71.36
-73.64
-76.05
-78.40
-80.11
-80.30
-78.00
-72.32
-62.62
-48.51
-30.11
-8.19
15.69
39.35
60.47
77.12
88.31
94.05
95.17
92.84
88.15
81.95
74.82
67.29
59.90
53.24
47.81
43.82
41.12
39.21
37.49
35.27
32.10
27.77
22.40
16.32
9.99
3.88
-1.71
-6.69
-11.22
-15.63
-20.31
-25.72
-32.11
-39.56
-47.65
-55.50
-61.76
-64.99
-64.00
-58.36
-48.57
-35.93
-22.23
-9.19
1.86
10.21
15.74
18.80
19.97
19.90
19.04
17.64
15.66
12.98
9.53
5.43
0.96
-3.50
-7.64
-11.36
-14.80
-18.29
-22.25
-27.04
-32.91
-39.95
-48.04
-56.97
-66.39
-75.97
-85.31
-93.92
-101.38
-107.29
-111.51
-114.08
-115.09
-114.49
-111.89
-106.55
-97.63
-84.47
-66.97
-45.59
-21.34
4.54
30.81
56.40
80.48
102.42
121.79
138.24
151.51
161.39
167.87
171.23
172.09
171.31
169.81
168.27
166.97
165.78
164.24
161.86
158.27
153.38
147.33
140.28
132.38
123.70
114.26
104.19
93.81
83.56
73.84
64.73
55.81
46.23
35.00
21.57
6.20
-9.87
-24.73
-36.45
-43.64
-45.93
-43.89
-38.71
-31.71
-23.98
-16.24
-9.04
-2.96
1.36
3.28
2.48
-0.90
-6.24
-12.55
-18.80
-24.14
-28.07
-30.45
-31.50
-31.57
-31.16
-30.72
-30.62
-31.07
-32.00
-33.13
-34.03
-34.32
-33.86
-32.82
-31.60
-30.65
-30.23
-30.40
-31.00
-31.90
-33.10
-34.81
-37.28
-40.56
-44.20
-47.25
-48.37
-46.12
-39.51
-28.32
-13.34
3.86
21.41
37.69
51.76
63.40
72.90
80.58
86.53
90.55
92.28
91.52
88.44
83.58
77.76
71.76
66.12
60.99
56.22
51.51
46.66
41.73
36.96
32.67
29.06
26.03
23.23
20.26
16.82
12.95
8.96
5.39
2.63
0.81
-0.41
-1.67
-3.79
-7.41
-12.76
-19.50
-26.68
-33.02
-37.19
-38.21
-35.76
-30.32
-22.98
-15.12
-8.00
-2.45
1.29
3.35
4.09
3.81
2.74
1.06
-1.00
-3.19
-5.27
-7.10
-8.76
-10.39
-12.10
-13.85
-15.42
-16.52
-17.01
-17.02
-16.94
-17.35
-18.76
-21.35
-24.91
-28.92
-32.71
-35.80
-38.05
-39.78
-41.64
-44.34
-48.41
-53.94
-60.40
-66.76
-71.63
-73.66
-71.85
-65.95
-56.41
-44.40
-31.32
-18.59
-7.25
2.07
9.15
14.11
17.22
18.91
19.65
19.82
19.67
19.28
18.52
17.27
15.51
13.35
11.12
9.18
7.86
7.27
7.30
7.59
7.68
7.06
5.39
2.48
-1.59
-6.56
-11.95
-17.26
-22.13
-26.52
-30.69
-35.12
-40.22
-45.98
-51.88
-56.84
-59.56
-58.92
-54.37
-46.10
-35.04
-22.62
-10.40
0.28
8.60
14.33
17.79
19.58
20.31
20.45
20.20
19.71
19.06
18.38
17.82
17.44
17.14
16.72
15.93
14.60
12.76
10.55
8.16
5.61
2.72
-0.81
-5.23
-10.62
-16.78
-23.30
-29.74
-35.69
-40.93
-45.43
-49.40
-53.28
-57.55
-62.60
-68.25
-73.70
-77.51
-78.09
-74.35
-66.12
-54.28
-40.43
-26.32
-13.29
-2.05
7.31
15.06
21.49
26.73
30.59
32.76
32.94
31.06
27.38
22.51
17.22
12.15
7.64
3.71
0.29
-2.64
-4.95
-6.43
-7.02
-6.95
-6.74
-6.93
-7.83
-9.32
-10.91
-12.03
-12.38
-12.12
-11.81
-12.20
-13.88
-17.04
-21.45
-26.48
-31.23
-34.54
-35.18
-32.06
-24.60
-13.12
1.14
16.24
30.09
41.20
48.98
53.76
56.46
58.11
59.45
60.71
61.72
62.06
61.22
58.90
55.06
50.02
44.35
38.74
33.71
29.46
25.71
21.84
17.10
10.84
2.79
-6.89
-17.67
-28.81
-39.70
-49.99
-59.71
-69.25
-79.10
-89.49
-100.17
-110.14
-117.77
-121.29
-119.32
-111.56
-98.89
-83.22
-66.82
-51.74
-39.23
-29.69
-22.83
-18.05
-14.72
-12.24
-10.09
-7.70
-4.48
0.13
6.47
14.44
23.46
32.49
40.27
45.71
48.28
48.09
45.85
42.44
38.60
34.69
30.77
26.70
22.30
17.41
11.87
5.51
-1.83
-10.13
-18.93
-27.14
-33.20
-35.42
-32.49
-23.91
-10.21
7.22
26.41
45.36
62.42
76.57
87.55
95.64
101.43
105.52
108.18
109.32
108.56
105.44
99.78
91.73
81.82
70.80
59.47
48.64
39.07
31.39
25.98
22.82
21.47
21.10
20.80
19.80
17.66
14.33
10.00
4.93
-0.64
-6.64
-13.13
-20.28
-28.37
-37.69
-48.35
-60.16
-72.34
-83.52
-92.04
-96.31
-95.53
-90.00
-81.20
-71.27
-62.20
-55.17
-50.23
-46.55
-43.14
-39.36
-35.26
-31.34
-28.13
-25.75
-23.77
-21.46
-18.18
-13.67
-8.06
-1.51
5.91
14.40
24.07
34.64
45.29
54.84
62.16
66.63
68.29
67.73
65.63
62.45
58.26
52.89
46.18
38.16
29.00
18.89
7.96
-3.60
-15.34
-26.39
-35.50
-41.35
-42.97
-40.18
-33.78
-25.31
-16.66
-9.49
-4.85
-3.06
-3.88
-6.69
-10.65
-14.80
-18.09
-19.48
-18.18
-13.98
-7.44
0.15
7.08
11.78
13.28
11.56
7.57
2.97
-0.37
-0.90
2.06
8.03
15.58
22.82
28.01
29.98
28.34
23.24
15.12
4.57
-7.65
-20.53
-32.87
-43.47
-51.63
-57.22
-60.65
-62.57
-63.52
-63.70
-63.02
-61.16
-57.74
-52.45
-45.13
-35.83
-24.92
-13.07
-1.29
9.33
17.85
23.69
26.81
27.59
26.65
24.62
21.93
18.82
15.49
12.19
9.34
7.31
6.28
6.02
5.81
4.72
1.90
-3.11
-10.09
-18.31
-26.74
-34.50
-41.23
-47.22
-53.38
-60.76
-69.82
-80.13
-90.17
-97.93
-101.58
-100.26
-94.28
-84.79
-73.23
-60.68
-47.65
-34.31
-20.89
-8.04
3.27
12.20
18.66
23.56
28.64
35.67
45.67
58.45
72.74
86.84
99.37
109.63
117.66
123.79
128.21
130.82
131.27
129.14
124.24
116.78
107.32
96.60
85.33
74.04
62.91
51.92
40.83
29.45
17.74
5.78
-6.33
-18.63
-31.31
-44.50
-58.03
-71.12
-82.49
-90.70
-94.70
-94.29
-90.22
-83.85
-76.62
-69.49
-62.71
-56.07
-49.29
-42.39
-35.70
-29.64
-24.51
-20.26
-16.72
-13.82
-11.71
-10.70
-11.02
-12.49
-14.57
-16.44
-17.45
-17.34
-16.43
-15.35
-14.65
-14.48
-14.44
-13.88
-12.11
-8.84
-4.34
0.64
5.04
7.99
9.04
8.56
7.53
7.35
9.37
14.47
22.82
33.95
46.90
60.52
73.62
85.11
94.03
99.69
101.88
100.85
97.21
91.71
85.06
77.76
70.28
62.99
56.14
49.80
43.84
38.03
32.29
26.75
21.77
17.69
14.61
12.22
10.00
7.44
4.21
0.24
-4.40
-9.67
-15.54
-22.07
-29.34
-37.41
-46.32
-55.99
-66.06
-75.80
-84.04
-89.49
-90.99
-87.99
-80.57
-69.41
-55.60
-40.24
-24.36
-8.86
5.38
17.53
26.92
33.19
36.44
37.25
36.38
34.56
32.32
30.05
28.21
27.38
28.18
30.91
35.42
41.02
46.97
52.78
58.35
63.60
67.90
69.82
67.55
59.75
46.47
29.54
11.90
-3.47
-14.74
-21.61
-25.08
-26.75
-28.13
-30.38
-34.40
-40.97
-50.68
-63.49
-78.41
-93.21
-104.97
-110.86
-109.20
-100.25
-86.19
-70.47
-56.55
-46.78
-41.75
-40.48
-41.13
-42.05
-42.35
-41.98
-41.25
-40.30
-38.82
-36.20
-32.05
-26.63
-20.90
-16.18
-13.43
-12.92
-14.10
-16.05
-17.98
-19.51
-20.67
-21.61
-22.35
-22.77
-22.82
-22.72
-23.03
-24.46
-27.56
-32.49
-38.83
-45.61
-51.42
-54.65
-53.87
-48.32
-38.18
-24.68
-9.73
4.63
16.78
25.90
31.83
34.92
35.73
34.86
33.00
30.87
29.11
28.05
27.60
27.30
26.58
25.01
22.55
19.50
16.39
13.71
11.70
10.23
8.88
7.08
4.44
0.87
-3.27
-7.34
-10.78
-13.41
-15.55
-17.95
-21.35
-26.27
-32.70
-40.03
-47.21
-52.87
-55.37
-53.16
-45.20
-31.64
-14.20
4.08
19.75
30.22
34.77
34.62
32.23
29.96
29.13
29.64
30.60
31.09
30.85
30.27
30.02
30.50
31.55
32.73
33.60
34.01
34.11
34.06
33.91
33.41
32.14
29.74
26.10
21.42
16.20
11.05
6.49
2.79
-0.18
-2.93
-6.22
-10.70
-16.52
-23.07
-29.08
-32.96
-33.42
-30.00
-23.21
-14.39
-5.11
3.32
10.19
15.36
19.14
21.88
23.81
25.00
25.40
25.05
24.13
23.00
22.02
21.42
21.23
21.25
21.25
21.06
20.70
20.31
20.05
19.95
19.87
19.48
18.46
16.53
13.57
9.68
5.17
0.48
-3.95
-7.83
-11.16
-14.28
-17.77
-22.18
-27.80
-34.41
-41.27
-47.25
-51.10
-51.81
-48.83
-42.26
-32.84
-21.77
-10.39
0.12
8.97
15.85
20.83
24.24
26.38
27.53
27.89
27.64
26.96
26.07
25.16
24.37
23.75
23.35
23.19
23.31
23.72
24.32
24.91
25.14
24.68
23.29
20.95
17.84
14.30
10.66
7.09
3.60
-0.01
-4.05
-8.84
-14.55
-21.10
-28.02
-34.41
-39.18
-41.23
-39.81
-34.83
-26.84
-17.02
-6.76
2.69
10.45
16.14
19.80
21.75
22.38
22.07
21.10
19.70
18.03
16.26
14.64
13.43
12.92
13.25
14.37
15.97
17.55
18.54
18.52
17.31
15.04
12.02
8.62
5.09
1.49
-2.28
-6.38
-10.97
-16.15
-21.93
-28.29
-35.06
-41.78
-47.57
-51.31
-51.89
-48.68
-41.79
-32.13
-21.09
-10.05
0.02
8.62
15.63
21.08
24.95
27.30
28.26
28.22
27.62
26.88
26.19
25.58
24.93
24.18
23.37
22.66
22.20
21.99
21.89
21.59
20.67
18.80
15.76
11.56
6.44
0.79
-4.98
-10.53
-15.67
-20.43
-24.93
-29.48
-34.42
-40.09
-46.65
-53.86
-60.99
-66.80
-69.89
-69.06
-63.77
-54.25
-41.55
-27.21
-12.81
0.34
11.56
20.71
28.08
34.13
39.17
43.37
46.85
49.86
52.74
55.68
58.36
59.92
59.23
55.57
49.16
41.21
33.53
27.57
23.89
21.92
20.44
18.30
14.89
10.28
5.01
-0.36
-5.51
-10.37
-15.09
-19.85
-24.86
-30.32
-36.35
-43.02
-50.18
-57.37
-63.77
-68.29
-69.84
-67.60
-61.36
-51.65
-39.59
-26.67
-14.31
-3.55
5.18
11.93
17.12
21.25
24.71
27.66
30.08
31.92
33.18
33.99
34.55
35.07
35.65
36.29
36.93
37.43
37.66
37.42
36.49
34.57
31.50
27.23
21.95
16.09
10.15
4.53
-0.63
-5.54
-10.72
-16.73
-23.93
-32.11
-40.41
-47.45
-51.72
-52.07
-48.09
-40.25
-29.70
-17.91
-6.25
4.31
13.27
20.45
25.82
29.45
31.44
31.98
31.47
30.32
29.04
27.97
27.32
27.10
27.15
27.27
27.28
27.16
26.94
26.71
26.52
26.24
25.58
24.13
21.49
17.53
12.47
6.78
1.09
-4.19
-8.96
-13.52
-18.43
-24.28
-31.43
-39.90
-49.18
-58.26
-65.74
-70.09
-70.04
-65.01
-55.35
-42.32
-27.76
-13.55
-1.10
8.93
16.57
22.22
26.41
29.50
31.72
33.23
34.21
34.91
35.50
36.05
36.48
36.60
36.25
35.40
34.21
32.88
31.62
30.46
29.26
27.70
25.39
22.05
17.66
12.49
7.00
1.72
-3.00
-7.04
-10.59
-14.07
-18.01
-22.93
-29.12
-36.56
-44.72
-52.58
-58.78
-61.91
-60.87
-55.28
-45.61
-33.08
-19.39
-6.21
5.16
13.99
20.22
24.16
26.35
27.31
27.46
27.15
26.68
26.34
26.46
27.21
28.65
30.56
32.62
34.41
35.69
36.34
36.36
35.75
34.35
31.88
28.11
23.04
17.05
10.71
4.62
-0.96
-6.22
-11.70
-18.07
-25.68
-34.42
-43.58
-51.91
-57.94
-60.32
-58.14
-51.28
-40.50
-27.27
-13.38
-0.50
10.14
17.99
23.03
25.65
26.40
25.86
24.62
23.12
21.70
20.57
19.83
19.45
19.38
19.57
19.87
20.15
20.18
19.70
18.43
16.16
12.74
8.14
2.48
-3.90
-10.57
-17.03
-22.98
-28.41
-33.71
-39.53
-46.55
-55.09
-64.80
-74.60
-82.79
-87.46
-87.05
-80.85
-69.24
-53.66
-36.13
-18.81
-3.43
9.03
18.31
24.71
28.81
31.22
32.44
32.90
32.91
32.74
32.58
32.53
32.60
32.72
32.88
33.05
33.25
33.42
33.36
32.72
31.11
28.26
24.13
18.96
13.14
7.12
1.16
-4.63
-10.38
-16.35
-22.88
-30.31
-38.82
-48.20
-57.69
-66.01
-71.61
-73.04
-69.48
-61.13
-49.16
-35.46
-22.10
-10.81
-2.53
2.58
5.07
5.81
5.62
5.03
4.22
3.11
1.58
-0.42
-2.80
-5.33
-7.78
-9.99
-11.85
-13.32
-14.35
-14.96
-15.13
-14.94
-14.44
-13.64
-12.43
-10.46
-7.30
-2.65
3.41
10.26
16.90
22.17
25.27
26.00
24.87
22.97
21.68
22.33
26.04
33.42
44.52
58.79
75.17
92.26
108.61
123.03
134.80
143.67
149.78
153.46
155.01
154.59
152.42
149.04
145.42
142.92
142.70
145.05
148.93
152.02
151.48
144.90
131.15
110.45
84.10
54.07
22.94
-5.94
-28.65
-41.56
-42.79
-33.29
-16.98
0.46
13.47
18.29
13.42
-0.79
-23.03
-51.38
-83.31
-115.43
-143.85
-165.19
-177.71
-181.79
-179.40
-172.99
-164.29
-154.13
-142.83
-130.71
-118.52
-107.25
-97.74
-90.51
-85.78
-83.76
-84.60
-88.15
-93.36
-98.09
-99.52
-95.11
-83.81
-66.75
-47.20
-29.52
-17.60
-13.55
-17.15
-26.20
-37.53
-48.15
-56.08
-60.60
-62.33
-62.96
-64.84
-70.49
-81.52
-97.85
-117.23
-135.56
-148.06
-150.89
-142.45
-123.72
-97.75
-68.46
-39.41
-13.18
8.74
25.72
37.62
44.81
48.15
48.85
48.29
47.65
47.74
49.02
52.02
57.65
67.19
81.78
101.56
125.05
149.09
169.71
183.44
188.43
184.85
174.36
159.03
140.39
119.15
95.63
70.47
45.10
21.68
2.35
-11.44
-19.38
-22.17
-21.05
-17.24
-11.78
-5.57
0.54
5.56
8.63
9.15
7.11
2.99
-2.35
-8.00
-13.27
-17.80
-21.47
-24.27
-26.10
-26.79
-26.15
-24.13
-20.87
-16.75
-12.23
-7.85
-4.14
-1.53
-0.28
-0.39
-1.53
-3.19
-4.87
-6.40
-8.20
-11.12
-16.09
-23.57
-33.02
-42.91
-51.15
-55.73
-55.50
-50.48
-41.75
-30.99
-19.88
-9.61
-0.82
6.34
11.89
15.88
18.35
19.35
19.10
17.96
16.41
14.92
13.89
13.56
14.04
15.30
17.15
19.22
20.99
21.92
21.65
20.09
17.51
14.41
11.25
8.24
5.20
1.62
-3.06
-9.22
-16.89
-25.65
-34.62
-42.59
-48.16
-50.03
-47.38
-40.15
-29.21
-16.14
-2.83
9.09
18.69
25.74
30.53
33.49
34.92
34.91
33.52
30.97
27.73
24.46
21.77
20.02
19.12
18.65
18.03
16.82
14.88
12.36
9.61
6.89
4.30
1.68
-1.29
-4.93
-9.49
-15.14
-21.92
-29.67
-37.86
-45.50
-51.16
-53.34
-51.01
-44.03
-33.27
-20.36
-7.11
5.03
15.25
23.39
29.61
34.13
37.04
38.37
38.19
36.72
34.37
31.57
28.74
26.19
24.12
22.60
21.56
20.74
19.74
18.14
15.66
12.28
8.20
3.73
-0.87
-5.50
-10.27
-15.39
-21.14
-27.76
-35.31
-43.54
-51.68
-58.48
-62.39
-62.04
-56.82
-47.13
-34.35
-20.35
-6.96
4.59
13.77
20.67
25.69
29.29
31.82
33.49
34.42
34.64
34.22
33.26
31.98
30.64
29.55
28.89
28.69
28.83
29.05
29.06
28.58
27.38
25.36
22.49
18.88
14.66
9.98
4.88
-0.76
-7.21
-14.80
-23.60
-33.21
-42.63
-50.35
-54.66
-54.30
-48.86
-38.95
-26.09
-12.16
1.12
12.51
21.40
27.68
31.62
33.61
34.22
34.03
33.60
33.30
33.22
33.27
33.23
33.01
32.69
32.46
32.50
32.77
33.01
32.77
31.56
29.12
25.45
20.79
15.57
10.20
4.92
-0.20
-5.30
-10.65
-16.58
-23.31
-30.77
-38.42
-45.23
-49.85
-50.93
-47.65
-39.99
-28.90
-16.04
-3.29
7.87
16.60
22.79
26.83
29.19
30.15
29.82
28.24
25.63
22.48
19.49
17.25
16.10
15.98
16.45
16.96
17.05
16.42
15.03
12.88
10.04
6.59
2.66
-1.55
-5.86
-10.19
-14.70
-19.77
-25.79
-32.94
-40.79
-48.33
-54.05
-56.46
-54.57
-48.26
-38.36
-26.33
-13.89
-2.44
7.09
14.31
19.26
22.18
23.43
23.43
22.59
21.33
20.03
18.89
17.96
17.22
16.58
16.09
15.78
15.68
15.71
15.58
14.93
13.43
10.98
7.63
3.67
-0.65
-5.18
-9.93
-15.04
-20.73
-27.22
-34.57
-42.62
-50.73
-57.82
-62.47
-63.31
-59.50
-51.14
-39.29
-25.64
-12.04
0.07
9.86
17.11
22.05
25.13
26.89
27.87
28.53
29.17
29.87
30.52
30.88
30.82
30.31
29.55
28.79
28.31
28.18
28.31
28.38
28.02
26.84
24.59
21.19
16.80
11.77
6.52
1.42
-3.35
-7.85
-12.39
-17.38
-23.21
-30.05
-37.62
-45.12
-51.32
-54.81
-54.45
-49.71
-40.97
-29.39
-16.56
-4.09
6.85
15.71
22.44
27.30
30.58
32.46
33.07
32.54
31.12
29.23
27.32
25.80
24.90
24.60
24.75
25.18
25.82
26.68
27.75
28.77
29.28
28.70
26.61
23.00
18.32
13.25
8.47
4.33
0.72
-2.76
-6.64
-11.37
-17.12
-23.73
-30.63
-36.85
-41.14
-42.30
-39.56
-32.92
-23.20
-11.90
-0.66
9.11
16.56
21.44
23.93
24.47
23.52
21.48
18.70
15.50
12.19
9.15
6.70
5.13
4.55
4.92
5.92
7.11
7.94
7.95
6.86
4.67
1.60
-1.97
-5.70
-9.30
-12.70
-16.02
-19.43
-23.21
-27.60
-32.79
-38.77
-45.12
-51.00
-55.07
-55.97
-52.66
-44.97
-33.68
-20.42
-7.12
4.46
13.19
18.68
21.25
21.64
20.72
19.33
18.03
17.05
16.30
15.56
14.65
13.59
12.59
11.88
11.61
11.71
11.95
11.96
11.49
10.37
8.59
6.22
3.35
0.08
-3.45
-7.12
-10.87
-14.78
-19.07
-24.07
-29.94
-36.51
-43.06
-48.43
-51.23
-50.33
-45.22
-36.29
-24.69
-12.09
-0.18
9.74
16.98
21.56
23.95
24.88
25.05
24.92
24.75
24.58
24.32
23.85
23.09
22.01
20.73
19.45
18.46
17.96
17.99
18.34
18.59
18.26
16.91
14.37
10.72
6.31
1.58
-3.07
-7.45
-11.61
-15.86
-20.61
-26.20
-32.69
-39.68
-46.28
-51.24
-53.27
-51.38
-45.29
-35.57
-23.55
-11.02
0.36
9.43
15.77
19.66
21.72
22.62
22.82
22.53
21.84
20.83
19.66
18.54
17.61
16.87
16.17
15.38
14.34
12.96
11.17
8.92
6.20
3.09
-0.22
-3.46
-6.33
-8.62
-10.31
-11.64
-13.17
-15.61
-19.59
-25.23
-31.92
-38.26
-42.47
-43.02
-39.22
-31.64
-21.83
-11.78
-3.17
3.15
7.32
10.12
12.51
15.19
18.32
21.63
24.61
26.77
27.81
27.58
26.18
23.90
21.28
18.97
17.58
17.36
17.97
18.55
18.05
15.69
11.39
5.81
-0.03
-5.28
-9.74
-13.82
-18.27
-23.64
-29.91
-36.34
-41.77
-44.94
-44.88
-41.27
-34.47
-25.45
-15.49
-5.82
2.66
9.50
14.66
18.28
20.53
21.57
21.51
20.55
19.00
17.22
15.58
14.21
13.11
12.15
11.25
10.39
9.63
9.04
8.59
8.12
7.35
6.01
3.89
0.94
-2.67
-6.74
-11.04
-15.49
-20.13
-25.18
-30.80
-36.94
-43.16
-48.58
-51.98
-52.21
-48.60
-41.21
-30.88
-18.96
-6.97
3.81
12.55
18.89
22.89
24.91
25.49
25.22
24.65
24.11
23.77
23.58
23.41
23.15
22.76
22.23
21.60
20.82
19.84
18.65
17.27
15.65
13.65
11.06
7.65
3.34
-1.69
-7.01
-12.15
-16.77
-20.92
-24.94
-29.41
-34.78
-41.05
-47.72
-53.68
-57.62
-58.33
-55.11
-48.02
-37.89
-26.07
-14.07
-3.16
5.84
12.61
17.23
19.95
21.18
21.36
20.91
20.21
19.52
18.91
18.38
17.84
17.25
16.64
16.11
15.72
15.50
15.39
15.25
14.97
14.37
13.29
11.58
9.17
6.10
2.57
-1.19
-5.03
-8.99
-13.32
-18.31
-24.08
-30.25
-35.95
-39.93
-41.03
-38.58
-32.66
-24.12
-14.26
-4.36
4.56
11.95
17.60
21.49
23.70
24.34
23.56
21.68
19.13
16.42
13.98
12.17
11.13
10.76
10.81
10.97
10.93
10.50
9.58
8.15
6.21
3.81
1.04
-1.97
-5.05
-8.08
-11.03
-14.05
-17.37
-21.25
-25.87
-31.15
-36.76
-42.00
-45.95
-47.57
-46.05
-41.04
-32.91
-22.66
-11.70
-1.39
7.29
13.92
18.61
21.78
23.84
25.07
25.57
25.34
24.45
23.12
21.64
20.29
19.21
18.31
17.40
16.30
15.04
13.79
12.84
12.27
11.87
11.15
9.55
6.75
2.87
-1.61
-6.05
-10.00
-13.30
-16.17
-19.00
-22.22
-26.13
-30.89
-36.42
-42.29
-47.74
-51.69
-53.00
-50.85
-45.10
-36.38
-25.96
-15.28
-5.53
2.68
9.28
14.56
18.79
22.12
24.53
26.01
26.66
26.77
26.69
26.68
26.82
26.92
26.70
25.98
24.77
23.21
21.61
20.21
19.11
18.24
17.38
16.20
14.36
11.57
7.71
2.93
-2.37
-7.68
-12.49
-16.56
-19.96
-23.02
-26.21
-29.94
-34.46
-39.80
-45.66
-51.36
-55.85
-57.90
-56.44
-51.01
-41.99
-30.60
-18.52
-7.32
1.91
8.81
13.59
16.75
18.76
19.90
20.32
20.08
19.32
18.29
17.35
16.79
16.71
17.03
17.50
17.89
17.98
17.77
17.28
16.55
15.43
13.74
11.28
8.05
4.21
0.13
-3.81
-7.35
-10.47
-13.38
-16.46
-20.06
-24.40
-29.32
-34.26
-38.33
-40.40
-39.57
-35.36
-27.99
-18.36
-7.78
2.41
11.08
17.64
21.94
24.16
24.68
23.90
22.18
19.92
17.50
15.29
13.60
12.55
12.13
12.20
12.55
13.00
13.38
13.52
13.27
12.44
10.93
8.67
5.67
2.04
-2.10
-6.52
-11.00
-15.36
-19.60
-23.94
-28.75
-34.34
-40.75
-47.46
-53.45
-57.47
-58.36
-55.52
-49.02
-39.61
-28.47
-16.92
-6.07
3.26
10.71
16.24
20.10
22.63
24.19
25.06
25.46
25.53
25.40
25.21
25.01
24.86
24.72
24.53
24.22
23.76
23.17
22.42
21.45
20.07
17.98
14.85
10.56
5.26
-0.60
-6.45
-11.84
-16.62
-21.03
-25.51
-30.52
-36.37
-42.99
-49.91
-56.26
-60.90
-62.65
-60.60
-54.46
-44.73
-32.65
-19.77
-7.58
2.92
11.35
17.78
22.51
25.82
27.93
29.02
29.37
29.35
29.36
29.69
30.39
31.36
32.30
32.99
33.27
33.11
32.57
31.68
30.49
28.97
27.06
24.66
21.61
17.79
13.17
7.93
2.39
-3.01
-7.95
-12.31
-16.26
-20.17
-24.45
-29.47
-35.36
-41.91
-48.48
-54.04
-57.34
-57.23
-53.07
-44.99
-33.98
-21.54
-9.37
1.26
9.66
15.87
20.32
23.59
26.08
27.97
29.22
29.74
29.58
28.95
28.11
27.37
26.91
26.73
26.76
26.89
27.03
27.16
27.18
26.91
26.02
24.17
21.13
16.91
11.82
6.40
1.13
-3.73
-8.36
-13.26
-19.03
-25.85
-33.34
-40.40
-45.53
-47.29
-44.81
-37.96
-27.41
-14.33
-0.10
13.96
26.64
36.84
43.76
47.00
46.74
43.77
39.28
34.51
30.43
27.54
25.87
25.19
25.15
25.36
25.47
25.18
24.25
22.57
20.18
17.21
13.80
10.02
5.96
1.65
-2.82
-7.41
-12.19
-17.39
-23.43
-30.67
-39.22
-48.81
-58.55
-67.15
-73.13
-75.20
-72.55
-65.16
-53.76
-39.63
-24.19
-8.71
5.79
18.59
29.16
37.09
42.26
44.87
45.51
44.97
44.00
43.09
42.37
41.75
41.11
40.49
40.06
40.04
40.45
41.00
41.12
40.13
37.45
32.80
26.30
18.49
10.18
2.16
-4.99
-11.10
-16.49
-21.92
-28.21
-36.03
-45.46
-55.80
-65.60
-72.90
-75.74
-72.61
-62.99
-47.67
-28.80
-9.45
7.20
18.89
24.98
26.46
25.37
23.79
23.06
23.44
24.43
25.42
26.07
26.50
26.95
27.47
27.86
27.76
27.02
25.83
24.65
23.90
23.72
23.83
23.56
22.16
19.12
14.41
8.50
2.20
-3.66
-8.54
-12.45
-15.84
-19.55
-24.37
-30.71
-38.33
-46.26
-52.97
-56.73
-56.26
-51.13
-41.89
-29.98
-17.23
-5.32
4.61
12.14
17.39
20.85
23.02
24.33
25.10
25.50
25.62
25.51
25.21
24.78
24.33
24.00
23.87
23.89
23.88
23.47
22.36
20.32
17.40
13.84
10.01
6.24
2.66
-0.80
-4.39
-8.44
-13.29
-19.18
-26.03
-33.38
-40.27
-45.41
-47.48
-45.55
-39.47
-29.98
-18.51
-6.74
3.87
12.46
18.79
23.09
25.74
27.10
27.42
26.85
25.58
23.87
22.03
20.39
19.15
18.38
17.94
17.62
17.11
16.23
14.88
13.05
10.85
8.36
5.59
2.57
-0.72
-4.28
-8.12
-12.36
-17.22
-23.03
-30.01
-38.05
-46.45
-53.95
-58.98
-60.13
-56.66
-48.73
-37.45
-24.45
-11.40
0.39
10.20
17.85
23.49
27.43
29.94
31.35
31.95
32.13
32.15
32.17
32.11
31.82
31.12
29.96
28.43
26.72
25.00
23.30
21.52
19.51
17.15
14.44
11.41
8.14
4.66
0.99
-2.85
-6.81
-10.88
-15.13
-19.80
-25.22
-31.66
-39.08
-46.91
-53.99
-58.86
-60.15
-57.08
-49.77
-39.20
-26.99
-14.82
-4.02
4.76
11.53
16.69
20.77
24.16
27.02
29.29
30.92
31.92
32.38
32.52
32.52
32.56
32.73
33.06
33.48
33.79
33.71
32.97
31.49
29.34
26.77
24.06
21.36
18.63
15.69
12.38
8.65
4.61
0.45
-3.69
-7.76
-11.82
-15.92
-20.15
-24.62
-29.50
-34.96
-41.00
-47.21
-52.69
-56.20
-56.53
-52.96
-45.59
-35.33
-23.54
-11.63
-0.71
8.58
16.00
21.53
25.23
27.22
27.71
27.07
25.70
24.03
22.37
20.87
19.61
18.60
17.85
17.41
17.33
17.59
18.09
18.64
18.97
18.76
17.77
15.84
12.96
9.31
5.21
1.12
-2.59
-5.74
-8.49
-11.34
-14.95
-19.87
-26.21
-33.39
-40.25
-45.26
-47.04
-44.78
-38.57
-29.28
-18.31
-7.18
2.82
10.91
16.86
20.86
23.29
24.63
25.24
25.34
25.01
24.26
23.20
21.99
20.82
19.89
19.24
18.79
18.37
17.82
17.03
15.95
14.57
12.92
11.03
8.90
6.57
4.04
1.27
-1.73
-4.93
-8.19
-11.41
-14.45
-17.33
-20.20
-23.34
-27.05
-31.60
-37.06
-43.20
-49.38
-54.56
-57.50
-57.08
-52.69
-44.54
-33.64
-21.52
-9.75
0.50
8.63
14.62
18.80
21.63
23.53
24.87
25.86
26.66
27.32
27.86
28.24
28.47
28.60
28.68
28.77
28.81
28.70
28.31
27.55
26.38
24.86
23.03
20.92
18.52
15.82
12.78
9.42
5.88
2.32
-1.02
-4.06
-6.89
-9.75
-12.90
-16.54
-20.72
-25.48
-30.80
-36.67
-42.86
-48.85
-53.69
-56.25
-55.55
-51.11
-43.28
-33.08
-21.97
-11.37
-2.28
4.81
9.92
13.41
15.78
17.47
18.77
19.77
20.42
20.61
20.42
20.02
19.77
20.00
20.85
22.16
23.60
24.74
25.38
25.49
25.20
24.57
23.49
21.66
18.82
14.92
10.26
5.40
0.94
-2.72
-5.57
-7.87
-10.07
-12.65
-15.93
-20.09
-25.06
-30.52
-35.88
-40.23
-42.53
-41.88
-37.79
-30.52
-20.97
-10.52
-0.60
7.69
13.78
17.66
19.65
20.23
19.75
18.55
16.89
15.04
13.30
11.90
10.94
10.35
9.97
9.68
9.38
9.13
8.98
8.83
8.46
7.56
5.91
3.49
0.47
-2.85
-6.25
-9.68
-13.16
-16.80
-20.68
-24.87
-29.45
-34.46
-39.78
-44.88
-48.80
-50.37
-48.64
-43.29
-34.86
-24.57
-13.93
-4.26
3.73
9.85
14.31
17.41
19.40
20.38
20.48
19.89
18.89
17.87
17.18
17.04
17.44
18.19
19.00
19.61
19.91
19.94
19.84
19.66
19.26
18.33
16.48
13.49
9.41
4.56
-0.56
-5.48
-9.91
-13.81
-17.42
-21.14
-25.38
-30.42
-36.27
-42.53
-48.41
-52.91
-54.94
-53.71
-48.91
-40.83
-30.32
-18.58
-6.94
3.42
11.67
17.39
20.60
21.73
21.43
20.45
19.40
18.68
18.42
18.50
18.69
18.74
18.50
17.96
17.16
16.22
15.25
14.35
13.55
12.80
11.94
10.72
8.92
6.36
3.11
-0.62
-4.48
-8.08
-11.19
-13.83
-16.36
-19.28
-23.08
-27.91
-33.33
-38.32
-41.52
-41.71
-38.27
-31.45
-22.30
-12.26
-2.75
5.21
11.15
15.14
17.51
18.71
19.23
19.41
19.47
19.47
19.32
18.92
18.21
17.23
16.16
15.19
14.44
13.91
13.45
12.89
12.05
10.85
9.29
7.37
5.10
2.42
-0.69
-4.23
-8.15
-12.34
-16.72
-21.27
-25.98
-30.75
-35.22
-38.71
-40.31
-39.19
-34.92
-27.75
-18.60
-8.79
0.34
7.82
13.23
16.61
18.33
18.84
18.46
17.41
15.84
13.91
11.87
9.96
8.49
7.61
7.39
7.70
8.30
8.90
9.13
8.66
7.23
4.79
1.55
-2.10
-5.67
-8.82
-11.51
-14.02
-16.84
-20.48
-25.31
-31.34
-38.17
-44.93
-50.35
-53.06
-52.01
-46.80
-37.99
-26.93
-15.33
-4.75
3.88
10.33
14.91
18.14
20.51
22.30
23.75
24.96
26.03
26.95
27.60
27.80
27.32
26.12
24.30
22.18
20.13
18.44
17.24
16.40
15.59
14.35
12.30
9.26
5.35
0.98
-3.38
-7.39
-10.93
-14.27
-17.81
-21.98
-27.01
-32.84
-38.98
-44.67
-48.87
-50.61
-49.17
-44.37
-36.68
-27.06
-16.77
-6.87
1.90
9.28
15.38
20.40
24.53
27.84
30.32
32.00
32.99
33.53
33.92
34.36
34.87
35.26
35.23
34.48
32.92
30.64
27.97
25.27
22.84
20.72
18.81
16.84
14.53
11.74
8.52
5.05
1.61
-1.55
-4.35
-6.94
-9.68
-13.08
-17.51
-23.04
-29.31
-35.47
-40.40
-42.97
-42.37
-38.40
-31.51
-22.71
-13.22
-4.20
3.58
9.80
14.50
17.93
20.36
21.96
22.80
22.91
22.39
21.49
20.57
19.98
19.93
20.39
21.10
21.72
22.01
21.94
21.68
21.40
21.14
20.62
19.46
17.30
14.12
10.28
6.36
2.87
-0.06
-2.63
-5.30
-8.46
-12.36
-16.96
-22.10
-27.53
-32.86
-37.49
-40.64
-41.48
-39.41
-34.42
-27.12
-18.60
-10.12
-2.65
3.37
8.02
11.66
14.72
17.39
19.64
21.32
22.34
22.74
22.74
22.65
22.63
22.73
22.82
22.83
22.74
22.62
22.60
22.69
22.77
22.56
21.82
20.35
18.17
15.52
12.71
10.14
8.06
6.53
5.33
4.07
2.31
-0.19
-3.39
-7.03
-10.75
-14.26
-17.52
-20.62
-23.77
-27.15
-30.96
-35.36
-40.40
-45.89
-51.21
-55.32
-56.98
-55.19
-49.66
-40.96
-30.39
-19.56
-9.79
-1.80
4.34
9.08
12.97
16.47
19.75
22.73
25.25
27.18
28.53
29.42
29.95
30.15
29.96
29.38
28.50
27.57
26.93
26.79
27.06
27.36
27.12
25.90
23.56
20.34
16.75
13.33
10.37
7.90
5.59
3.13
0.23
-3.08
-6.63
-10.09
-13.23
-15.95
-18.36
-20.75
-23.49
-26.93
-31.24
-36.26
-41.41
-45.84
-48.49
-48.49
-45.38
-39.32
-31.02
-21.56
-12.06
-3.45
3.69
9.18
13.14
15.91
17.91
19.49
20.87
22.11
23.09
23.68
23.87
23.73
23.44
23.16
22.95
22.78
22.57
22.26
21.83
21.29
20.57
19.60
18.27
16.58
14.54
12.24
9.74
7.06
4.29
1.51
-1.21
-3.80
-6.33
-8.93
-11.83
-15.20
-19.13
-23.58
-28.31
-32.88
-36.64
-38.78
-38.56
-35.54
-29.84
-22.17
-13.60
-5.22
2.14
8.18
12.94
16.61
19.32
21.06
21.77
21.53
20.57
19.27
17.98
16.88
16.02
15.40
15.01
14.89
15.08
15.49
15.92
16.07
15.69
14.63
12.92
10.62
7.80
4.54
0.88
-2.98
-6.71
-10.00
-12.59
-14.54
-16.18
-18.09
-20.78
-24.58
-29.43
-34.92
-40.32
-44.78
-47.44
-47.64
-45.00
-39.61
-32.01
-23.07
-13.85
-5.31
1.92
7.54
11.64
14.53
16.56
17.99
18.98
19.59
19.84
19.73
19.36
18.82
18.26
17.74
17.36
17.13
17.06
17.09
17.14
17.15
17.01
16.62
15.89
14.72
13.06
10.88
8.22
5.19
1.88
-1.63
-5.21
-8.79
-12.20
-15.40
-18.46
-21.63
-25.25
-29.62
-34.83
-40.49
-45.85
-49.91
-51.64
-50.37
-45.91
-38.67
-29.58
-19.75
-10.27
-2.01
4.58
9.48
12.99
15.51
17.39
18.82
19.83
20.38
20.48
20.28
20.10
20.22
20.86
21.99
23.40
24.74
25.74
26.20
26.05
25.31
23.97
22.05
19.60
16.73
13.58
10.28
6.92
3.49
-0.09
-3.85
-7.71
-11.56
-15.21
-18.60
-21.82
-25.08
-28.68
-32.79
-37.40
-42.16
-46.43
-49.34
-49.98
-47.72
-42.37
-34.38
-24.74
-14.61
-5.14
2.92
9.25
13.89
17.06
19.04
20.08
20.39
20.24
19.81
19.38
19.10
19.08
19.31
19.70
20.08
20.30
20.29
20.07
19.81
19.66
19.62
19.46
18.78
17.17
14.43
10.74
6.61
2.69
-0.52
-2.83
-4.42
-5.73
-7.30
-9.53
-12.69
-16.79
-21.62
-26.71
-31.35
-34.66
-35.78
-34.15
-29.70
-22.92
-14.77
-6.36
1.36
7.78
12.68
16.05
17.91
18.29
17.28
15.17
12.42
9.65
7.44
6.09
5.57
5.61
5.89
6.23
6.66
7.34
8.27
9.22
9.70
9.18
7.36
4.30
0.44
-3.62
-7.39
-10.70
-13.75
-16.93
-20.68
-25.24
-30.57
-36.31
-41.76
-45.92
-47.71
-46.22
-41.08
-32.63
-22.00
-10.73
-0.35
8.06
14.06
17.77
19.57
19.84
18.90
17.04
14.57
11.95
9.57
7.67
6.29
5.28
4.49
3.86
3.42
3.19
3.01
2.58
1.57
-0.22
-2.71
-5.60
-8.55
-11.34
-14.01
-16.82
-20.19
-24.48
-29.89
-36.31
-43.20
-49.66
-54.54
-56.71
-55.43
-50.62
-42.88
-33.41
-23.52
-14.35
-6.57
-0.38
4.34
7.88
10.56
12.68
14.46
16.03
17.47
18.69
19.60
20.15
20.36
20.39
20.46
20.68
21.08
21.40
21.28
20.31
18.21
14.92
10.64
5.73
0.65
-4.23
-8.72
-12.82
-16.76
-20.94
-25.78
-31.65
-38.51
-45.92
-52.88
-58.08
-60.24
-58.49
-52.70
-43.51
-32.21
-20.31
-9.18
0.29
7.83
13.62
18.09
21.69
24.69
27.18
29.21
30.81
32.06
33.08
33.91
34.51
34.74
34.50
33.81
32.80
31.73
30.75
29.95
29.14
28.01
26.22
23.48
19.76
15.23
10.28
5.30
0.66
-3.49
-7.22
-10.76
-14.47
-18.74
-23.95
-30.28
-37.62
-45.44
-52.73
-58.24
-60.70
-59.30
-53.90
-45.12
-34.17
-22.54
-11.62
-2.38
4.68
9.56
12.63
14.48
15.78
17.12
18.89
21.18
23.78
26.23
28.07
28.92
28.75
27.88
26.85
26.24
26.34
27.06
27.86
28.02
26.92
24.29
20.37
15.70
11.00
6.78
3.14
-0.33
-4.27
-9.45
-16.32
-24.82
-34.24
-43.20
-49.86
-52.10
-48.24
-37.72
-21.77
-3.26
14.11
27.12
34.34
36.44
35.61
34.28
33.92
34.55
35.29
35.18
33.99
32.36
31.22
31.18
32.13
33.40
34.22
34.17
33.30
31.91
30.49
29.23
28.00
26.39
23.84
19.98
14.78
8.69
2.45
-3.19
-7.87
-11.70
-15.21
-19.06
-23.71
-29.34
-35.88
-43.13
-50.79
-58.39
-65.13
-69.87
-71.42
-68.86
-62.04
-51.65
-39.08
-25.92
-13.53
-2.72
6.29
13.69
19.82
24.99
29.34
32.91
35.66
37.61
38.82
39.52
40.00
40.56
41.36
42.40
43.45
44.23
44.51
44.24
43.53
42.48
41.08
39.09
36.13
31.97
26.66
20.61
14.52
9.01
4.39
0.53
-3.06
-6.94
-11.53
-16.97
-23.25
-30.25
-37.86
-45.81
-53.49
-59.86
-63.67
-63.74
-59.50
-51.23
-40.07
-27.59
-15.30
-4.25
5.21
13.25
20.21
26.35
31.64
35.92
39.05
41.13
42.49
43.52
44.43
45.18
45.46
45.01
43.81
42.09
40.29
38.73
37.45
36.20
34.54
32.07
28.54
24.03
18.82
13.33
8.00
3.15
-1.15
-5.05
-8.95
-13.31
-18.57
-24.92
-32.15
-39.63
-46.28
-50.85
-52.16
-49.50
-42.90
-33.16
-21.69
-10.02
0.53
9.20
15.78
20.42
23.48
25.31
26.20
26.45
26.34
26.13
26.03
26.15
26.42
26.74
26.96
26.98
26.79
26.41
25.90
25.27
24.45
23.26
21.47
18.87
15.35
11.04
6.25
1.38
-3.21
-7.31
-11.02
-14.67
-18.82
-24.04
-30.67
-38.54
-46.80
-53.97
-58.37
-58.64
-54.26
-45.73
-34.42
-22.03
-10.09
0.42
9.16
16.22
21.86
26.36
29.90
32.58
34.53
35.92
36.97
37.90
38.85
39.76
40.46
40.67
40.16
38.89
37.06
34.98
32.95
31.11
29.36
27.48
25.19
22.27
18.67
14.45
9.75
4.79
-0.20
-4.95
-9.26
-13.07
-16.53
-19.98
-23.92
-28.82
-34.92
-42.09
-49.75
-56.87
-62.18
-64.44
-62.81
-57.12
-47.98
-36.60
-24.50
-13.08
-3.29
4.59
10.76
15.73
19.98
23.81
27.29
30.27
32.60
34.16
35.00
35.30
35.30
35.22
35.16
35.12
34.98
34.58
33.80
32.60
31.00
29.04
26.73
23.94
20.49
16.30
11.41
6.15
0.96
-3.74
-7.72
-11.09
-14.20
-17.49
-21.28
-25.73
-30.81
-36.33
-42.01
-47.34
-51.56
-53.76
-53.03
-48.85
-41.33
-31.25
-19.85
-8.51
1.72
10.21
16.78
21.50
24.58
26.21
26.70
26.40
25.72
25.00
24.46
24.19
24.13
24.13
24.07
23.82
23.24
22.30
21.04
19.61
18.16
16.73
15.16
13.10
10.26
6.57
2.29
-2.05
-5.96
-9.20
-11.91
-14.56
-17.65
-21.54
-26.33
-31.74
-37.18
-41.87
-44.94
-45.56
-43.15
-37.62
-29.44
-19.56
-9.26
0.24
7.95
13.43
16.69
18.12
18.33
17.88
17.22
16.59
16.06
15.61
15.19
14.81
14.46
14.17
13.90
13.63
13.33
13.00
12.65
12.30
11.85
11.10
9.79
7.72
4.81
1.18
-2.85
-6.90
-10.70
-14.15
-17.43
-20.91
-24.98
-29.97
-35.89
-42.35
-48.51
-53.26
-55.41
-54.10
-49.10
-40.88
-30.49
-19.24
-8.39
1.22
9.10
15.13
19.38
22.07
23.46
23.87
23.68
23.22
22.79
22.55
22.57
22.80
23.11
23.29
23.19
22.72
21.93
20.98
20.05
19.22
18.39
17.28
15.62
13.15
9.84
5.87
1.53
-2.81
-6.86
-10.44
-13.60
-16.53
-19.63
-23.28
-27.82
-33.25
-39.22
-44.93
-49.27
-51.14
-49.70
-44.71
-36.65
-26.60
-15.94
-6.02
2.24
8.46
12.73
15.47
17.17
18.23
18.95
19.50
19.91
20.21
20.34
20.23
19.85
19.21
18.41
17.60
16.93
16.50
16.31
16.29
16.28
16.06
15.42
14.16
12.17
9.44
6.10
2.41
-1.31
-4.80
-7.93
-10.74
-13.49
-16.49
-20.04
-24.34
-29.33
-34.73
-39.99
-44.34
-46.90
-46.90
-43.88
-37.92
-29.64
-20.06
-10.33
-1.47
5.88
11.52
15.50
18.09
19.55
20.09
19.92
19.32
18.56
17.86
17.36
17.06
16.86
16.65
16.43
16.29
16.40
16.84
17.44
17.83
17.50
16.00
13.22
9.35
4.86
0.31
-3.85
-7.41
-10.47
-13.33
-16.39
-20.05
-24.53
-29.71
-35.13
-39.91
-43.03
-43.50
-40.76
-34.86
-26.45
-16.66
-6.77
2.11
9.21
14.23
17.28
18.66
18.77
17.96
16.48
14.49
12.18
9.80
7.70
6.26
5.75
6.22
7.44
8.93
10.15
10.67
10.27
9.05
7.19
4.93
2.37
-0.45
-3.49
-6.69
-9.92
-13.06
-16.18
-19.52
-23.41
-27.95
-32.70
-36.71
-38.67
-37.50
-32.73
-24.84
-15.08
-5.03
3.90
10.85
15.63
18.54
20.00
20.39
19.94
18.77
17.12
15.31
13.72
12.57
11.86
11.39
10.93
10.41
9.95
9.82
10.13
10.77
11.35
11.44
10.65
8.85
6.12
2.69
-1.13
-5.07
-8.83
-12.17
-14.97
-17.38
-19.81
-22.83
-26.93
-32.19
-38.15
-43.80
-47.81
-48.98
-46.67
-40.97
-32.80
-23.44
-14.24
-6.15
0.38
5.36
8.95
11.40
12.91
13.68
14.02
14.32
14.91
15.96
17.37
18.85
20.07
20.86
21.22
21.33
21.34
21.31
21.17
20.76
19.99
18.84
17.32
15.51
13.39
10.97
8.28
5.46
2.67
-0.03
-2.75
-5.76
-9.39
-13.86
-19.20
-25.31
-31.95
-38.84
-45.58
-51.48
-55.68
-57.20
-55.36
-50.01
-41.72
-31.63
-21.13
-11.45
-3.37
2.89
7.55
11.06
13.87
16.31
18.47
20.30
21.63
22.34
22.41
22.01
21.40
20.89
20.64
20.66
20.77
20.69
20.18
19.16
17.76
16.16
14.53
12.91
11.19
9.21
6.88
4.25
1.41
-1.52
-4.52
-7.57
-10.64
-13.56
-16.15
-18.26
-20.01
-21.85
-24.41
-28.26
-33.53
-39.67
-45.51
-49.56
-50.54
-47.79
-41.55
-32.75
-22.79
-13.00
-4.33
2.69
7.98
11.63
13.84
14.80
14.77
14.07
13.08
12.20
11.71
11.78
12.38
13.32
14.38
15.34
16.11
16.70
17.15
17.52
17.74
17.65
17.02
15.70
13.65
10.97
7.87
4.61
1.39
-1.65
-4.46
-7.16
-9.97
-13.21
-17.17
-21.95
-27.19
-32.11
-35.62
-36.67
-34.62
-29.50
-22.02
-13.35
-4.73
2.89
8.98
13.39
16.28
17.90
18.49
18.31
17.58
16.54
15.38
14.28
13.32
12.54
11.99
11.72
11.74
11.98
12.34
12.62
12.63
12.25
11.37
9.90
7.73
4.85
1.35
-2.48
-6.26
-9.68
-12.65
-15.39
-18.35
-22.06
-26.85
-32.63
-38.85
-44.53
-48.49
-49.63
-47.29
-41.48
-32.95
-22.94
-12.89
-3.95
3.25
8.65
12.58
15.44
17.56
19.13
20.22
20.86
21.12
21.10
20.91
20.65
20.44
20.40
20.68
21.32
22.29
23.43
24.55
25.41
25.83
25.64
24.74
23.04
20.54
17.26
13.36
9.03
4.53
0.10
-4.10
-7.98
-11.59
-15.13
-18.84
-23.02
-27.90
-33.56
-39.70
-45.65
-50.44
-52.95
-52.30
-48.14
-40.84
-31.37
-21.02
-11.06
-2.38
4.60
9.87
13.70
16.44
18.49
20.21
21.88
23.66
25.56
27.40
28.92
29.89
30.21
29.97
29.43
28.86
28.41
28.03
27.50
26.55
24.99
22.78
20.07
17.07
13.94
10.75
7.49
4.10
0.59
-2.93
-6.30
-9.34
-12.02
-14.44
-16.92
-19.84
-23.59
-28.35
-34.05
-40.22
-46.01
-50.38
-52.23
-50.82
-45.91
-37.92
-27.82
-16.88
-6.34
2.86
10.17
15.51
19.04
21.16
22.27
22.75
22.92
23.01
23.20
23.58
24.15
24.80
25.33
25.51
25.25
24.58
23.73
22.98
22.51
22.32
22.16
21.65
20.42
18.24
15.08
11.19
6.94
2.76
-1.07
-4.49
-7.71
-11.06
-14.91
-19.45
-24.63
-30.05
-35.06
-38.77
-40.30
-39.01
-34.69
-27.71
-19.01
-9.79
-1.18
6.02
11.45
15.16
17.38
18.41
18.50
17.91
16.85
15.55
14.18
12.99
12.12
11.71
11.78
12.35
13.27
14.33
15.29
15.87
15.82
14.94
13.10
10.32
6.75
2.66
-1.64
-5.90
-9.94
-13.81
-17.69
-21.92
-26.76
-32.21
-37.87
-42.85
-46.01
-46.26
-43.00
-36.36
-27.22
-16.87
-6.70
2.22
9.26
14.34
17.66
19.62
20.61
21.00
21.04
20.86
20.55
20.13
19.65
19.11
18.55
17.98
17.43
16.87
16.30
15.68
14.95
14.00
12.67
10.78
8.17
4.86
0.99
-3.14
-7.19
-10.91
-14.27
-17.47
-20.89
-24.99
-30.09
-36.16
-42.74
-48.87
-53.36
-55.08
-53.28
-47.86
-39.43
-29.10
-18.19
-7.88
1.05
8.28
13.83
17.95
20.90
22.93
24.28
25.14
25.73
26.22
26.72
27.18
27.44
27.34
26.78
25.80
24.57
23.31
22.20
21.30
20.51
19.58
18.21
16.10
13.11
9.29
4.93
0.44
-3.76
-7.44
-10.64
-13.69
-17.08
-21.31
-26.67
-33.05
-39.90
-46.25
-50.95
-52.86
-51.27
-46.05
-37.74
-27.43
-16.43
-5.95
3.22
10.71
16.60
21.14
24.61
27.17
28.87
29.75
29.92
29.59
29.02
28.46
28.05
27.78
27.60
27.40
27.11
26.69
26.14
25.51
24.80
23.94
22.77
21.03
18.46
14.91
10.50
5.58
0.61
-3.93
-7.84
-11.21
-14.40
-17.84
-21.90
-26.75
-32.24
-37.96
-43.20
-47.03
-48.47
-46.76
-41.60
-33.29
-22.76
-11.37
-0.48
8.82
15.93
20.78
23.70
25.18
25.76
25.83
25.62
25.25
24.74
24.07
23.22
22.27
21.33
20.58
20.16
20.16
20.55
21.12
21.57
21.50
20.53
18.40
15.06
10.75
5.93
1.16
-3.09
-6.65
-9.66
-12.60
-16.05
-20.46
-25.88
-31.84
-37.39
-41.29
-42.41
-40.04
-34.20
-25.66
-15.75
-5.88
2.77
9.55
14.33
17.38
19.07
19.72
19.54
18.68
17.32
15.71
14.20
13.14
12.72
12.96
13.67
14.50
15.15
15.36
15.03
14.16
12.76
10.77
8.18
4.97
1.24
-2.84
-7.08
-11.44
-16.00
-21.01
-26.65
-32.80
-38.90
-43.96
-46.78
-46.34
-42.13
-34.43
-24.21
-12.89
-1.90
7.60
15.03
20.27
23.57
25.30
25.82
25.42
24.33
22.81
21.16
19.63
18.41
17.57
17.05
16.78
16.73
16.87
17.18
17.49
17.48
16.69
14.69
11.29
6.64
1.20
-4.42
-9.70
-14.33
-18.32
-21.94
-25.63
-29.85
-34.87
-40.66
-46.70
-52.03
-55.43
-55.78
-52.39
-45.35
-35.46
-24.07
-12.67
-2.47
5.82
12.06
16.54
19.70
22.06
23.98
25.65
27.10
28.25
29.03
29.42
29.51
29.37
29.08
28.64
28.01
27.17
26.12
24.93
23.59
22.00
19.86
16.91
12.98
8.15
2.73
-2.80
-8.02
-12.61
-16.50
-19.90
-23.23
-27.09
-32.03
-38.31
-45.59
-52.91
-58.79
-61.70
-60.55
-55.07
-45.88
-34.21
-21.54
-9.18
1.92
11.26
18.68
24.32
28.51
31.61
34.02
35.98
37.61
38.94
40.00
40.88
41.72
42.67
43.71
44.71
45.35
45.32
44.41
42.62
40.08
37.00
33.52
29.65
25.28
20.33
14.75
8.59
2.07
-4.53
-10.87
-16.71
-21.94
-26.66
-31.16
-35.85
-41.10
-47.15
-53.87
-60.65
-66.45
-69.87
-69.59
-64.67
-54.97
-41.30
-25.36
-9.24
5.14
16.48
24.42
29.43
32.41
34.32
35.77
36.99
37.87
38.30
38.33
38.24
38.34
38.86
39.68
40.46
40.76
40.31
39.10
37.36
35.36
33.19
30.65
27.40
23.15
17.85
11.71
5.13
-1.44
-7.67
-13.33
-18.28
-22.55
-26.31
-29.94
-33.96
-38.81
-44.59
-50.78
-56.30
-59.79
-59.99
-56.17
-48.36
-37.32
-24.34
-10.92
1.62
12.28
20.51
26.18
29.40
30.46
29.77
27.82
25.18
22.38
19.86
17.85
16.46
15.70
15.57
16.03
16.99
18.24
19.42
20.17
20.20
19.29
17.34
14.31
10.28
5.40
0.03
-5.39
-10.37
-14.61
-18.09
-21.10
-24.19
-27.98
-32.89
-38.95
-45.53
-51.40
-55.00
-54.89
-50.32
-41.58
-29.91
-17.11
-4.94
5.34
13.28
18.97
22.85
25.36
26.77
27.25
26.90
25.87
24.42
22.86
21.52
20.74
20.68
21.35
22.54
23.90
25.06
25.69
25.58
24.69
23.04
20.63
17.47
13.54
8.84
3.53
-2.10
-7.63
-12.65
-16.92
-20.51
-23.80
-27.36
-31.72
-37.19
-43.62
-50.39
-56.49
-60.68
-61.81
-59.15
-52.61
-42.81
-31.01
-18.66
-7.09
2.81
10.69
16.72
21.23
24.63
27.14
28.83
29.66
29.64
28.87
27.66
26.41
25.49
25.11
25.27
25.80
26.47
27.10
27.54
27.71
27.43
26.46
24.56
21.58
17.60
12.86
7.74
2.63
-2.18
-6.51
-10.34
-13.72
-16.88
-20.23
-24.21
-29.21
-35.27
-41.94
-48.30
-53.10
-55.15
-53.63
-48.39
-39.86
-29.08
-17.35
-6.04
3.77
11.40
16.65
19.77
21.25
21.66
21.49
21.12
20.71
20.36
20.10
19.96
20.04
20.44
21.19
22.17
23.13
23.70
23.57
22.67
21.08
19.07
16.77
14.16
11.06
7.41
3.35
-0.79
-4.60
-7.90
-10.84
-13.89
-17.64
-22.49
-28.43
-34.95
-41.08
-45.60
-47.38
-45.69
-40.46
-32.34
-22.42
-11.98
-2.15
6.33
13.10
18.05
21.21
22.71
22.76
21.70
19.94
17.97
16.19
14.85
14.02
13.62
13.49
13.47
13.48
13.46
13.36
13.00
12.19
10.70
8.45
5.53
2.17
-1.34
-4.80
-8.18
-11.59
-15.22
-19.33
-24.08
-29.45
-35.24
-40.88
-45.54
-48.23
-48.09
-44.67
-38.07
-28.99
-18.54
-7.97
1.62
9.49
15.36
19.27
21.55
22.59
22.76
22.32
21.46
20.35
19.18
18.16
17.52
17.38
17.69
18.29
18.90
19.29
19.28
18.76
17.63
15.80
13.21
9.88
5.94
1.58
-2.92
-7.37
-11.57
-15.42
-18.96
-22.35
-25.94
-30.19
-35.40
-41.52
-47.87
-53.26
-56.22
-55.57
-50.82
-42.34
-31.31
-19.29
-7.86
1.87
9.39
14.83
18.64
21.41
23.59
25.34
26.63
27.36
27.53
27.32
27.08
27.11
27.62
28.51
29.46
30.13
30.29
29.94
29.22
28.39
27.53
26.45
24.76
22.01
17.94
12.65
6.58
0.33
-5.56
-10.86
-15.62
-20.19
-24.94
-30.21
-36.13
-42.56
-49.06
-54.79
-58.70
-59.71
-57.01
-50.50
-40.77
-29.09
-16.98
-5.82
3.55
10.81
16.14
19.92
22.51
24.17
25.02
25.26
25.12
24.92
24.90
25.12
25.47
25.73
25.78
25.64
25.52
25.60
25.97
26.49
26.84
26.57
25.29
22.69
18.67
13.43
7.38
1.13
-4.68
-9.64
-13.65
-17.07
-20.59
-24.94
-30.54
-37.19
-43.97
-49.39
-51.89
-50.23
-44.08
-34.06
-21.53
-8.15
4.60
15.67
24.55
30.98
34.96
36.58
36.19
34.33
31.65
28.73
25.90
23.32
20.97
18.87
17.15
15.97
15.46
15.62
16.26
17.11
17.76
17.78
16.71
14.28
10.39
5.33
-0.39
-6.14
-11.42
-15.99
-19.97
-23.65
-27.45
-31.79
-36.95
-42.92
-49.29
-55.11
-59.05
-59.76
-56.34
-48.71
-37.75
-24.98
-12.11
-0.59
8.73
15.65
20.45
23.67
25.83
27.31
28.32
28.86
28.93
28.63
28.19
27.91
27.98
28.45
29.11
29.69
29.92
29.79
29.33
28.59
27.41
25.48
22.45
18.15
12.67
6.45
0.07
-5.96
-11.29
-15.86
-19.80
-23.34
-26.80
-30.53
-34.86
-40.11
-46.33
-53.15
-59.71
-64.68
-66.61
-64.43
-57.86
-47.53
-34.89
-21.65
-9.31
1.24
9.80
16.66
22.18
26.65
30.15
32.65
34.21
35.04
35.44
35.72
36.12
36.71
37.52
38.48
39.44
40.17
40.37
39.80
38.34
36.03
32.98
29.35
25.20
20.50
15.22
9.46
3.49
-2.35
-7.71
-12.50
-16.91
-21.32
-26.21
-31.86
-38.33
-45.22
-51.83
-57.16
-60.15
-59.92
-56.03
-48.58
-38.27
-26.27
-13.91
-2.47
7.13
14.47
19.58
22.80
24.58
25.33
25.36
24.87
24.01
23.00
22.01
21.22
20.69
20.36
20.11
19.81
19.46
19.10
18.73
18.16
17.02
14.88
11.45
6.79
1.30
-4.36
-9.61
-14.12
-18.01
-21.75
-25.97
-31.10
-37.12
-43.43
-48.83
-51.91
-51.44
-46.86
-38.42
-27.22
-14.79
-2.70
7.91
16.42
22.70
26.94
29.43
30.45
30.26
29.15
27.42
25.42
23.51
21.99
21.00
20.51
20.39
20.47
20.55
20.51
20.24
19.63
18.56
16.82
14.19
10.49
5.69
-0.03
-6.32
-12.73
-18.88
-24.57
-29.87
-35.14
-40.75
-46.95
-53.63
-60.18
-65.56
-68.54
-67.99
-63.35
-54.81
-43.33
-30.42
-17.63
-6.24
3.10
10.27
15.58
19.56
22.65
25.24
27.50
29.48
31.11
32.28
32.91
33.01
32.79
32.55
32.59
33.06
33.90
34.86
35.46
35.19
33.57
30.25
25.22
18.77
11.49
4.11
-2.74
-8.74
-13.91
-18.64
-23.46
-28.86
-35.13
-42.30
-49.93
-57.18
-62.82
-65.56
-64.23
-58.38
-48.32
-35.19
-20.52
-5.87
7.69
19.60
29.74
37.97
43.87
46.81
46.27
42.32
35.90
28.57
21.99
17.29
14.72
13.76
13.64
13.81
14.13
14.74
15.71
16.68
17.00
15.95
13.19
8.94
3.88
-1.19
-5.60
-9.11
-11.96
-14.66
-17.84
-22.03
-27.32
-33.28
-38.99
-43.17
-44.66
-42.69
-37.26
-29.08
-19.31
-9.20
0.22
8.27
14.66
19.28
22.15
23.40
23.30
22.19
20.54
18.75
17.11
15.77
14.79
14.19
13.98
14.07
14.29
14.45
14.28
13.64
12.46
10.74
8.51
5.77
2.49
-1.32
-5.51
-9.85
-14.11
-18.33
-22.75
-27.82
-33.73
-40.17
-46.18
-50.36
-51.40
-48.62
-42.16
-32.98
-22.47
-12.00
-2.52
5.41
11.62
16.19
19.36
21.44
22.82
23.80
24.59
25.25
25.73
25.98
26.01
25.87
25.60
25.26
24.88
24.54
24.32
24.19
24.03
23.46
22.05
19.43
15.52
10.57
5.14
-0.18
-4.96
-9.10
-12.89
-16.92
-21.78
-27.79
-34.79
-42.05
-48.41
-52.63
-53.69
-51.17
-45.26
-36.73
-26.68
-16.27
-6.52
1.87
8.55
13.51
17.04
19.61
21.65
23.49
25.22
26.76
28.03
28.96
29.66
30.24
30.87
31.60
32.36
32.96
33.24
33.00
32.14
30.60
28.28
25.08
20.99
16.10
10.74
5.41
0.61
-3.32
-6.46
-9.27
-12.39
-16.47
-21.87
-28.53
-35.97
-43.35
-49.61
-53.67
-54.60
-51.93
-45.78
-36.88
-26.43
-15.78
-6.03
2.17
8.61
13.45
17.01
19.63
21.53
22.90
23.85
24.49
24.87
25.11
25.29
25.46
25.68
25.97
26.36
26.79
27.18
27.36
27.10
26.14
24.31
21.57
18.06
14.03
9.83
5.71
1.75
-2.17
-6.30
-10.95
-16.37
-22.56
-29.25
-35.74
-41.00
-43.90
-43.54
-39.53
-32.18
-22.46
-11.76
-1.44
7.49
14.53
19.67
23.13
25.20
26.04
25.78
24.62
22.86
20.96
19.31
18.16
17.56
17.35
17.35
17.42
17.47
17.40
17.01
16.03
14.16
11.27
7.48
3.10
-1.45
-5.82
-9.89
-13.71
-17.49
-21.52
-26.09
-31.38
-37.33
-43.47
-48.93
-52.52
-53.11
-50.03
-43.34
-33.88
-22.96
-11.98
-2.01
6.34
12.92
17.84
21.27
23.42
24.47
24.71
24.53
24.29
24.29
24.64
25.25
25.90
26.36
26.47
26.22
25.65
24.86
23.91
22.79
21.46
19.79
17.66
14.91
11.47
7.40
2.93
-1.58
-5.81
-9.60
-13.06
-16.60
-20.74
-25.92
-32.29
-39.53
-46.80
-52.93
-56.62
-56.84
-53.14
-45.78
-35.73
-24.37
-13.11
-3.00
5.38
11.95
16.94
20.65
23.34
25.23
26.49
27.31
27.86
28.28
28.62
28.87
28.93
28.73
28.25
27.52
26.63
25.69
24.76
23.80
22.69
21.21
19.11
16.24
12.58
8.37
3.95
-0.27
-4.06
-7.38
-10.44
-13.61
-17.28
-21.74
-27.05
-33.00
-39.04
-44.32
-47.80
-48.54
-45.93
-40.02
-31.48
-21.52
-11.50
-2.57
4.63
9.89
13.45
15.67
16.88
17.33
17.20
16.68
15.99
15.40
15.10
15.20
15.69
16.41
17.17
17.76
18.06
17.94
17.37
16.31
14.71
12.52
9.73
6.40
2.70
-1.18
-5.09
-9.05
-13.24
-17.96
-23.41
-29.47
-35.63
-41.01
-44.57
-45.43
-43.08
-37.52
-29.24
-19.16
-8.38
1.93
10.81
17.58
21.99
24.14
24.43
23.46
21.85
20.12
18.59
17.36
16.38
15.53
14.69
13.88
13.19
12.75
12.54
12.40
11.99
10.97
9.06
6.24
2.64
-1.42
-5.64
-9.78
-13.74
-17.53
-21.32
-25.34
-29.88
-35.09
-40.87
-46.66
-51.48
-54.10
-53.50
-49.21
-41.57
-31.65
-20.85
-10.54
-1.61
5.58
11.07
15.14
18.03
20.00
21.29
22.18
22.95
23.77
24.67
25.57
26.25
26.55
26.37
25.76
24.89
23.96
23.13
22.40
21.58
20.27
18.08
14.79
10.56
5.79
1.02
-3.29
-7.02
-10.36
-13.79
-17.87
-23.02
-29.35
-36.52
-43.66
-49.56
-52.93
-52.81
-48.87
-41.51
-31.79
-21.02
-10.47
-1.09
6.60
12.48
16.68
19.49
21.33
22.56
23.48
24.24
24.86
25.18
25.08
24.46
23.40
22.15
21.07
20.46
20.49
21.00
21.58
21.65
20.70
18.50
15.12
10.90
6.28
1.61
-2.91
-7.22
-11.41
-15.66
-20.19
-25.22
-30.78
-36.53
-41.65
-45.00
-45.40
-42.11
-35.21
-25.55
-14.55
-3.76
5.60
12.86
17.93
21.15
23.03
24.04
24.46
24.40
23.82
22.76
21.32
19.77
18.41
17.51
17.11
17.09
17.18
17.07
16.56
15.50
13.85
11.58
8.69
5.24
1.36
-2.76
-6.96
-11.15
-15.43
-20.03
-25.18
-30.93
-36.93
-42.34
-46.05
-46.91
-44.13
-37.63
-28.04
-16.64
-4.94
5.64
14.11
20.04
23.52
24.97
25.02
24.26
23.17
22.06
21.12
20.35
19.76
19.20
18.58
17.79
16.87
15.97
15.22
14.71
14.29
13.61
12.26
9.94
6.61
2.58
-1.63
-5.53
-8.84
-11.66
-14.43
-17.76
-22.19
-27.95
-34.75
-41.81
-48.03
-52.19
-53.33
-50.89
-44.90
-35.95
-25.05
-13.43
-2.37
7.09
14.40
19.49
22.71
24.69
25.98
26.92
27.66
28.19
28.49
28.59
28.47
28.07
27.24
25.91
24.20
22.46
21.07
20.28
19.95
19.61
18.66
16.61
13.36
9.12
4.37
-0.38
-4.72
-8.48
-11.74
-14.81
-18.21
-22.50
-28.07
-34.78
-41.90
-48.14
-51.98
-52.22
-48.35
-40.74
-30.49
-19.07
-7.94
1.87
9.86
16.02
20.65
24.10
26.63
28.34
29.25
29.40
28.93
28.05
26.94
25.68
24.27
22.65
20.93
19.34
18.16
17.57
17.51
17.64
17.45
16.53
14.68
11.96
8.65
5.11
1.60
-1.73
-5.01
-8.51
-12.67
-17.80
-23.93
-30.61
-36.86
-41.45
-43.16
-41.26
-35.69
-27.12
-16.71
-5.81
4.31
12.75
19.04
23.10
25.23
25.81
25.29
24.06
22.42
20.64
18.98
17.66
16.84
16.49
16.49
16.62
16.74
16.77
16.67
16.37
15.67
14.33
12.15
9.10
5.36
1.25
-2.92
-6.94
-10.77
-14.52
-18.39
-22.65
-27.47
-32.90
-38.62
-43.91
-47.68
-48.75
-46.24
-39.96
-30.48
-19.11
-7.40
3.25
11.95
18.42
22.82
25.53
26.94
27.30
26.83
25.77
24.44
23.20
22.34
21.91
21.81
21.77
21.51
20.90
19.98
18.95
18.00
17.23
16.57
15.77
14.48
12.35
9.14
4.86
-0.22
-5.56
-10.55
-14.81
-18.32
-21.46
-24.87
-29.12
-34.52
-40.87
-47.53
-53.55
-57.83
-59.40
-57.57
-52.15
-43.50
-32.48
-20.28
-8.17
2.78
11.86
18.79
23.61
26.65
28.34
29.16
29.49
29.60
29.59
29.44
29.11
28.59
27.89
27.09
26.23
25.32
24.36
23.32
22.20
20.97
19.58
17.93
15.90
13.41
10.46
7.16
3.67
0.17
-3.18
-6.32
-9.30
-12.28
-15.50
-19.18
-23.55
-28.68
-34.44
-40.45
-45.98
-50.11
-51.85
-50.48
-45.71
-37.86
-27.80
-16.67
-5.71
4.09
12.07
17.95
21.78
23.89
24.68
24.66
24.21
23.65
23.17
22.89
22.90
23.17
23.61
24.04
24.29
24.22
23.85
23.26
22.57
21.75
20.70
19.23
17.16
14.39
10.94
6.97
2.72
-1.49
-5.44
-9.00
-12.22
-15.36
-18.75
-22.70
-27.30
-32.33
-37.24
-41.27
-43.54
-43.24
-39.91
-33.57
-24.77
-14.55
-4.18
5.19
12.77
18.26
21.75
23.59
24.17
23.77
22.61
20.84
18.72
16.52
14.57
13.12
12.28
12.04
12.27
12.80
13.42
13.93
14.04
13.52
12.14
9.85
6.78
3.18
-0.62
-4.39
-8.02
-11.49
-14.92
-18.42
-22.17
-26.35
-31.04
-36.10
-40.98
-44.78
-46.33
-44.71
-39.52
-31.19
-20.80
-9.83
0.38
8.88
15.31
19.75
22.53
24.00
24.40
23.89
22.64
20.89
18.97
17.23
15.98
15.31
15.18
15.39
15.77
16.23
16.73
17.26
17.69
17.77
17.18
15.65
13.05
9.46
5.11
0.34
-4.53
-9.17
-13.40
-17.19
-20.67
-24.15
-27.96
-32.36
-37.44
-42.99
-48.53
-53.30
-56.33
-56.62
-53.44
-46.58
-36.56
-24.56
-12.16
-0.86
8.34
15.13
19.74
22.72
24.59
25.72
26.30
26.47
26.34
26.05
25.70
25.33
24.92
24.44
23.87
23.21
22.48
21.66
20.79
19.87
18.94
17.94
16.77
15.26
13.22
10.56
7.31
3.63
-0.28
-4.17
-7.83
-11.17
-14.20
-17.19
-20.50
-24.56
-29.68
-35.81
-42.44
-48.63
-53.18
-54.96
-53.23
-47.87
-39.40
-28.88
-17.54
-6.58
3.12
10.98
16.83
20.73
22.97
24.00
24.35
24.48
24.65
24.88
24.99
24.79
24.23
23.42
22.65
22.14
22.03
22.25
22.55
22.71
22.51
21.77
20.38
18.22
15.27
11.58
7.32
2.84
-1.50
-5.38
-8.68
-11.47
-14.02
-16.72
-19.88
-23.73
-28.34
-33.57
-39.03
-44.06
-47.78
-49.23
-47.65
-42.73
-34.78
-24.72
-13.81
-3.35
5.60
12.45
17.00
19.35
19.81
18.79
16.81
14.44
12.22
10.60
9.77
9.72
10.19
10.91
11.62
12.23
12.77
13.33
13.98
14.62
14.98
14.70
13.45
11.05
7.58
3.38
-1.05
-5.27
-9.04
-12.43
-15.78
-19.58
-24.20
-29.68
-35.62
-41.21
-45.38
-47.12
-45.71
-40.93
-33.12
-23.17
-12.30
-1.77
7.30
14.24
18.83
21.30
22.11
21.76
20.65
19.05
17.15
15.21
13.53
12.42
12.02
12.24
12.80
13.31
13.44
13.06
12.20
11.01
9.61
8.01
6.13
3.84
1.05
-2.31
-6.23
-10.61
-15.27
-20.05
-24.81
-29.52
-34.27
-39.18
-44.21
-49.08
-53.18
-55.63
-55.51
-52.21
-45.67
-36.47
-25.74
-14.78
-4.72
3.73
10.40
15.46
19.20
21.87
23.63
24.56
24.84
24.75
24.62
24.72
25.17
25.94
26.82
27.59
28.02
28.01
27.58
26.83
25.90
24.83
23.46
21.54
18.78
15.03
10.45
5.44
0.56
-3.74
-7.26
-10.14
-12.77
-15.70
-19.39
-24.16
-30.06
-36.79
-43.71
-49.78
-53.83
-54.77
-51.98
-45.52
-36.22
-25.35
-14.26
-3.99
4.92
12.42
18.68
23.88
28.06
31.12
32.99
33.68
33.44
32.61
31.60
30.71
30.10
29.78
29.67
29.63
29.51
29.27
28.89
28.39
27.72
26.75
25.22
22.89
19.63
15.55
10.95
6.28
1.90
-1.97
-5.40
-8.66
-12.08
-16.01
-20.75
-26.39
-32.77
-39.35
-45.25
-49.39
-50.80
-48.87
-43.56
-35.38
-25.21
-14.16
-3.28
6.54
14.62
20.59
24.41
26.35
26.86
26.47
25.61
24.51
23.24
21.83
20.32
18.90
17.77
17.19
17.32
18.13
19.40
20.74
21.66
21.77
20.82
18.88
16.18
13.03
9.74
6.52
3.45
0.55
-2.27
-5.24
-8.67
-12.96
-18.33
-24.61
-31.08
-36.56
-39.74
-39.61
-35.80
-28.71
-19.40
-9.23
0.51
8.87
15.35
19.82
22.46
23.54
23.38
22.29
20.63
18.73
16.98
15.66
14.93
14.74
14.90
15.15
15.29
15.26
15.11
14.92
14.67
14.13
12.96
10.81
7.52
3.22
-1.61
-6.33
-10.45
-13.76
-16.49
-19.14
-22.29
-26.32
-31.33
-37.11
-43.16
-48.78
-53.02
-54.91
-53.57
-48.55
-40.05
-28.99
-16.78
-4.95
5.29
13.29
18.98
22.68
24.90
26.07
26.55
26.58
26.34
26.01
25.71
25.48
25.25
24.87
24.18
23.12
21.71
20.13
18.55
17.12
15.88
14.73
13.48
11.94
9.94
7.41
4.36
0.93
-2.70
-6.30
-9.73
-12.97
-16.23
-19.89
-24.34
-29.79
-36.03
-42.38
-47.74
-50.87
-50.72
-46.80
-39.34
-29.27
-18.01
-6.97
2.70
10.44
16.23
20.41
23.40
25.51
26.86
27.45
27.37
26.84
26.23
25.84
25.85
26.19
26.60
26.82
26.68
26.15
25.35
24.40
23.39
22.28
20.87
18.95
16.34
13.00
9.03
4.72
0.43
-3.53
-7.03
-10.12
-13.05
-16.21
-19.98
-24.64
-30.30
-36.68
-43.16
-48.83
-52.56
-53.42
-50.89
-45.09
-36.76
-27.04
-17.12
-7.88
0.19
6.97
12.51
16.86
20.01
21.94
22.77
22.75
22.37
22.12
22.36
23.22
24.56
26.10
27.51
28.58
29.25
29.54
29.46
28.92
27.73
25.67
22.60
18.55
13.81
8.80
3.98
-0.33
-3.99
-7.09
-9.92
-12.84
-16.23
-20.42
-25.51
-31.26
-37.08
-42.04
-45.12
-45.49
-42.75
-37.10
-29.26
-20.26
-11.22
-3.01
3.77
8.94
12.57
14.90
16.18
16.56
16.18
15.15
13.73
12.24
11.05
10.44
10.46
11.01
11.90
12.95
13.99
14.88
15.42
15.33
14.40
12.49
9.68
6.20
2.38
-1.48
-5.15
-8.54
-11.73
-14.94
-18.53
-22.84
-28.04
-33.94
-39.82
-44.60
-47.01
-46.07
-41.41
-33.49
-23.43
-12.73
-2.80
5.36
11.38
15.37
17.73
18.90
19.21
18.95
18.34
17.64
17.08
16.83
16.95
17.38
17.97
18.56
19.02
19.32
19.49
19.63
19.79
19.94
19.85
19.18
17.56
14.78
10.92
6.32
1.52
-2.96
-6.79
-9.94
-12.60
-15.22
-18.31
-22.29
-27.33
-33.16
-39.02
-43.77
-46.19
-45.37
-41.04
-33.69
-24.38
-14.43
-4.99
3.18
9.78
14.86
18.68
21.54
23.72
25.43
26.82
28.03
29.10
30.01
30.73
31.18
31.31
31.15
30.78
30.32
29.92
29.70
29.69
29.81
29.85
29.53
28.53
26.65
23.78
20.10
15.90
11.60
7.56
3.98
0.83
-2.06
-4.96
-8.08
-11.45
-14.96
-18.38
-21.50
-24.30
-26.96
-29.96
-33.80
-38.77
-44.60
-50.43
-54.88
-56.60
-54.66
-48.96
-40.20
-29.63
-18.69
-8.59
-0.11
6.43
11.12
14.32
16.56
18.37
20.17
22.10
24.10
25.95
27.53
28.82
29.97
31.11
32.27
33.35
34.15
34.46
34.23
33.52
32.45
31.15
29.65
27.93
25.88
23.48
20.74
17.79
14.73
11.65
8.58
5.51
2.43
-0.62
-3.59
-6.36
-8.87
-11.08
-12.97
-14.60
-16.07
-17.56
-19.37
-21.84
-25.27
-29.82
-35.42
-41.57
-47.46
-51.97
-54.03
-52.83
-48.17
-40.52
-30.94
-20.80
-11.33
-3.42
2.55
6.69
9.33
10.97
12.10
13.10
14.23
15.53
16.90
18.13
19.06
19.66
20.01
20.25
20.50
20.81
21.24
21.79
22.46
23.12
23.56
23.48
22.58
20.73
18.03
14.80
11.47
8.35
5.61
3.22
1.03
-1.15
-3.44
-5.81
-8.17
-10.47
-12.70
-15.00
-17.63
-20.85
-24.80
-29.39
-34.24
-38.68
-41.91
-43.13
-41.78
-37.70
-31.23
-23.12
-14.44
-6.26
0.65
5.99
9.89
12.70
14.74
16.09
16.63
16.21
14.93
13.16
11.54
10.64
10.80
11.93
13.66
15.44
16.82
17.54
17.52
16.87
15.70
14.15
12.36
10.43
8.52
6.72
5.04
3.38
1.53
-0.68
-3.33
-6.30
-9.34
-12.20
-14.77
-17.15
-19.63
-22.55
-26.14
-30.33
-34.67
-38.43
-40.76
-40.89
-38.37
-33.20
-25.93
-17.46
-8.86
-1.09
5.20
9.79
12.75
14.36
14.94
14.76
14.05
13.05
12.01
11.13
10.56
10.35
10.48
10.86
11.41
12.03
12.63
13.09
13.34
13.28
12.85
12.02
10.77
9.10
7.05
4.69
2.11
-0.56
-3.22
-5.78
-8.20
-10.47
-12.59
-14.56
-16.42
-18.24
-20.21
-22.56
-25.60
-29.53
-34.28
-39.36
-43.88
-46.71
-46.84
-43.70
-37.37
-28.61
-18.67
-8.93
-0.53
5.82
9.95
12.10
12.81
12.71
12.40
12.29
12.60
13.36
14.41
15.52
16.52
17.27
17.76
18.06
18.26
18.44
18.62
18.79
18.90
18.81
18.42
17.60
16.31
14.61
12.60
10.38
8.03
5.58
3.09
0.62
-1.74
-3.97
-6.02
-7.99
-10.01
-12.27
-15.02
-18.59
-23.31
-29.30
-36.32
-43.59
-49.89
-53.89
-54.57
-51.55
-45.24
-36.61
-26.93
-17.34
-8.73
-1.64
3.72
7.37
9.64
10.95
11.82
12.65
13.64
14.70
15.62
16.19
16.33
16.15
15.92
15.93
16.34
17.22
18.43
19.71
20.71
21.10
20.65
19.31
17.25
14.84
12.46
10.42
8.77
7.36
5.82
3.84
1.25
-1.91
-5.44
-9.10
-12.71
-16.23
-19.74
-23.50
-27.72
-32.50
-37.60
-42.40
-46.00
-47.44
-46.09
-41.81
-35.10
-26.84
-18.08
-9.71
-2.37
3.60
8.06
11.03
12.73
13.46
13.62
13.61
13.69
13.98
14.44
14.99
15.56
16.13
16.70
17.24
17.67
17.93
18.00
17.92
17.78
17.59
17.26
16.58
15.28
13.16
10.26
6.77
3.02
-0.64
-3.97
-6.89
-9.49
-12.01
-14.86
-18.38
-22.75
-27.80
-32.95
-37.31
-39.90
-39.98
-37.25
-31.96
-24.84
-16.84
-8.90
-1.79
4.02
8.33
11.21
12.90
13.74
14.08
14.14
13.94
13.38
12.34
10.84
9.15
7.77
7.17
7.64
9.08
11.00
12.72
13.60
13.27
11.69
9.09
5.84
2.24
-1.45
-5.08
-8.53
-11.82
-15.07
-18.57
-22.59
-27.31
-32.55
-37.69
-41.77
-43.69
-42.65
-38.31
-31.05
-21.79
-11.74
-2.16
6.01
12.24
16.44
18.87
19.93
20.09
19.72
19.08
18.31
17.48
16.60
15.71
14.86
14.17
13.79
13.87
14.42
15.32
16.33
17.13
17.33
16.60
14.73
11.65
7.52
2.71
-2.36
-7.26
-11.77
-15.96
-20.12
-24.67
-29.95
-35.97
-42.35
-48.27
-52.69
-54.60
-53.32
-48.73
-41.37
-32.22
-22.51
-13.25
-5.15
1.54
6.83
10.92
14.04
16.40
18.13
19.33
20.14
20.66
21.08
21.56
22.22
23.04
23.91
24.67
25.23
25.57
25.71
25.65
25.23
24.16
22.17
19.12
15.13
10.43
5.31
-0.01
-5.36
-10.65
-15.81
-20.89
-26.11
-31.83
-38.31
-45.31
-51.95
-56.80
-58.25
-55.24
-47.57
-35.86
-21.35
-5.45
10.35
24.45
35.26
41.48
42.63
39.44
33.78
27.98
23.97
22.50
23.10
24.57
25.84
26.46
26.67
27.01
27.86
29.15
30.41
31.12
30.93
29.75
27.65
24.82
21.34
17.26
12.66
7.73
2.71
-2.11
-6.64
-10.99
-15.45
-20.39
-25.98
-31.98
-37.68
-41.94
-43.57
-41.69
-36.13
-27.46
-16.91
-5.97
4.02
12.22
18.34
22.52
25.15
26.65
27.38
27.55
27.34
26.88
26.25
25.56
24.84
24.13
23.44
22.80
22.29
21.99
21.94
22.06
22.15
21.87
20.89
19.05
16.38
13.10
9.55
6.05
2.71
-0.51
-3.85
-7.62
-12.09
-17.41
-23.44
-29.70
-35.37
-39.41
-40.83
-38.95
-33.70
-25.66
-15.92
-5.78
3.62
11.52
17.62
22.02
24.99
26.86
27.93
28.47
28.65
28.65
28.53
28.35
28.13
27.94
27.85
27.99
28.46
29.25
30.18
30.98
31.34
30.99
29.82
27.84
25.16
21.98
18.43
14.61
10.59
6.39
2.06
-2.30
-6.55
-10.51
-14.07
-17.25
-20.23
-23.32
-26.93
-31.37
-36.77
-42.90
-49.10
-54.29
-57.28
-57.02
-53.05
-45.68
-35.98
-25.39
-15.30
-6.56
0.61
6.47
11.47
16.00
20.12
23.71
26.61
28.71
30.15
31.24
32.27
33.44
34.73
35.99
36.99
37.65
37.99
38.14
38.20
38.19
37.94
37.28
36.01
34.07
31.49
28.38
24.87
21.14
17.35
13.72
10.39
7.40
4.63
1.87
-1.13
-4.47
-8.07
-11.72
-15.22
-18.42
-21.44
-24.54
-28.10
-32.44
-37.73
-43.73
-49.87
-55.20
-58.63
-59.21
-56.41
-50.32
-41.70
-31.74
-21.70
-12.63
-5.08
0.89
5.61
9.53
13.03
16.33
19.46
22.32
24.84
26.99
28.82
30.36
31.63
32.62
33.31
33.73
33.94
34.02
34.01
33.79
33.14
31.83
29.69
26.79
23.44
20.06
17.00
14.40
12.12
9.85
7.26
4.19
0.72
-2.91
-6.41
-9.60
-12.41
-14.99
-17.59
-20.55
-24.22
-28.83
-34.30
-40.11
-45.29
-48.65
-49.15
-46.28
-40.27
-32.03
-22.87
-14.04
-6.44
-0.48
3.91
7.04
9.31
11.10
12.66
14.15
15.60
16.93
18.03
18.83
19.37
19.75
20.15
20.63
21.21
21.75
22.08
22.09
21.80
21.26
20.53
19.58
18.28
16.49
14.12
11.21
7.96
4.68
1.65
-0.93
-3.02
-4.78
-6.44
-8.38
-10.91
-14.25
-18.40
-23.02
-27.49
-30.90
-32.39
-31.30
-27.55
-21.59
-14.31
-6.75
0.24
6.12
10.72
14.03
16.13
17.10
17.07
16.22
14.85
13.28
11.80
10.65
9.99
9.91
10.41
11.29
12.26
12.88
12.89
12.23
11.07
9.70
8.34
6.94
5.26
2.98
-0.04
-3.61
-7.28
-10.49
-12.94
-14.71
-16.23
-18.10
-20.80
-24.50
-29.02
-33.96
-38.78
-42.90
-45.73
-46.66
-45.16
-40.95
-34.25
-25.78
-16.65
-8.03
-0.73
4.91
9.06
12.18
14.72
16.94
18.94
20.68
22.08
23.15
23.87
24.28
24.33
24.09
23.70
23.38
23.27
23.37
23.46
23.19
22.30
20.66
18.40
15.76
12.96
10.10
7.16
4.07
0.84
-2.48
-5.76
-8.85
-11.68
-14.19
-16.41
-18.46
-20.55
-23.02
-26.18
-30.18
-34.89
-39.79
-44.01
-46.58
-46.66
-43.81
-38.22
-30.55
-21.87
-13.28
-5.63
0.64
5.54
9.35
12.45
15.09
17.36
19.20
20.54
21.41
21.96
22.34
22.62
22.77
22.68
22.38
21.97
21.65
21.57
21.69
21.75
21.40
20.36
18.59
16.22
13.51
10.73
8.01
5.42
2.94
0.54
-1.86
-4.31
-6.80
-9.29
-11.74
-14.11
-16.49
-19.08
-22.13
-25.89
-30.40
-35.37
-40.12
-43.72
-45.18
-43.79
-39.40
-32.56
-24.33
-15.91
-8.31
-2.10
2.64
6.11
8.59
10.31
11.48
12.32
13.08
13.91
14.83
15.72
16.38
16.71
16.78
16.75
16.82
17.02
17.25
17.33
17.11
16.60
15.89
15.10
14.28
13.38
12.23
10.69
8.68
6.29
3.66
1.00
-1.56
-4.01
-6.44
-9.01
-11.80
-14.85
-18.09
-21.48
-24.92
-28.26
-31.18
-33.16
-33.59
-31.89
-27.86
-21.79
-14.48
-6.97
-0.27
4.99
8.61
10.76
11.81
12.11
11.89
11.30
10.45
9.47
8.57
7.94
7.73
7.93
8.37
8.83
9.13
9.21
9.11
8.92
8.72
8.45
7.92
6.88
5.14
2.64
-0.40
-3.61
-6.54
-8.82
-10.32
-11.14
-11.63
-12.18
-13.17
-14.90
-17.52
-20.99
-24.98
-28.83
-31.57
-32.22
-30.13
-25.27
-18.31
-10.45
-2.96
3.22
7.71
10.68
12.51
13.54
13.92
13.66
12.80
11.55
10.33
9.54
9.43
9.89
10.54
10.93
10.80
10.19
9.44
8.89
8.66
8.53
7.99
6.51
3.81
-0.02
-4.50
-9.04
-13.09
-16.40
-18.97
-21.06
-23.09
-25.51
-28.72
-32.86
-37.77
-42.90
-47.31
-49.91
-49.81
-46.60
-40.47
-32.28
-23.16
-14.30
-6.64
-0.68
3.46
5.98
7.27
7.77
7.88
7.90
8.02
8.30
8.68
9.04
9.26
9.35
9.41
9.59
9.98
10.52
11.01
11.14
10.66
9.50
7.70
5.41
2.80
-0.06
-3.08
-6.16
-9.20
-12.11
-14.91
-17.82
-21.18
-25.27
-30.13
-35.37
-40.24
-43.81
-45.20
-43.93
-39.98
-33.85
-26.34
-18.31
-10.56
-3.69
1.89
5.98
8.59
9.92
10.37
10.38
10.37
10.59
11.10
11.79
12.51
13.15
13.68
14.10
14.47
14.82
15.15
15.46
15.62
15.47
14.77
13.35
11.14
8.23
4.89
1.41
-1.93
-5.04
-8.07
-11.28
-15.03
-19.57
-24.86
-30.50
-35.70
-39.39
-40.57
-38.59
-33.49
-26.02
-17.42
-9.00
-1.76
3.88
7.97
10.91
13.05
14.58
15.55
15.87
15.55
14.70
13.60
12.56
11.89
11.76
12.17
12.89
13.62
14.01
13.80
12.97
11.66
10.09
8.44
6.75
4.94
2.88
0.49
-2.28
-5.42
-9.01
-13.18
-17.94
-23.08
-28.02
-31.89
-33.71
-32.71
-28.66
-21.94
-13.49
-4.52
3.80
10.60
15.50
18.53
20.03
20.47
20.24
19.61
18.80
17.94
17.15
16.53
16.09
15.75
15.40
15.00
14.56
14.17
13.89
13.62
13.08
11.86
9.60
6.17
1.72
-3.29
-8.33
-12.97
-17.00
-20.52
-23.94
-27.83
-32.67
-38.62
-45.26
-51.65
-56.44
-58.31
-56.45
-50.84
-42.28
-32.10
-21.68
-12.02
-3.65
3.42
9.36
14.41
18.69
22.32
25.36
27.95
30.31
32.68
35.35
38.59
42.56
47.17
51.92
55.85
57.75
56.71
52.50
45.89
38.27
31.14
25.41
21.12
17.60
14.01
9.91
5.44
1.15
-2.49
-5.46
-8.31
-11.88
-16.89
-23.56
-31.48
-39.66
-46.70
-51.27
-52.35
-49.56
-43.26
-34.44
-24.35
-14.17
-4.74
3.54
10.62
16.56
21.45
25.35
28.31
30.47
32.02
33.22
34.27
35.26
36.11
36.68
36.79
36.35
35.43
34.23
33.02
32.04
31.39
31.00
30.70
30.15
29.10
27.31
24.70
21.31
17.30
12.93
8.50
4.24
0.28
-3.39
-6.91
-10.52
-14.56
-19.31
-24.92
-31.16
-37.32
-42.34
-45.04
-44.54
-40.61
-33.78
-25.16
-16.05
-7.49
-0.09
6.00
10.88
14.73
17.65
19.71
21.00
21.69
21.96
22.01
21.98
21.91
21.80
21.64
21.46
21.37
21.47
21.76
22.14
22.35
22.11
21.15
19.38
16.81
13.63
10.05
6.33
2.61
-1.01
-4.64
-8.49
-12.86
-17.99
-23.78
-29.73
-34.85
-37.97
-38.14
-34.96
-28.75
-20.47
-11.33
-2.49
5.27
11.60
16.46
19.98
22.32
23.61
23.99
23.68
22.97
22.20
21.66
21.52
21.79
22.30
22.82
23.14
23.14
22.85
22.30
21.50
20.36
18.68
16.31
13.16
9.29
4.90
0.24
-4.41
-8.85
-12.97
-16.78
-20.50
-24.48
-29.15
-34.77
-41.20
-47.83
-53.54
-57.08
-57.44
-54.19
-47.63
-38.65
-28.44
-18.13
-8.58
-0.22
6.83
12.61
17.25
20.90
23.74
25.95
27.72
29.17
30.42
31.50
32.42
33.14
33.63
33.79
33.54
32.79
31.55
29.96
28.17
26.29
24.31
22.03
19.20
15.68
11.53
7.03
2.57
-1.54
-5.16
-8.31
-11.20
-14.07
-17.16
-20.74
-25.04
-30.16
-35.92
-41.77
-46.77
-49.78
-49.83
-46.40
-39.70
-30.55
-20.24
-10.12
-1.20
5.97
11.33
15.18
17.89
19.80
21.19
22.23
23.11
23.96
24.86
25.81
26.70
27.37
27.70
27.65
27.24
26.56
25.79
25.08
24.54
24.17
23.82
23.17
21.84
19.56
16.27
12.15
7.55
2.90
-1.55
-5.70
-9.66
-13.66
-17.97
-22.80
-28.20
-33.97
-39.64
-44.49
-47.60
-48.15
-45.63
-39.99
-31.85
-22.24
-12.43
-3.63
3.37
8.25
11.16
12.61
13.15
13.27
13.28
13.32
13.38
13.40
13.34
13.22
13.08
13.01
13.10
13.36
13.74
14.06
14.05
13.41
11.90
9.42
6.12
2.27
-1.77
-5.69
-9.34
-12.74
-16.07
-19.57
-23.50
-27.99
-32.95
-38.07
-42.70
-45.98
-47.02
-45.09
-40.01
-32.26
-22.89
-13.23
-4.54
2.42
7.47
10.92
13.34
15.20
16.76
18.03
18.91
19.39
19.60
19.76
20.08
20.67
21.38
21.98
22.20
21.95
21.31
20.51
19.72
18.89
17.77
15.91
13.01
9.07
4.41
-0.41
-4.86
-8.66
-11.86
-14.84
-18.06
-21.96
-26.77
-32.45
-38.62
-44.55
-49.29
-51.77
-51.20
-47.27
-40.34
-31.36
-21.63
-12.36
-4.44
1.83
6.62
10.40
13.72
16.90
19.99
22.79
25.03
26.52
27.26
27.44
27.30
26.97
26.42
25.56
24.37
23.00
21.72
20.84
20.36
20.05
19.40
17.97
15.55
12.26
8.49
4.68
1.13
-2.10
-5.10
-8.09
-11.26
-14.82
-18.92
-23.65
-28.84
-34.01
-38.31
-40.75
-40.47
-37.11
-30.94
-22.80
-13.88
-5.33
2.01
7.74
11.89
14.75
16.65
17.90
18.68
19.07
19.12
18.87
18.40
17.84
17.32
16.93
16.73
16.72
16.87
17.09
17.27
17.20
16.65
15.41
13.39
10.71
7.59
4.40
1.40
-1.32
-3.91
-6.63
-9.79
-13.60
-18.11
-23.20
-28.54
-33.53
-37.32
-39.00
-37.87
-33.72
-27.01
-18.76
-10.21
-2.46
3.87
8.63
12.00
14.26
15.65
16.27
16.25
15.78
15.09
14.49
14.20
14.38
15.01
15.94
16.95
17.82
18.42
18.70
18.68
18.31
17.48
15.95
13.51
10.07
5.78
1.06
-3.61
-7.75
-11.14
-13.87
-16.34
-19.08
-22.62
-27.32
-33.15
-39.58
-45.65
-50.10
-51.80
-50.06
-44.89
-37.05
-27.75
-18.34
-9.86
-2.92
2.45
6.51
9.70
12.39
14.79
16.96
18.84
20.36
21.51
22.40
23.17
24.04
25.08
26.22
27.24
27.87
27.89
27.21
25.94
24.25
22.34
20.25
17.92
15.26
12.23
8.93
5.55
2.29
-0.75
-3.61
-6.42
-9.32
-12.39
-15.71
-19.33
-23.41
-28.12
-33.47
-39.15
-44.44
-48.33
-49.72
-47.89
-42.73
-34.87
-25.47
-15.87
-7.24
-0.24
4.99
8.79
11.66
14.11
16.42
18.68
20.78
22.55
23.92
24.90
25.59
26.10
26.46
26.68
26.75
26.71
26.66
26.66
26.68
26.52
25.87
24.48
22.28
19.44
16.36
13.42
10.83
8.55
6.36
3.94
1.12
-2.11
-5.56
-8.97
-12.09
-14.80
-17.14
-19.32
-21.67
-24.59
-28.40
-33.12
-38.42
-43.44
-47.06
-48.19
-46.11
-40.84
-33.11
-24.18
-15.37
-7.67
-1.51
3.22
6.92
9.98
12.62
14.85
16.58
17.81
18.64
19.24
19.72
20.06
20.14
19.85
19.20
18.32
17.49
16.90
16.64
16.53
16.31
15.58
14.05
11.61
8.36
4.64
0.89
-2.47
-5.23
-7.42
-9.34
-11.44
-14.15
-17.76
-22.28
-27.44
-32.56
-36.71
-38.86
-38.27
-34.64
-28.37
-20.39
-11.91
-4.06
2.40
7.19
10.46
12.59
14.01
15.10
16.01
16.76
17.25
17.35
17.04
16.41
15.70
15.15
14.93
15.08
15.51
16.00
16.26
16.03
15.09
13.38
10.94
7.93
4.49
0.77
-3.11
-7.05
-10.95
-14.76
-18.46
-22.11
-25.73
-29.14
-31.86
-33.13
-32.20
-28.59
-22.48
-14.62
-6.20
1.59
7.93
12.52
15.53
17.30
18.18
18.34
17.85
16.79
15.37
13.92
12.81
12.31
12.51
13.27
14.30
15.25
15.81
15.77
15.00
13.48
11.29
8.53
5.37
1.95
-1.62
-5.29
-9.07
-13.00
-17.22
-21.86
-27.07
-32.84
-38.88
-44.43
-48.42
-49.74
-47.59
-41.92
-33.48
-23.64
-13.95
-5.61
0.80
5.38
8.62
11.12
13.30
15.29
17.08
18.54
19.64
20.39
20.88
21.19
21.38
21.45
21.44
21.37
21.26
21.09
20.75
20.05
18.74
16.62
13.61
9.77
5.35
0.75
-3.68
-7.67
-11.10
-14.07
-16.86
-19.86
-23.51
-28.06
-33.54
-39.54
-45.25
-49.58
-51.38
-49.90
-45.02
-37.38
-28.19
-18.77
-10.16
-2.82
3.33
8.63
13.35
17.50
20.87
23.24
24.61
25.23
25.49
25.76
26.14
26.54
26.76
26.66
26.25
25.68
25.13
24.77
24.57
24.38
23.93
22.90
20.96
18.00
14.08
9.53
4.78
0.26
-3.86
-7.54
-10.95
-14.35
-17.99
-22.14
-26.96
-32.48
-38.40
-43.98
-48.19
-49.90
-48.36
-43.40
-35.65
-26.31
-16.81
-8.31
-1.40
3.96
8.17
11.71
14.87
17.67
19.91
21.49
22.49
23.18
23.81
24.48
25.04
25.23
24.93
24.27
23.60
23.26
23.41
23.83
24.12
23.77
22.43
20.03
16.70
12.83
8.79
4.97
1.61
-1.19
-3.55
-5.77
-8.29
-11.57
-15.83
-20.88
-26.07
-30.34
-32.57
-31.89
-28.08
-21.65
-13.70
-5.49
1.91
7.92
12.41
15.53
17.52
18.51
18.62
17.97
16.80
15.44
14.23
13.44
13.20
13.43
13.97
14.61
15.14
15.42
15.37
15.01
14.30
13.18
11.49
9.11
6.02
2.37
-1.52
-5.27
-8.56
-11.28
-13.53
-15.64
-18.04
-21.11
-25.09
-29.94
-35.25
-40.25
-43.94
-45.31
-43.62
-38.74
-31.23
-22.16
-12.86
-4.50
2.26
7.34
11.06
13.97
16.42
18.57
20.35
21.66
22.48
22.93
23.21
23.43
23.59
23.62
23.46
23.13
22.70
22.24
21.70
21.04
20.16
19.05
17.74
16.29
14.62
12.55
9.93
6.78
3.26
-0.28
-3.60
-6.60
-9.43
-12.39
-15.79
-19.86
-24.66
-30.10
-35.91
-41.54
-46.21
-49.00
-49.06
-45.97
-39.89
-31.62
-22.34
-13.27
-5.30
1.15
6.11
9.89
12.89
15.42
17.69
19.82
21.84
23.69
25.27
26.43
27.05
27.17
26.95
26.62
26.37
26.24
26.15
25.91
25.33
24.31
22.80
20.80
18.38
15.59
12.59
9.53
6.56
3.76
1.13
-1.41
-3.93
-6.45
-8.95
-11.41
-13.83
-16.36
-19.23
-22.75
-27.06
-32.04
-37.08
-41.22
-43.38
-42.76
-39.14
-32.97
-25.23
-17.01
-9.25
-2.52
2.96
7.24
10.46
12.79
14.40
15.40
15.93
16.11
16.08
16.02
16.11
16.52
17.24
18.11
18.85
19.21
19.09
18.54
17.75
16.91
16.04
15.02
13.57
11.48
8.67
5.30
1.70
-1.71
-4.56
-6.69
-8.19
-9.37
-10.75
-12.79
-15.78
-19.63
-23.83
-27.52
-29.75
-29.77
-27.21
-22.29
-15.71
-8.40
-1.26
5.00
9.98
13.54
15.66
16.40
15.84
14.19
11.80
9.16
6.85
5.36
4.93
5.49
6.70
8.03
9.05
9.50
9.38
8.88
8.19
7.44
6.56
5.39
3.74
1.47
-1.31
-4.37
-7.37
-9.95
-11.96
-13.49
-14.92
-16.81
-19.67
-23.73
-28.79
-34.14
-38.78
-41.61
-41.83
-39.10
-33.67
-26.31
-18.08
-10.08
-3.18
2.11
5.72
7.94
9.30
10.25
11.14
12.09
13.10
14.11
15.05
15.93
16.78
17.63
18.49
19.37
20.28
21.18
21.92
22.34
22.29
21.68
20.55
18.97
16.99
14.64
11.87
8.73
5.37
2.03
-1.09
-3.92
-6.60
-9.37
-12.49
-16.14
-20.34
-25.06
-30.11
-35.21
-39.88
-43.42
-45.07
-44.24
-40.70
-34.75
-27.16
-18.99
-11.25
-4.64
0.58
4.61
7.86
10.71
13.35
15.69
17.48
18.56
18.94
18.87
18.74
18.83
19.21
19.72
20.14
20.31
20.19
19.87
19.43
18.87
18.09
16.95
15.37
13.33
10.89
8.13
5.13
2.02
-1.05
-3.90
-6.34
-8.26
-9.75
-11.02
-12.44
-14.44
-17.29
-21.05
-25.50
-30.08
-33.97
-36.28
-36.25
-33.50
-28.19
-20.98
-12.91
-5.07
1.60
6.57
9.78
11.48
12.10
12.09
11.75
11.27
10.77
10.39
10.26
10.54
11.27
12.31
13.36
14.08
14.30
14.07
13.68
13.45
13.46
13.55
13.27
12.19
10.13
7.23
3.95
0.82
-1.81
-3.90
-5.67
-7.52
-9.90
-13.10
-17.12
-21.65
-26.01
-29.29
-30.57
-29.24
-25.15
-18.81
-11.19
-3.49
3.20
8.20
11.29
12.68
12.85
12.36
11.62
10.88
10.18
9.50
8.83
8.26
7.90
7.87
8.20
8.79
9.43
9.93
10.15
10.02
9.49
8.47
6.84
4.49
1.45
-2.05
-5.63
-8.91
-11.77
-14.43
-17.38
-21.25
-26.39
-32.69
-39.40
-45.36
-49.24
-50.01
-47.21
-41.08
-32.54
-22.88
-13.41
-5.16
1.34
6.00
9.10
11.02
12.16
12.78
13.10
13.29
13.49
13.80
14.28
14.88
15.51
16.07
16.49
16.78
16.95
17.01
16.98
16.78
16.29
15.34
13.82
11.63
8.84
5.67
2.37
-0.78
-3.59
-6.09
-8.47
-11.06
-14.25
-18.33
-23.40
-29.25
-35.31
-40.73
-44.54
-45.90
-44.33
-39.96
-33.37
-25.49
-17.31
-9.60
-2.87
2.68
7.11
10.57
13.35
15.76
18.03
20.27
22.43
24.33
25.81
26.79
27.33
27.54
27.51
27.23
26.65
25.80
24.73
23.55
22.33
20.98
19.31
17.07
14.14
10.53
6.53
2.52
-1.09
-4.04
-6.30
-8.07
-9.73
-11.75
-14.52
-18.23
-22.89
-28.22
-33.64
-38.36
-41.42
-41.98
-39.54
-34.23
-26.77
-18.39
-10.27
-3.37
1.97
5.94
8.98
11.54
13.82
15.81
17.39
18.56
19.48
20.41
21.54
22.80
23.94
24.68
24.85
24.51
23.93
23.35
22.91
22.51
21.89
20.73
18.82
16.11
12.73
8.94
5.07
1.42
-1.81
-4.63
-7.14
-9.59
-12.24
-15.34
-19.04
-23.31
-27.82
-31.96
-34.85
-35.68
-33.86
-29.39
-22.83
-15.07
-7.16
0.07
6.17
11.00
14.65
17.27
18.95
19.72
19.59
18.72
17.39
16.00
14.98
14.54
14.65
15.06
15.42
15.56
15.46
15.28
15.14
15.00
14.63
13.66
11.86
9.10
5.55
1.54
-2.51
-6.25
-9.48
-12.36
-15.23
-18.62
-22.91
-28.19
-34.06
-39.64
-43.81
-45.51
-44.07
-39.44
-32.21
-23.47
-14.51
-6.49
-0.12
4.47
7.59
9.81
11.62
13.25
14.66
15.68
16.24
16.46
16.58
16.89
17.49
18.36
19.27
20.04
20.54
20.73
20.67
20.37
19.84
19.08
18.08
16.76
15.05
12.74
9.76
6.19
2.29
-1.49
-4.79
-7.47
-9.69
-11.86
-14.50
-17.99
-22.53
-27.99
-33.97
-39.77
-44.51
-47.19
-46.98
-43.45
-36.81
-27.88
-18.00
-8.51
-0.45
5.75
10.22
13.50
16.18
18.65
21.04
23.26
25.15
26.57
27.44
27.77
27.57
26.93
25.98
24.89
23.82
22.93
22.21
21.62
20.97
20.02
18.61
16.69
14.39
11.90
9.49
7.24
5.12
3.02
0.81
-1.61
-4.18
-6.83
-9.49
-12.18
-15.04
-18.27
-22.10
-26.56
-31.44
-36.19
-39.93
-41.67
-40.69
-36.76
-30.32
-22.32
-13.93
-6.24
0.07
4.77
7.97
10.02
11.32
12.24
12.99
13.73
14.55
15.56
16.80
18.25
19.72
20.97
21.72
21.87
21.56
21.09
20.77
20.68
20.63
20.18
18.91
16.62
13.44
9.78
6.08
2.71
-0.19
-2.64
-4.79
-6.81
-8.92
-11.39
-14.48
-18.34
-22.86
-27.51
-31.40
-33.52
-33.04
-29.71
-23.91
-16.60
-8.96
-2.03
3.59
7.74
10.60
12.49
13.64
14.18
14.19
13.80
13.25
12.79
12.67
12.94
13.52
14.24
14.87
15.28
15.40
15.22
14.79
14.16
13.33
12.21
10.66
8.50
5.62
2.13
-1.68
-5.37
-8.54
-11.06
-13.08
-14.98
-17.21
-20.11
-23.82
-28.27
-33.19
-38.08
-42.18
-44.57
-44.42
-41.30
-35.37
-27.45
-18.71
-10.33
-3.07
2.84
7.58
11.46
14.70
17.33
19.23
20.31
20.59
20.23
19.52
18.78
18.27
18.14
18.38
18.82
19.16
19.22
18.90
18.26
17.43
16.45
15.23
13.55
11.25
8.31
4.94
1.48
-1.75
-4.58
-7.00
-9.14
-11.21
-13.41
-15.94
-18.99
-22.74
-27.22
-32.31
-37.53
-42.12
-45.18
-45.84
-43.63
-38.56
-31.25
-22.71
-14.06
-6.24
0.21
5.14
8.73
11.34
13.34
15.03
16.58
18.07
19.45
20.64
21.61
22.40
23.10
23.82
24.57
25.24
25.61
25.50
24.80
23.57
21.98
20.21
18.39
16.54
14.57
12.43
10.06
7.46
4.65
1.69
-1.42
-4.63
-7.93
-11.20
-14.36
-17.39
-20.42
-23.74
-27.60
-32.06
-36.72
-40.75
-43.01
-42.52
-38.86
-32.36
-24.08
-15.32
-7.26
-0.56
4.64
8.54
11.41
13.44
14.70
15.25
15.24
14.96
14.75
14.83
15.24
15.85
16.50
17.04
17.46
17.78
18.06
18.29
18.45
18.50
18.34
17.83
16.80
15.05
12.46
9.16
5.45
1.83
-1.34
-3.95
-6.19
-8.48
-11.23
-14.68
-18.82
-23.34
-27.72
-31.28
-33.29
-33.14
-30.50
-25.57
-18.98
-11.70
-4.72
1.23
5.87
9.27
11.72
13.50
14.70
15.27
15.15
14.43
13.42
12.57
12.30
12.76
13.81
15.10
16.23
16.98
17.31
17.35
17.18
16.70
15.69
13.88
11.12
7.49
3.30
-0.98
-4.90
-8.20
-10.85
-13.08
-15.33
-18.13
-21.86
-26.63
-32.12
-37.59
-41.98
-44.26
-43.69
-40.10
-33.91
-26.07
-17.71
-9.85
-3.15
2.16
6.20
9.23
11.51
13.23
14.48
15.38
16.05
16.63
17.24
17.96
18.73
19.48
20.09
20.46
20.52
20.24
19.62
18.71
17.61
16.43
15.26
14.02
12.51
10.48
7.75
4.36
0.53
-3.40
-7.16
-10.64
-13.96
-17.38
-21.18
-25.55
-30.52
-35.87
-41.11
-45.49
-48.16
-48.30
-45.45
-39.68
-31.64
-22.42
-13.21
-5.03
1.57
6.47
9.88
12.20
13.85
15.18
16.48
17.91
19.52
21.26
22.97
24.46
25.59
26.27
26.49
26.35
25.94
25.37
24.71
24.02
23.29
22.42
21.22
19.53
17.18
14.14
10.54
6.59
2.59
-1.23
-4.73
-8.00
-11.21
-14.63
-18.50
-22.96
-28.00
-33.42
-38.78
-43.40
-46.46
-47.16
-45.00
-39.97
-32.61
-23.96
-15.21
-7.38
-1.04
3.77
7.40
10.27
12.79
15.10
17.13
18.78
19.94
20.63
20.97
21.12
21.20
21.28
21.40
21.57
21.76
21.96
22.11
22.08
21.68
20.70
18.93
16.29
12.77
8.64
4.28
0.12
-3.48
-6.40
-8.88
-11.37
-14.41
-18.38
-23.25
-28.56
-33.45
-36.89
-38.00
-36.29
-31.83
-25.22
-17.38
-9.31
-1.82
4.56
9.64
13.41
15.94
17.30
17.56
16.88
15.57
14.04
12.73
11.97
11.85
12.19
12.75
13.32
13.85
14.44
15.18
16.01
16.62
16.56
15.41
12.92
9.14
4.40
-0.82
-6.04
-10.90
-15.26
-19.21
-23.05
-27.18
-31.94
-37.30
-42.86
-47.78
-51.03
-51.67
-49.22
-43.73
-35.81
-26.47
-16.79
-7.72
0.13
6.47
11.31
14.83
17.24
18.82
19.74
20.19
20.32
20.34
20.36
20.49
20.78
21.20
21.68
22.16
22.61
23.04
23.47
23.83
24.02
23.79
22.82
20.90
17.93
13.99
9.37
4.41
-0.55
-5.22
-9.50
-13.39
-17.05
-20.81
-25.04
-30.12
-36.26
-43.28
-50.55
-56.90
-60.98
-61.47
-57.65
-49.63
-38.29
-24.99
-11.11
2.28
14.39
24.56
32.10
36.37
37.19
35.08
31.28
27.34
24.50
23.25
23.31
23.99
24.73
25.37
26.10
27.16
28.50
29.77
30.46
30.17
28.85
26.75
24.27
21.85
19.66
17.66
15.53
12.94
9.68
5.85
1.75
-2.21
-5.77
-8.98
-12.13
-15.72
-20.17
-25.69
-32.13
-38.98
-45.35
-50.20
-52.53
-51.66
-47.45
-40.40
-31.49
-21.95
-12.89
-5.05
1.28
6.19
10.01
13.09
15.64
17.73
19.31
20.40
21.13
21.75
22.54
23.63
24.94
26.23
27.28
27.94
28.30
28.54
28.77
28.92
28.74
27.88
26.12
23.38
19.81
15.77
11.61
7.68
4.16
1.07
-1.82
-4.86
-8.42
-12.81
-18.14
-24.19
-30.33
-35.57
-38.82
-39.17
-36.23
-30.35
-22.43
-13.69
-5.23
2.23
8.46
13.49
17.42
20.29
22.08
22.89
22.89
22.42
21.82
21.33
21.11
21.20
21.59
22.19
22.87
23.47
23.79
23.70
23.17
22.28
21.12
19.72
17.97
15.66
12.57
8.65
4.09
-0.72
-5.29
-9.29
-12.64
-15.51
-18.25
-21.29
-25.01
-29.65
-35.18
-41.23
-47.02
-51.43
-53.28
-51.75
-46.72
-38.84
-29.33
-19.56
-10.60
-2.96
3.31
8.44
12.67
16.14
18.88
20.97
22.65
24.28
26.15
28.41
30.90
33.21
34.92
35.70
35.54
34.62
33.26
31.66
29.89
27.83
25.36
22.50
19.37
16.21
13.18
10.27
7.26
3.92
0.14
-3.98
-8.15
-12.05
-15.52
-18.65
-21.73
-25.15
-29.21
-34.10
-39.72
-45.64
-51.10
-55.10
-56.60
-54.87
-49.73
-41.70
-31.79
-21.31
-11.38
-2.78
4.17
9.56
13.70
16.98
19.70
22.04
23.97
25.45
26.40
26.91
27.21
27.56
28.16
29.00
29.86
30.50
30.77
30.67
30.36
29.90
29.21
27.99
25.85
22.55
18.09
12.82
7.32
2.16
-2.26
-5.80
-8.59
-10.95
-13.33
-16.22
-20.00
-24.83
-30.47
-36.25
-41.21
-44.30
-44.67
-42.02
-36.60
-29.15
-20.64
-12.04
-4.11
2.66
8.09
12.14
14.89
16.55
17.35
17.60
17.57
17.52
17.61
17.90
18.36
18.85
19.28
19.56
19.66
19.56
19.19
18.45
17.23
15.39
12.91
9.80
6.15
2.11
-2.08
-6.20
-9.98
-13.34
-16.36
-19.38
-22.84
-27.10
-32.10
-37.25
-41.55
-43.78
-42.98
-38.79
-31.58
-22.32
-12.29
-2.74
5.42
11.66
15.90
18.35
19.39
19.42
18.85
18.00
17.09
16.34
15.86
15.80
16.17
16.91
17.84
18.73
19.42
19.89
20.21
20.43
20.43
19.88
18.28
15.18
10.48
4.52
-1.99
-8.16
-13.35
-17.38
-20.53
-23.47
-26.93
-31.46
-37.26
-44.00
-50.87
-56.68
-60.13
-60.14
-56.23
-48.72
-38.63
-27.45
-16.64
-7.20
0.44
6.43
11.19
15.14
18.57
21.59
24.16
26.30
28.00
29.34
30.39
31.27
32.01
32.65
33.18
33.56
33.72
33.58
33.10
32.21
30.86
28.98
26.45
23.21
19.31
14.89
10.20
5.50
0.99
-3.24
-7.22
-11.07
-14.97
-19.15
-23.84
-29.23
-35.36
-41.96
-48.38
-53.68
-56.78
-56.81
-53.42
-46.88
-38.01
-27.99
-18.00
-8.94
-1.32
4.78
9.55
13.33
16.42
19.11
21.51
23.58
25.30
26.59
27.51
28.22
28.92
29.73
30.69
31.63
32.35
32.73
32.78
32.62
32.38
32.03
31.31
29.82
27.25
23.53
18.91
13.87
8.94
4.49
0.62
-2.75
-5.91
-9.21
-12.95
-17.38
-22.62
-28.56
-34.75
-40.45
-44.65
-46.44
-45.22
-40.99
-34.29
-26.12
-17.55
-9.49
-2.58
2.94
7.05
9.95
11.94
13.38
14.55
15.62
16.64
17.53
18.25
18.82
19.29
19.76
20.25
20.74
21.23
21.75
22.30
22.78
22.97
22.49
21.05
18.48
14.91
10.69
6.24
1.90
-2.12
-5.80
-9.30
-12.90
-16.93
-21.65
-27.08
-32.81
-37.99
-41.50
-42.31
-39.79
-34.02
-25.80
-16.33
-6.93
1.38
8.06
13.02
16.44
18.63
19.89
20.45
20.49
20.21
19.86
19.71
19.93
20.59
21.57
22.63
23.53
24.11
24.32
24.20
23.77
22.99
21.73
19.79
17.08
13.59
9.49
5.03
0.49
-3.87
-7.89
-11.49
-14.73
-17.85
-21.18
-25.14
-30.00
-35.77
-42.00
-47.80
-52.02
-53.54
-51.65
-46.35
-38.33
-28.81
-19.16
-10.52
-3.50
1.85
5.89
9.11
11.93
14.54
16.91
18.87
20.30
21.22
21.83
22.40
23.24
24.53
26.24
28.14
29.86
31.00
31.29
30.65
29.18
27.10
24.62
21.90
18.95
15.73
12.17
8.25
4.09
-0.17
-4.36
-8.42
-12.31
-15.99
-19.50
-22.97
-26.65
-30.92
-36.06
-41.95
-47.94
-52.83
-55.23
-54.06
-49.07
-40.83
-30.63
-19.99
-10.09
-1.65
5.11
10.37
14.40
17.48
19.89
21.90
23.68
25.37
26.93
28.24
29.14
29.53
29.42
28.93
28.26
27.64
27.22
27.01
26.90
26.68
26.13
25.09
23.46
21.23
18.41
15.13
11.50
7.70
3.98
0.51
-2.57
-5.26
-7.68
-10.05
-12.67
-15.86
-19.92
-25.00
-31.05
-37.56
-43.62
-48.07
-49.82
-48.20
-43.20
-35.50
-26.26
-16.73
-7.94
-0.55
5.23
9.48
12.45
14.40
15.60
16.22
16.47
16.51
16.51
16.59
16.86
17.37
18.10
18.96
19.84
20.63
21.27
21.70
21.84
21.59
20.75
19.16
16.74
13.59
10.01
6.38
3.06
0.25
-2.07
-4.18
-6.44
-9.20
-12.71
-17.03
-21.94
-27.01
-31.53
-34.70
-35.77
-34.25
-30.05
-23.58
-15.67
-7.34
0.42
6.84
11.58
14.61
16.13
16.42
15.72
14.25
12.25
10.02
7.93
6.38
5.64
5.76
6.53
7.58
8.53
9.13
9.31
9.11
8.54
7.54
6.02
3.87
1.09
-2.13
-5.53
-8.83
-11.88
-14.79
-17.87
-21.48
-25.90
-31.08
-36.58
-41.55
-44.97
-45.87
-43.66
-38.37
-30.61
-21.42
-12.00
-3.38
3.76
9.24
13.16
15.85
17.57
18.52
18.78
18.44
17.69
16.84
16.23
16.08
16.36
16.87
17.31
17.50
17.47
17.37
17.36
17.43
17.39
16.90
15.65
13.54
10.63
7.15
3.33
-0.60
-4.49
-8.23
-11.73
-15.03
-18.31
-21.89
-26.08
-31.01
-36.47
-41.89
-46.36
-48.92
-48.83
-45.82
-40.10
-32.34
-23.50
-14.56
-6.35
0.60
6.10
10.29
13.50
16.03
18.10
19.76
21.00
21.80
22.23
22.51
22.85
23.45
24.34
25.38
26.36
26.99
27.13
26.73
25.81
24.50
22.90
21.09
19.08
16.87
14.49
11.92
9.19
6.28
3.16
-0.17
-3.68
-7.27
-10.86
-14.38
-17.84
-21.38
-25.27
-29.77
-34.99
-40.68
-46.21
-50.62
-52.89
-52.21
-48.28
-41.48
-32.75
-23.31
-14.37
-6.71
-0.65
3.95
7.54
10.60
13.41
16.07
18.48
20.44
21.84
22.66
23.03
23.15
23.27
23.59
24.23
25.14
26.16
27.04
27.52
27.42
26.71
25.40
23.53
21.10
18.05
14.33
10.02
5.41
0.94
-2.95
-6.03
-8.38
-10.38
-12.57
-15.39
-19.07
-23.51
-28.27
-32.74
-36.16
-37.78
-37.01
-33.64
-27.94
-20.65
-12.79
-5.39
0.87
5.70
9.11
11.33
12.62
13.21
13.31
13.10
12.74
12.34
11.93
11.54
11.22
11.03
11.07
11.33
11.71
12.02
12.08
11.76
11.00
9.72
7.85
5.31
2.16
-1.40
-5.06
-8.49
-11.53
-14.29
-17.15
-20.64
-25.13
-30.60
-36.52
-41.85
-45.29
-45.73
-42.58
-36.01
-26.96
-16.83
-7.00
1.47
8.07
12.76
15.88
17.84
19.03
19.68
19.92
19.80
19.45
19.03
18.73
18.71
18.97
19.44
19.91
20.15
20.04
19.51
18.64
17.54
16.29
14.82
12.98
10.56
7.45
3.67
-0.56
-4.86
-8.82
-12.16
-14.81
-16.95
-18.98
-21.36
-24.46
-28.50
-33.43
-38.82
-43.91
-47.71
-49.17
-47.56
-42.70
-35.14
-25.98
-16.58
-8.08
-1.18
4.03
7.84
10.73
13.12
15.28
17.31
19.27
21.16
23.01
24.75
26.30
27.52
28.33
28.69
28.64
28.30
27.76
27.09
26.27
25.31
24.17
22.78
21.05
18.87
16.16
12.94
9.37
5.70
2.24
-0.83
-3.51
-5.92
-8.26
-10.73
-13.55
-16.91
-21.07
-26.12
-31.89
-37.67
-42.38
-44.87
-44.35
-40.67
-34.39
-26.52
-18.17
-10.16
-2.99
3.12
8.05
11.74
14.23
15.75
16.64
17.32
18.06
18.91
19.76
20.41
20.77
20.85
20.76
20.61
20.45
20.30
20.16
20.00
19.79
19.38
18.53
17.00
14.66
11.61
8.17
4.72
1.60
-1.05
-3.34
-5.52
-7.93
-10.88
-14.65
-19.32
-24.72
-30.27
-35.05
-37.97
-38.12
-35.11
-29.23
-21.36
-12.70
-4.34
2.94
8.82
13.26
16.37
18.22
18.85
18.36
17.01
15.24
13.56
12.38
11.87
11.97
12.38
12.76
12.90
12.71
12.22
11.48
10.51
9.25
7.70
5.77
3.50
0.92
-1.91
-4.84
-7.74
-10.52
-13.22
-15.98
-19.09
-22.80
-27.22
-32.16
-37.08
-41.15
-43.45
-43.22
-40.07
-34.19
-26.29
-17.46
-8.82
-1.27
4.71
9.11
12.17
14.22
15.51
16.22
16.45
16.38
16.28
16.38
16.91
17.96
19.41
20.98
22.29
23.02
22.93
22.00
20.41
18.46
16.45
14.57
12.82
11.04
8.96
6.41
3.33
-0.11
-3.61
-6.91
-9.92
-12.76
-15.74
-19.27
-23.62
-28.86
-34.76
-40.74
-46.01
-49.58
-50.60
-48.51
-43.33
-35.65
-26.53
-17.14
-8.51
-1.30
4.26
8.27
11.08
13.11
14.82
16.46
18.15
19.78
21.17
22.21
22.93
23.47
24.01
24.62
25.21
25.62
25.68
25.35
24.69
23.75
22.56
21.03
19.13
16.86
14.30
11.61
8.88
6.11
3.30
0.39
-2.57
-5.54
-8.50
-11.51
-14.77
-18.59
-23.16
-28.48
-34.19
-39.68
-44.12
-46.71
-46.82
-44.16
-38.83
-31.33
-22.49
-13.32
-4.84
2.22
7.51
11.12
13.43
14.91
15.93
16.67
17.17
17.52
17.86
18.39
19.26
20.41
21.58
22.45
22.76
22.51
21.91
21.30
20.88
20.60
20.18
19.23
17.46
14.84
11.57
8.05
4.64
1.53
-1.27
-3.93
-6.68
-9.73
-13.31
-17.58
-22.61
-28.14
-33.58
-37.98
-40.29
-39.69
-35.90
-29.34
-20.99
-12.09
-3.75
3.29
8.68
12.46
14.82
16.00
16.27
15.87
15.03
13.96
12.87
11.92
11.26
10.92
10.85
10.91
10.92
10.81
10.53
10.10
9.51
8.66
7.40
5.64
3.41
0.93
-1.58
-3.96
-6.27
-8.76
-11.77
-15.57
-20.27
-25.77
-31.66
-37.25
-41.62
-43.72
-42.74
-38.42
-31.20
-22.20
-12.81
-4.25
2.78
8.16
12.20
15.28
17.70
19.51
20.66
21.17
21.17
20.93
20.69
20.57
20.51
20.35
19.93
19.29
18.59
18.05
17.78
17.71
17.48
16.64
14.78
11.78
7.81
3.32
-1.11
-5.03
-8.18
-10.61
-12.64
-14.77
-17.54
-21.42
-26.56
-32.75
-39.28
-45.09
-48.90
-49.63
-46.69
-40.19
-30.99
-20.46
-10.06
-0.97
6.15
11.21
14.56
16.73
18.16
19.18
19.97
20.65
21.34
22.09
22.92
23.68
24.20
24.31
23.95
23.23
22.37
21.64
21.18
21.02
21.00
20.79
20.05
18.42
15.71
11.92
7.34
2.42
-2.27
-6.35
-9.70
-12.57
-15.45
-18.89
-23.30
-28.71
-34.73
-40.54
-45.12
-47.43
-46.77
-42.97
-36.43
-28.12
-19.16
-10.64
-3.25
2.76
7.49
11.24
14.28
16.79
18.87
20.59
21.99
23.07
23.75
23.95
23.63
22.86
21.87
20.90
20.17
19.78
19.68
19.68
19.51
18.86
17.45
15.12
11.92
8.11
4.18
0.63
-2.26
-4.53
-6.59
-8.99
-12.22
-16.50
-21.60
-26.95
-31.66
-34.79
-35.54
-33.48
-28.68
-21.78
-13.79
-5.81
1.17
6.61
10.38
12.70
14.01
14.69
15.02
15.12
15.01
14.68
14.18
13.62
13.22
13.18
13.60
14.43
15.52
16.62
17.41
17.64
17.05
15.44
12.80
9.28
5.19
0.98
-2.90
-6.21
-8.83
-10.95
-13.01
-15.58
-19.21
-24.18
-30.28
-36.73
-42.29
-45.56
-45.45
-41.56
-34.35
-25.04
-15.15
-6.09
1.30
6.80
10.74
13.63
15.95
17.92
19.55
20.77
21.56
22.03
22.37
22.78
23.35
24.01
24.67
25.19
25.47
25.48
25.14
24.44
23.31
21.77
19.82
17.49
14.80
11.76
8.40
4.84
1.28
-2.10
-5.13
-7.77
-10.21
-12.74
-15.76
-19.59
-24.45
-30.26
-36.67
-42.99
-48.33
-51.72
-52.43
-50.09
-44.83
-37.30
-28.45
-19.31
-10.81
-3.51
2.40
7.06
10.83
14.08
17.08
19.94
22.59
24.95
26.91
28.46
29.57
30.21
30.37
30.09
29.53
28.95
28.64
28.74
29.16
29.58
29.55
28.69
26.85
24.16
21.02
17.83
14.89
12.26
9.66
6.76
3.25
-0.87
-5.33
-9.67
-13.49
-16.63
-19.24
-21.69
-24.34
-27.50
-31.26
-35.49
-39.85
-43.74
-46.36
-46.86
-44.55
-39.22
-31.37
-22.05
-12.69
-4.53
1.70
5.98
8.84
11.01
13.04
15.12
17.08
18.64
19.60
20.04
20.23
20.47
20.93
21.54
22.12
22.48
22.58
22.45
22.20
21.90
21.50
20.88
19.95
18.68
17.20
15.63
14.13
12.67
11.08
9.16
6.75
3.88
0.77
-2.28
-5.05
-7.60
-10.29
-13.57
-17.80
-22.94
-28.52
-33.66
-37.37
-38.74
-37.28
-32.99
-26.41
-18.49
-10.33
-2.94
3.03
7.36
10.23
12.00
13.05
13.54
13.56
13.16
12.51
11.88
11.60
11.88
12.75
14.05
15.45
16.65
17.41
17.62
17.28
16.44
15.20
13.72
12.09
10.34
8.38
6.03
3.10
-0.44
-4.43
-8.46
-12.07
-14.94
-17.01
-18.53
-19.99
-21.94
-24.78
-28.61
-33.12
-37.64
-41.21
-42.80
-41.57
-37.23
-30.13
-21.23
-11.74
-2.85
4.64
10.34
14.28
16.70
17.95
18.42
18.48
18.41
18.37
18.43
18.51
18.52
18.46
18.40
18.53
18.98
19.76
20.68
21.44
21.72
21.28
20.07
18.20
15.87
13.36
10.87
8.57
6.53
4.70
2.93
1.05
-1.10
-3.62
-6.44
-9.40
-12.33
-15.15
-17.96
-21.00
-24.58
-28.87
-33.76
-38.78
-43.14
-45.93
-46.36
-44.01
-38.99
-31.92
-23.78
-15.60
-8.25
-2.27
2.19
5.33
7.52
9.22
10.77
12.37
14.04
15.66
17.07
18.17
18.91
19.39
19.71
20.04
20.47
20.99
21.55
21.97
22.05
21.58
20.41
18.49
15.94
12.98
9.91
6.97
4.31
1.94
-0.20
-2.18
-4.10
-6.02
-7.99
-9.99
-11.99
-13.93
-15.82
-17.82
-20.24
-23.42
-27.45
-31.95
-36.06
-38.63
-38.61
-35.54
-29.67
-21.95
-13.60
-5.73
0.95
6.18
10.01
12.61
14.13
14.73
14.58
13.98
13.26
12.76
12.70
13.15
14.02
15.08
16.01
16.52
16.40
15.67
14.50
13.18
11.94
10.89
9.86
8.60
6.87
4.61
1.96
-0.78
-3.35
-5.66
-7.74
-9.77
-11.89
-14.18
-16.71
-19.53
-22.71
-26.25
-29.94
-33.24
-35.36
-35.48
-33.06
-28.10
-21.20
-13.41
-5.84
0.66
5.60
8.94
10.88
11.75
11.83
11.35
10.48
9.34
8.08
6.84
5.85
5.26
5.13
5.41
5.94
6.50
7.00
7.42
7.81
8.13
8.13
7.43
5.70
2.89
-0.72
-4.53
-8.02
-10.95
-13.49
-16.15
-19.52
-23.87
-29.03
-34.42
-39.14
-42.25
-43.00
-40.99
-36.23
-29.15
-20.56
-11.48
-2.98
4.11
9.29
12.53
14.13
14.61
14.44
13.97
13.37
12.70
12.04
11.48
11.18
11.23
11.64
12.29
12.97
13.50
13.76
13.79
13.63
13.33
12.83
11.90
10.27
7.73
4.36
0.51
-3.32
-6.66
-9.41
-11.89
-14.74
-18.63
-23.91
-30.40
-37.41
-43.86
-48.66
-50.88
-50.02
-46.03
-39.37
-30.88
-21.65
-12.82
-5.25
0.60
4.78
7.68
9.83
11.74
13.68
15.72
17.83
19.89
21.81
23.47
24.76
25.58
25.85
25.56
24.85
23.89
22.90
21.99
21.10
20.09
18.68
16.67
13.95
10.58
6.77
2.82
-0.99
-4.47
-7.59
-10.47
-13.35
-16.50
-20.20
-24.61
-29.74
-35.25
-40.42
-44.29
-45.87
-44.44
-39.86
-32.64
-23.79
-14.51
-5.84
1.52
7.35
11.79
15.15
17.75
19.82
21.47
22.71
23.55
24.07
24.40
24.66
24.89
25.07
25.13
25.05
24.94
24.95
25.18
25.55
25.78
25.46
24.21
21.84
18.47
14.45
10.21
6.19
2.58
-0.58
-3.44
-6.28
-9.33
-12.85
-16.95
-21.58
-26.35
-30.60
-33.43
-33.95
-31.60
-26.43
-19.16
-10.94
-3.04
3.60
8.61
12.12
14.53
16.21
17.41
18.19
18.62
18.79
18.88
19.02
19.21
19.36
19.33
19.09
18.74
18.40
18.21
18.16
18.08
17.69
16.73
15.02
12.53
9.38
5.81
2.17
-1.26
-4.27
-6.90
-9.43
-12.32
-16.07
-20.89
-26.58
-32.36
-37.11
-39.55
-38.77
-34.55
-27.47
-18.74
-9.78
-1.71
4.85
9.87
13.61
16.44
18.53
19.96
20.74
20.99
20.96
20.97
21.26
21.92
22.84
23.75
24.44
24.76
24.80
24.75
24.82
25.07
25.32
25.22
24.35
22.46
19.48
15.57
11.05
6.28
1.61
-2.74
-6.61
-10.03
-13.10
-16.13
-19.49
-23.51
-28.35
-33.85
-39.46
-44.35
-47.55
-48.24
-45.97
-40.85
-33.47
-24.77
-15.83
-7.53
-0.45
5.16
9.40
12.54
14.95
16.98
18.88
20.73
22.45
23.94
25.03
25.67
25.88
25.80
25.64
25.58
25.77
26.20
26.69
26.98
26.78
25.90
24.36
22.38
20.23
18.10
16.00
13.77
11.17
8.07
4.49
0.63
-3.19
-6.68
-9.68
-12.21
-14.54
-16.98
-19.90
-23.53
-27.86
-32.51
-36.86
-40.08
-41.35
-40.14
-36.33
-30.29
-22.82
-14.91
-7.47
-1.18
3.63
6.94
9.00
10.17
10.88
11.52
12.32
13.37
14.58
15.79
16.92
17.91
18.88
19.91
21.02
22.14
23.11
23.75
23.98
23.80
23.23
22.27
20.86
18.91
16.38
13.35
10.01
6.68
3.65
1.14
-0.81
-2.37
-3.84
-5.63
-8.11
-11.50
-15.79
-20.63
-25.45
-29.49
-32.02
-32.46
-30.52
-26.29
-20.21
-13.02
-5.58
1.26
6.90
11.03
13.64
14.98
15.40
15.20
14.62
13.75
12.70
11.59
10.60
9.88
9.53
9.53
9.72
9.92
9.99
9.95
9.92
9.99
10.15
10.19
9.75
8.50
6.26
3.15
-0.49
-4.19
-7.54
-10.34
-12.67
-14.84
-17.30
-20.46
-24.51
-29.35
-34.52
-39.26
-42.66
-43.92
-42.51
-38.32
-31.74
-23.56
-14.82
-6.52
0.59
6.12
10.10
12.83
14.77
16.30
17.61
18.78
19.73
20.40
20.72
20.72
20.45
20.03
19.59
19.30
19.27
19.52
19.97
20.44
20.67
20.45
19.62
18.16
16.15
13.71
10.98
8.05
5.01
1.94
-1.08
-3.98
-6.71
-9.28
-11.71
-14.06
-16.45
-19.01
-21.96
-25.45
-29.51
-33.83
-37.78
-40.38
-40.78
-38.42
-33.37
-26.33
-18.38
-10.67
-4.07
0.99
4.56
7.01
8.85
10.53
12.36
14.37
16.38
18.10
19.36
20.12
20.56
21.00
21.61
22.40
23.15
23.55
23.30
22.32
20.74
18.84
16.91
15.12
13.42
11.63
9.55
7.07
4.32
1.60
-0.79
-2.69
-4.22
-5.69
-7.48
-9.88
-12.98
-16.77
-21.05
-25.58
-29.93
-33.51
-35.53
-35.27
-32.26
-26.63
-19.11
-10.92
-3.35
2.62
6.66
9.00
10.25
11.03
11.70
12.27
12.59
12.47
11.92
11.13
10.35
9.74
9.28
8.87
8.41
7.95
7.65
7.65
7.92
8.19
8.03
7.07
5.21
2.61
-0.30
-3.08
-5.40
-7.18
-8.53
-9.75
-11.20
-13.26
-16.21
-20.06
-24.43
-28.56
-31.47
-32.24
-30.36
-25.93
-19.56
-12.25
-5.03
1.32
6.38
10.05
12.46
13.84
14.39
14.28
13.68
12.77
11.74
10.74
9.85
9.09
8.42
7.81
7.27
6.83
6.53
6.39
6.35
6.30
6.11
5.57
4.48
2.72
0.25
-2.79
-6.09
-9.37
-12.38
-15.15
-17.86
-20.79
-24.19
-28.08
-32.31
-36.49
-40.08
-42.44
-42.94
-41.15
-37.01
-30.85
-23.43
-15.62
-8.22
-1.77
3.54
7.73
10.91
13.23
14.79
15.74
16.30
16.71
17.15
17.74
18.41
19.04
19.49
19.68
19.57
19.17
18.47
17.43
16.02
14.32
12.42
10.49
8.56
6.54
4.19
1.36
-1.95
-5.48
-8.81
-11.64
-13.90
-15.86
-17.97
-20.63
-24.01
-28.00
-32.17
-35.93
-38.66
-39.74
-38.80
-35.69
-30.60
-24.06
-16.80
-9.58
-3.05
2.41
6.73
10.10
12.80
15.04
16.89
18.23
19.00
19.17
18.94
18.60
18.43
18.54
18.84
19.13
19.24
19.13
18.89
18.66
18.51
18.33
17.86
16.84
15.02
12.33
8.97
5.31
1.81
-1.18
-3.61
-5.79
-8.14
-11.10
-14.86
-19.31
-24.06
-28.62
-32.42
-34.88
-35.45
-33.74
-29.65
-23.52
-16.12
-8.45
-1.47
4.23
8.46
11.37
13.24
14.29
14.65
14.39
13.67
12.73
11.83
11.18
10.90
10.97
11.34
11.98
12.86
13.91
14.95
15.73
15.93
15.31
13.74
11.26
8.11
4.56
0.96
-2.46
-5.54
-8.28
-10.85
-13.50
-16.51
-20.02
-23.92
-27.73
-30.74
-32.09
-31.11
-27.52
-21.59
-14.11
-6.13
1.28
7.32
11.64
14.32
15.64
15.98
15.66
14.88
13.77
12.45
11.09
9.85
8.91
8.40
8.35
8.70
9.34
10.03
10.52
10.49
9.71
8.03
5.41
1.97
-2.07
-6.42
-10.74
-14.79
-18.42
-21.73
-24.93
-28.30
-32.02
-35.97
-39.66
-42.28
-43.00
-41.21
-36.81
-30.23
-22.36
-14.21
-6.60
0.04
5.60
10.16
13.85
16.74
18.85
20.20
20.90
21.15
21.18
21.23
21.41
21.73
22.11
22.40
22.52
22.45
22.28
22.08
21.80
21.19
19.83
17.34
13.60
8.88
3.68
-1.38
-5.91
-9.81
-13.28
-16.67
-20.38
-24.61
-29.31
-34.15
-38.49
-41.50
-42.39
-40.62
-36.13
-29.41
-21.39
-13.08
-5.36
1.26
6.67
11.11
14.91
18.37
21.59
24.46
26.82
28.45
29.30
29.44
29.12
28.62
28.16
27.90
27.88
28.13
28.58
29.06
29.33
29.04
27.93
25.88
23.07
19.84
16.65
13.85
11.57
9.69
7.94
6.04
3.84
1.29
-1.55
-4.59
-7.71
-10.88
-14.20
-17.92
-22.31
-27.48
-33.18
-38.64
-42.76
-44.46
-43.03
-38.49
-31.55
-23.37
-15.11
-7.56
-1.05
4.41
8.96
12.68
15.56
17.58
18.78
19.34
19.59
19.89
20.46
21.36
22.48
23.55
24.36
24.77
24.84
24.70
24.46
24.11
23.51
22.50
20.97
18.97
16.65
14.22
11.72
9.11
6.30
3.24
0.02
-3.18
-6.20
-9.03
-11.83
-14.89
-18.46
-22.57
-26.92
-30.82
-33.34
-33.60
-31.07
-25.81
-18.52
-10.36
-2.50
4.19
9.34
13.01
15.48
16.97
17.54
17.17
15.94
14.15
12.29
10.89
10.32
10.62
11.54
12.73
13.86
14.73
15.29
15.50
15.24
14.37
12.71
10.23
7.06
3.53
0.03
-3.07
-5.60
-7.64
-9.44
-11.41
-13.98
-17.47
-22.00
-27.49
-33.44
-39.08
-43.39
-45.38
-44.31
-40.01
-32.93
-24.06
-14.66
-5.93
1.26
6.56
10.14
12.46
14.17
15.70
17.23
18.64
19.66
20.10
20.07
19.95
20.12
20.88
22.17
23.57
24.63
25.02
24.69
23.77
22.49
20.94
19.06
16.75
13.95
10.72
7.24
3.67
0.07
-3.60
-7.43
-11.52
-15.84
-20.30
-24.76
-29.16
-33.46
-37.67
-41.61
-44.81
-46.58
-46.16
-43.13
-37.54
-30.07
-21.75
-13.62
-6.34
-0.13
5.16
9.75
13.70
16.95
19.40
21.03
22.01
22.55
22.76
22.64
22.21
21.54
20.86
20.46
20.49
20.92
21.51
22.00
22.19
21.96
21.19
19.72
17.42
14.21
10.29
6.02
1.93
-1.57
-4.29
-6.32
-7.90
-9.33
-10.93
-13.02
-15.96
-20.05
-25.31
-31.39
-37.45
-42.33
-44.90
-44.44
-40.92
-34.99
-27.71
-20.19
-13.24
-7.24
-2.23
1.96
5.51
8.54
11.14
13.29
15.02
16.29
17.11
17.53
17.67
17.74
17.96
18.44
19.22
20.19
21.20
22.13
22.87
23.32
23.44
23.08
22.12
20.47
18.17
15.33
12.16
8.84
5.49
2.16
-1.21
-4.61
-8.00
-11.36
-14.77
-18.48
-22.82
-27.95
-33.61
-38.96
-42.78
-43.82
-41.42
-35.71
-27.64
-18.57
-9.84
-2.32
3.66
8.14
11.36
13.49
14.73
15.27
15.35
15.28
15.27
15.37
15.51
15.55
15.41
15.13
14.88
14.83
15.10
15.64
16.22
16.51
16.13
14.82
12.51
9.29
5.47
1.42
-2.49
-6.01
-9.04
-11.71
-14.35
-17.35
-21.04
-25.43
-29.98
-33.76
-35.60
-34.55
-30.31
-23.31
-14.61
-5.59
2.52
8.85
13.05
15.23
15.80
15.32
14.30
13.16
12.13
11.34
10.84
10.67
10.80
11.13
11.54
11.83
11.86
11.62
11.14
10.56
9.91
9.07
7.80
5.83
3.01
-0.55
-4.47
-8.28
-11.56
-14.22
-16.47
-18.83
-21.82
-25.70
-30.28
-34.98
-38.93
-41.19
-41.04
-38.09
-32.48
-24.87
-16.28
-7.80
-0.34
5.65
10.18
13.51
16.01
17.88
19.11
19.67
19.56
19.01
18.35
17.97
18.05
18.62
19.47
20.40
21.18
21.69
21.87
21.74
21.28
20.47
19.19
17.29
14.66
11.35
7.61
3.81
0.38
-2.45
-4.70
-6.70
-8.87
-11.57
-14.98
-19.06
-23.64
-28.41
-32.98
-36.78
-39.16
-39.52
-37.49
-33.13
-26.85
-19.34
-11.41
-3.78
3.01
8.60
12.90
16.03
18.27
19.95
21.28
22.31
22.96
23.21
23.14
23.03
23.20
23.81
24.79
25.82
26.60
26.90
26.76
26.34
25.86
25.33
24.55
23.20
21.03
18.00
14.34
10.48
6.77
3.43
0.34
-2.80
-6.26
-10.20
-14.59
-19.25
-24.03
-28.88
-33.80
-38.71
-43.41
-47.45
-50.18
-50.88
-49.02
-44.46
-37.58
-29.23
-20.49
-12.31
-5.25
0.56
5.29
9.18
12.32
14.69
16.20
16.94
17.15
17.18
17.35
17.82
18.55
19.42
20.22
20.79
21.02
20.87
20.43
19.84
19.24
18.62
17.84
16.64
14.87
12.50
9.66
6.60
3.49
0.40
-2.63
-5.66
-8.80
-12.23
-16.18
-20.73
-25.66
-30.26
-33.54
-34.53
-32.69
-28.17
-21.73
-14.44
-7.31
-1.02
4.08
7.90
10.51
12.05
12.70
12.73
12.41
11.98
11.66
11.56
11.75
12.20
12.84
13.56
14.22
14.69
14.86
14.77
14.40
13.79
12.88
11.56
9.66
7.14
4.11
0.82
-2.38
-5.18
-7.60
-9.89
-12.53
-16.04
-20.73
-26.51
-32.82
-38.69
-42.99
-44.68
-43.13
-38.38
-31.11
-22.44
-13.60
-5.63
0.88
5.78
9.22
11.48
12.85
13.62
14.06
14.40
14.83
15.42
16.13
16.83
17.43
17.84
18.06
18.18
18.21
18.15
17.96
17.55
16.87
15.97
14.86
13.55
11.94
9.90
7.31
4.19
0.81
-2.46
-5.30
-7.67
-9.82
-12.26
-15.46
-19.64
-24.64
-30.01
-35.11
-39.28
-41.91
-42.44
-40.49
-35.96
-29.18
-20.94
-12.36
-4.52
1.82
6.46
9.64
11.81
13.44
14.77
15.91
16.89
17.77
18.66
19.64
20.66
21.59
22.23
22.44
22.25
21.86
21.57
21.57
21.85
22.10
21.89
20.76
18.47
15.09
10.92
6.39
1.89
-2.36
-6.27
-9.85
-13.14
-16.22
-19.26
-22.49
-26.15
-30.34
-34.84
-39.01
-41.90
-42.55
-40.36
-35.33
-28.10
-19.73
-11.31
-3.67
2.80
8.05
12.18
15.33
17.57
18.97
19.68
19.96
20.09
20.33
20.79
21.42
22.06
22.51
22.62
22.37
21.87
21.32
20.84
20.38
19.75
18.64
16.79
14.17
10.97
7.51
4.14
1.00
-1.90
-4.75
-7.78
-11.24
-15.25
-19.79
-24.58
-29.01
-32.30
-33.64
-32.51
-28.89
-23.22
-16.34
-9.12
-2.27
3.80
8.85
12.83
15.68
17.40
18.08
17.88
17.06
15.84
14.39
12.85
11.38
10.14
9.29
8.94
9.05
9.45
9.86
9.91
9.28
7.76
5.26
1.88
-2.19
-6.66
-11.27
-15.83
