1625051291.00
64.000000
-0.00
-0.00
-0.00
-0.00
-0.00
-0.00
-0.00
-0.00
-0.00
-0.00
0.00
0.01
0.01
-0.00
-0.03
-0.05
-0.05
0.00
0.13
0.36
0.66
1.01
1.37
1.72
2.06
2.40
2.79
3.24
3.80
4.42
5.06
5.66
6.20
6.68
7.15
7.68
8.31
9.14
10.09
11.04
11.88
12.56
13.14
13.76
14.65
15.96
17.91
20.32
22.90
25.38
27.58
29.57
31.68
34.32
37.81
42.54
48.15
54.10
59.83
64.97
69.58
74.14
79.34
85.71
93.76
103.00
112.62
121.73
129.77
136.75
143.30
150.75
157.77
166.64
177.95
191.79
206.97
220.57
228.25
225.36
208.53
176.87
132.76
80.05
23.07
-34.94
-92.44
-149.16
-205.23
-260.37
-313.74
-363.87
-409.83
-450.91
-486.50
-515.74
-537.23
-549.22
-549.96
-538.37
-514.21
-478.67
-433.88
-382.45
-327.02
-269.84
-212.63
-156.66
-102.95
-52.37
-5.90
35.58
71.43
101.35
125.50
144.38
158.69
169.15
176.37
180.75
182.57
182.06
179.50
175.23
169.66
163.20
156.18
148.83
141.28
133.60
125.84
118.07
110.36
102.80
95.46
88.36
81.51
74.90
68.54
62.45
56.66
51.21
46.14
41.42
37.01
32.87
28.95
25.23
21.75
18.55
15.71
13.26
11.16
9.31
7.59
5.87
4.13
2.43
0.92
-0.25
-1.00
-1.39
-1.64
-2.03
-2.78
-3.93
-5.34
-6.66
-7.59
-7.93
-7.77
-7.47
-7.49
-8.18
-9.61
-11.50
-13.36
-14.70
-15.26
-15.13
-14.70
-14.44
-14.75
-15.91
-18.10
-21.30
-25.10
-28.43
-29.67
-27.15
-19.89
-8.40
5.29
18.26
27.92
32.97
33.84
32.07
29.43
27.05
25.11
23.22
21.02
18.56
16.28
14.67
13.95
13.83
13.81
13.32
12.14
10.48
8.76
7.41
6.60
6.11
5.52
4.53
3.21
2.12
2.03
3.52
6.65
10.88
15.32
19.06
21.61
22.96
23.55
23.95
24.59
25.54
26.67
27.53
27.67
26.71
24.51
21.16
16.98
12.50
8.03
3.82
0.05
-3.25
-6.05
-8.42
-10.41
-12.12
-13.69
-15.22
-16.69
-18.03
-19.07
-19.72
-19.93
-19.75
-19.25
-18.51
-17.60
-16.58
-15.49
-14.43
-13.44
-12.58
-11.83
-11.18
-10.62
-10.24
-10.03
-10.03
-10.21
-10.50
-10.80
-10.95
-10.86
-10.48
-9.90
-9.22
-8.60
-8.23
-8.24
-8.73
-9.66
-10.92
-12.13
-12.84
-12.45
-10.63
-7.46
-3.49
0.46
3.64
5.66
6.61
6.93
7.22
7.91
9.13
10.81
12.74
14.74
16.63
18.36
19.34
19.36
18.50
17.05
15.52
14.29
13.62
13.53
13.87
14.37
14.86
15.16
15.12
14.65
13.77
12.64
11.50
10.56
9.89
9.47
9.15
8.71
8.01
7.00
5.68
4.16
2.53
0.85
-0.82
-2.45
-4.13
-5.94
-7.91
-10.04
-12.21
-14.24
-16.01
-17.47
-18.73
-20.02
-21.67
-23.99
-27.14
-31.01
-35.12
-38.69
-40.82
-40.75
-38.16
-33.29
-26.82
-19.63
-12.52
-5.99
-0.13
5.22
10.36
15.49
20.59
25.42
29.55
32.56
34.12
34.23
33.21
31.68
30.36
29.86
30.41
31.81
33.45
34.53
34.41
32.85
30.06
26.63
23.24
20.41
18.36
16.97
16.00
15.17
14.27
13.11
11.45
9.06
5.82
2.00
-1.79
-4.73
-6.28
-6.47
-6.02
-6.02
-7.34
-10.23
-14.21
-18.50
-22.54
-26.35
-30.46
-35.43
-41.21
-46.92
-51.04
-52.04
-49.09
-42.34
-32.91
-22.34
-12.14
-3.33
3.65
8.76
12.17
14.07
14.66
14.18
12.95
11.41
10.05
9.26
9.22
9.86
10.84
11.72
12.03
11.47
9.96
7.67
4.93
2.14
-0.42
-2.67
-4.84
-7.39
-10.89
-15.79
-22.17
-29.60
-37.30
-44.39
-50.35
-55.29
-60.03
-65.84
-74.04
-85.54
-100.57
-118.65
-138.74
-159.34
-178.64
-194.78
-206.05
-211.38
-210.50
-203.91
-192.34
-176.12
-154.67
-126.68
-90.95
-47.56
1.32
51.49
97.91
136.34
164.58
182.85
192.94
197.06
196.85
193.21
186.78
178.49
169.81
162.38
157.33
154.70
153.54
152.38
150.06
146.15
141.10
135.88
131.51
128.63
127.14
126.26
124.76
121.47
115.83
108.26
99.96
92.17
85.49
79.48
73.02
65.17
55.79
45.44
34.87
24.38
13.92
3.57
-6.06
-14.08
-20.17
-25.35
-31.81
-41.66
-55.39
-71.17
-85.58
-95.49
-99.71
-99.53
-97.67
-96.53
-96.97
-98.21
-98.75
-97.46
-94.18
-89.48
-84.10
-78.53
-72.69
-66.24
-58.79
-50.30
-41.14
-32.05
-23.85
-17.12
-11.93
-7.93
-4.53
-1.33
1.71
4.26
5.95
6.62
6.52
6.16
6.14
6.80
8.16
9.93
11.72
13.16
14.06
14.38
14.17
13.53
12.54
11.28
9.77
8.02
6.02
3.72
1.12
-1.69
-4.46
-6.86
-8.57
-9.46
-9.76
-10.06
-11.10
-13.46
-17.19
-21.82
-26.54
-30.72
-34.36
-38.17
-43.20
-50.18
-58.98
-68.61
-77.67
-85.07
-90.30
-93.22
-93.43
-90.02
-81.89
-68.68
-51.53
-33.08
-16.25
-2.78
7.74
17.44
28.59
41.89
55.77
67.30
73.92
74.98
72.06
67.85
64.61
63.00
62.11
60.43
56.96
51.85
46.16
41.10
37.30
34.55
32.06
28.91
24.54
18.96
12.75
6.77
1.88
-1.44
-3.28
-4.28
-5.37
-7.29
-10.31
-14.09
-17.95
-21.35
-24.22
-27.04
-30.55
-35.31
-41.44
-48.52
-55.75
-62.25
-67.19
-69.98
-70.27
-68.03
-63.57
-57.45
-50.42
-43.13
-36.02
-29.25
-22.73
-16.28
-9.71
-2.99
3.73
10.12
15.80
20.45
23.98
26.53
28.53
30.50
32.92
36.06
39.88
44.05
47.98
51.03
52.68
52.69
51.13
48.33
44.74
40.78
36.69
32.64
28.71
25.02
21.64
18.57
15.66
12.64
9.24
5.27
0.74
-4.19
-9.24
-14.22
-19.02
-23.59
-27.87
-31.73
-35.06
-37.98
-40.99
-44.83
-50.20
-57.27
-65.38
-73.09
-78.59
-80.36
-77.64
-70.60
-60.14
-47.45
-33.69
-19.77
-6.43
5.70
16.07
24.26
30.18
34.10
36.60
38.41
40.12
41.99
43.92
45.55
46.53
46.74
46.35
45.79
45.45
45.56
46.00
46.41
46.43
45.85
44.71
43.19
41.48
39.61
37.50
34.96
31.92
28.45
24.81
21.35
18.33
15.89
13.92
12.12
10.15
7.68
4.59
0.94
-3.02
-6.97
-10.64
-13.87
-16.64
-19.10
-21.50
-24.17
-27.41
-31.32
-35.67
-39.83
-42.90
-43.96
-42.41
-38.22
-31.95
-24.54
-16.98
-10.03
-3.97
1.27
6.00
10.50
14.88
19.06
22.80
25.88
28.18
29.69
30.55
30.96
31.12
31.23
31.38
31.64
31.99
32.36
32.60
32.56
32.14
31.28
30.03
28.53
26.88
25.17
23.42
21.58
19.58
17.37
14.94
12.32
9.62
6.95
4.39
1.99
-0.29
-2.57
-4.97
-7.61
-10.54
-13.72
-17.02
-20.29
-23.38
-26.24
-28.93
-31.65
-34.73
-38.40
-42.66
-47.07
-50.80
-52.80
-52.25
-48.82
-42.85
-35.21
-26.96
-18.96
-11.69
-5.21
0.65
6.03
10.91
15.09
18.32
20.45
21.58
22.00
22.17
22.47
23.12
24.04
24.99
25.68
25.93
25.76
25.34
24.83
24.29
23.65
22.76
21.48
19.77
17.71
15.46
13.20
11.04
9.02
7.08
5.14
3.09
0.88
-1.48
-3.95
-6.45
-8.88
-11.19
-13.40
-15.59
-17.97
-20.78
-24.21
-28.33
-32.90
-37.33
-40.79
-42.39
-41.53
-38.07
-32.49
-25.69
-18.66
-12.23
-6.80
-2.37
1.30
4.47
7.32
9.85
12.03
13.81
15.23
16.34
17.22
17.91
18.41
18.67
18.64
18.27
17.65
16.89
16.18
15.69
15.49
15.49
15.49
15.20
14.42
13.08
11.30
9.35
7.48
5.84
4.39
2.96
1.31
-0.67
-2.98
-5.48
-7.96
-10.27
-12.35
-14.26
-16.12
-18.08
-20.26
-22.76
-25.68
-29.06
-32.82
-36.62
-39.86
-41.77
-41.68
-39.30
-34.91
-29.24
-23.27
-17.81
-13.24
-9.49
-6.21
-3.07
0.02
2.84
4.98
6.13
6.22
5.57
4.66
4.02
3.89
4.24
4.81
5.33
5.68
5.97
6.33
6.84
7.44
7.96
8.27
8.32
8.19
7.91
7.48
6.81
5.85
4.63
3.29
1.96
0.62
-0.94
-3.07
-6.13
-10.33
-15.65
-21.74
-27.88
-33.09
-36.26
-36.57
-33.72
-28.18
-21.09
-13.89
-7.83
-3.56
-0.95
0.63
2.02
3.87
6.49
9.83
13.56
17.26
20.47
22.79
23.99
24.01
23.05
21.46
19.62
17.93
16.62
15.82
15.53
15.65
15.98
16.25
16.16
15.46
14.00
11.75
8.83
5.45
1.88
-1.54
-4.52
-6.82
-8.41
-9.40
-10.14
-11.04
-12.57
-15.06
-18.68
-23.29
-28.42
-33.30
-36.98
-38.61
-37.71
-34.34
-29.05
-22.69
-16.08
-9.78
-4.03
1.13
5.75
9.75
12.99
15.30
16.68
17.24
17.28
17.08
16.80
16.46
15.96
15.21
14.20
13.04
11.93
11.09
10.70
10.80
11.29
11.87
12.11
11.60
10.05
7.47
4.17
0.68
-2.48
-5.00
-6.85
-8.30
-9.74
-11.61
-14.24
-17.83
-22.40
-27.71
-33.21
-38.16
-41.67
-42.97
-41.63
-37.72
-31.86
-25.03
-18.29
-12.42
-7.73
-3.96
-0.49
3.35
7.98
13.45
19.47
25.54
31.13
35.74
38.91
40.28
39.69
37.27
33.56
29.32
25.32
22.06
19.70
18.07
16.90
16.05
15.63
15.88
16.97
18.77
20.74
22.02
21.70
19.21
14.53
8.16
0.97
-6.15
-12.55
-17.90
-22.18
-25.50
-28.04
-30.02
-31.75
-33.53
-35.53
-37.51
-38.86
-38.80
-36.90
-33.42
-29.36
-26.04
-24.43
-24.61
-25.74
-26.38
-25.20
-21.53
-15.54
-7.97
0.34
8.78
17.12
25.28
33.00
39.69
44.52
46.78
46.09
42.65
37.02
29.90
21.90
13.58
5.66
-0.98
-5.46
-7.30
-6.86
-5.23
-3.85
-3.76
-5.23
-7.69
-10.06
-11.29
-10.73
-8.35
-4.72
-0.84
2.10
3.06
1.63
-1.84
-6.20
-10.02
-12.24
-12.59
-11.58
-10.08
-8.81
-7.99
-7.45
-6.85
-5.92
-4.56
-2.77
-0.70
1.42
3.32
4.78
5.76
6.45
7.15
7.98
8.74
8.80
7.34
3.66
-2.46
-10.51
-18.99
-25.52
-27.25
-21.69
-7.81
13.15
37.73
61.25
79.60
90.73
95.09
94.75
91.78
86.87
78.99
66.23
47.17
21.82
-8.14
-39.75
-69.57
-94.35
-111.58
-120.04
-120.09
-113.70
-103.96
-94.05
-86.11
-80.46
-75.70
-69.40
-59.27
-43.86
-22.98
2.47
30.72
59.30
85.32
106.14
120.18
127.54
129.82
129.14
126.80
122.66
115.53
104.37
89.60
73.33
58.57
47.78
41.67
39.13
38.00
36.31
33.20
29.03
24.89
21.93
20.82
21.56
23.48
25.62
27.06
27.32
26.50
25.01
23.15
20.78
17.41
12.78
7.27
2.05
-1.47
-2.30
-0.58
2.48
5.09
5.63
3.37
-1.35
-7.41
-13.41
-18.26
-21.61
-23.78
-25.53
-27.64
-30.59
-34.46
-39.11
-44.39
-50.18
-56.36
-62.57
-68.07
-71.99
-73.67
-73.01
-70.62
-67.46
-64.37
-61.54
-58.52
-54.49
-48.87
-41.79
-34.14
-27.28
-22.51
-20.55
-21.33
-24.18
-28.11
-32.05
-35.00
-36.03
-34.44
-30.16
-23.96
-17.34
-12.10
-9.48
-9.67
-11.69
-13.96
-15.15
-14.85
-13.72
-12.98
-13.70
-16.13
-19.58
-22.76
-24.43
-23.90
-21.25
-17.07
-12.16
-7.05
-1.86
3.57
9.33
15.25
20.81
25.32
28.24
29.38
28.94
27.43
25.45
23.52
21.98
20.93
20.27
19.77
19.21
18.50
17.67
16.84
16.05
15.22
14.22
12.91
11.26
9.38
7.41
5.44
3.50
1.54
-0.49
-2.61
-4.83
-7.16
-9.65
-12.39
-15.49
-19.05
-23.14
-27.77
-32.73
-37.55
-41.41
-43.42
-42.86
-39.57
-34.02
-27.16
-20.03
-13.38
-7.49
-2.21
2.75
7.52
12.00
15.85
18.69
20.38
21.03
20.98
20.68
20.52
20.64
21.01
21.42
21.64
21.56
21.17
20.59
19.87
19.01
17.87
16.26
14.03
11.19
7.89
4.42
1.05
-2.04
-4.80
-7.36
-9.93
-12.67
-15.68
-18.99
-22.62
-26.63
-31.11
-35.98
-40.83
-44.86
-47.09
-46.70
-43.42
-37.65
-30.35
-22.63
-15.35
-8.87
-3.12
2.17
7.23
12.08
16.57
20.43
23.44
25.50
26.63
27.01
26.89
26.53
26.19
25.98
25.90
25.87
25.79
25.57
25.15
24.45
23.37
21.76
19.53
16.65
13.29
9.80
6.59
3.97
1.93
0.14
-1.99
-4.98
-9.04
-13.86
-18.76
-22.89
-25.68
-27.02
-27.33
-27.35
-27.93
-29.75
-33.14
-38.02
-43.81
-49.52
-53.87
-55.68
-54.22
-49.50
-42.31
-33.89
-25.55
-18.10
-11.76
-6.12
-0.52
5.62
12.49
19.89
27.24
33.87
39.20
42.90
44.95
45.57
45.18
44.16
42.90
41.71
40.84
40.49
40.72
41.46
42.41
43.11
43.09
41.97
39.62
36.22
32.25
28.29
24.87
22.34
20.70
19.70
18.92
17.97
16.55
14.52
11.83
8.54
4.80
0.86
-2.97
-6.41
-9.37
-12.02
-14.73
-17.99
-22.16
-27.30
-32.97
-38.36
-42.35
-43.85
-42.20
-37.41
-30.21
-21.86
-13.71
-6.77
-1.37
2.74
6.15
9.41
12.78
16.17
19.30
21.86
23.68
24.75
25.19
25.20
24.95
24.54
24.04
23.48
22.95
22.56
22.40
22.47
22.64
22.60
22.04
20.71
18.61
15.92
13.01
10.25
7.91
6.11
4.80
3.81
2.84
1.62
-0.09
-2.35
-5.06
-7.93
-10.64
-12.99
-14.97
-16.81
-18.90
-21.66
-25.40
-30.18
-35.71
-41.38
-46.25
-49.30
-49.63
-46.85
-41.13
-33.28
-24.46
-15.81
-8.13
-1.74
3.51
7.95
11.89
15.45
18.54
21.01
22.77
23.88
24.52
24.88
25.09
25.18
25.11
24.87
24.48
24.03
23.59
23.16
22.63
21.85
20.64
18.94
16.77
14.23
11.48
8.64
5.78
2.87
-0.25
-3.69
-7.52
-11.63
-15.79
-19.73
-23.30
-26.51
-29.57
-32.79
-36.47
-40.86
-46.08
-51.98
-58.11
-63.66
-67.59
-68.93
-67.17
-62.55
-56.00
-48.85
-42.36
-37.29
-33.70
-31.11
-28.77
-26.04
-22.44
-17.66
-11.39
-3.39
6.29
17.01
27.49
36.13
41.57
43.31
41.93
38.85
35.65
33.49
32.82
33.51
35.29
38.02
41.75
46.43
51.77
57.11
61.75
65.15
67.14
67.91
67.74
66.78
64.86
61.58
56.46
49.27
40.21
30.02
19.80
10.67
3.46
-1.57
-4.80
-6.93
-8.82
-11.13
-14.29
-18.46
-23.66
-29.73
-36.25
-42.50
-47.59
-50.69
-51.29
-49.43
-45.58
-40.42
-34.54
-28.19
-21.36
-13.87
-5.69
2.99
11.70
19.83
26.74
32.00
35.44
37.21
37.70
37.40
36.78
36.19
35.75
35.49
35.28
35.02
34.59
33.96
33.08
31.95
30.51
28.73
26.62
24.25
21.80
19.52
17.58
16.02
14.69
13.33
11.69
9.68
7.36
4.90
2.47
0.20
-1.84
-3.56
-4.88
-5.78
-6.37
-6.99
-8.13
-10.18
-13.23
-16.81
-19.93
-21.30
-19.78
-14.73
-6.29
4.68
16.83
28.77
39.35
47.92
54.26
58.51
60.95
61.89
61.67
60.63
59.12
57.38
55.45
53.14
50.05
45.73
39.96
32.88
24.99
16.99
9.49
2.89
-2.72
-7.39
-11.17
-14.01
-15.72
-16.15
-15.32
-13.53
-11.31
-9.15
-7.32
-5.71
-4.02
-2.08
-0.03
1.63
2.21
1.25
-1.25
-4.85
-8.90
-12.97
-17.13
-21.86
-27.81
-35.35
-44.37
-54.33
-64.41
-73.84
-81.89
-87.98
-91.55
-92.26
-90.07
-85.41
-79.15
-72.38
-65.98
-60.35
-55.40
-50.70
-45.87
-40.82
-35.73
-30.87
-26.36
-22.04
-17.51
-12.26
-5.90
1.74
10.49
19.87
29.24
38.03
45.98
53.15
59.90
66.50
72.93
78.78
83.51
86.75
88.50
88.81
87.60
84.45
78.68
69.76
57.80
43.68
28.86
14.73
1.87
-10.06
-21.99
-34.78
-48.58
-62.58
-75.31
-85.19
-91.06
-92.80
-90.79
-85.37
-76.61
-64.48
-49.20
-31.81
-13.84
3.11
17.21
27.78
35.34
40.70
43.85
43.75
38.39
26.64
9.27
-12.74
-36.88
-59.82
-78.56
-91.39
-97.38
-96.94
-90.13
-76.93
-60.79
-46.04
-36.96
-37.12
-49.10
-72.88
-107.25
-148.12
-189.68
-229.50
-265.26
-294.10
-313.02
-320.58
-316.63
-304.69
-288.38
-248.41
-177.92
-85.17
10.32
90.07
138.02
160.40
166.00
164.28
163.84
168.68
178.92
192.38
205.32
213.00
211.82
198.01
170.79
132.83
87.00
38.92
-3.56
-32.75
-44.64
-39.64
-23.78
-4.29
13.19
24.18
27.36
24.24
17.72
10.41
4.41
0.28
-1.63
-1.26
-0.21
-0.91
-5.48
-14.77
-27.80
-41.48
-51.71
-53.69
-43.22
-18.66
17.97
60.88
101.78
132.40
147.48
146.35
133.00
114.04
95.84
82.48
75.37
74.25
78.32
86.45
96.42
104.16
104.72
94.82
75.31
51.64
31.46
20.63
20.17
26.15
32.52
34.90
32.79
28.90
26.60
27.37
30.06
32.06
31.15
26.52
18.38
7.10
-7.29
-24.89
-45.32
-67.52
-90.28
-112.78
-134.76
-156.11
-176.20
-193.65
-206.64
-213.67
-213.88
-206.87
-192.32
-169.90
-139.77
-103.48
-64.33
-26.71
4.97
27.60
39.89
42.19
36.16
24.52
10.78
-1.32
-8.70
-9.71
-4.45
5.72
18.98
33.46
47.11
57.46
61.87
58.81
49.26
37.24
28.80
29.43
41.74
64.28
92.44
120.38
142.76
155.80
157.42
147.24
126.77
99.57
70.64
45.24
27.38
18.80
19.04
26.33
38.65
54.15
71.06
87.23
100.18
107.60
108.28
102.75
93.08
82.05
71.83
63.23
55.74
48.26
40.22
32.06
24.91
19.78
16.74
14.73
12.08
7.49
0.74
-7.21
-14.83
-20.74
-24.26
-25.45
-24.82
-23.12
-21.12
-19.53
-18.84
-19.29
-20.81
-23.08
-25.62
-27.87
-29.19
-28.99
-26.87
-22.90
-17.67
-12.21
-7.62
-4.68
-3.58
-3.94
-5.09
-6.49
-7.89
-9.41
-11.41
-14.30
-18.50
-24.15
-31.10
-38.80
-46.42
-53.15
-58.56
-62.72
-66.12
-69.30
-72.47
-75.34
-77.30
-77.91
-77.20
-75.83
-74.72
-74.45
-74.89
-75.16
-74.11
-70.79
-64.95
-57.06
-47.99
-38.58
-29.43
-20.87
-13.09
-6.33
-0.70
4.06
8.80
14.69
22.49
31.71
40.51
46.48
48.10
45.81
41.99
39.45
39.61
41.44
42.04
38.50
29.95
18.43
7.78
1.67
1.75
7.30
16.23
26.52
36.88
46.35
53.60
56.83
54.30
45.30
30.54
11.86
-8.43
-28.40
-46.91
-63.79
-79.65
-95.35
-111.03
-125.31
-135.24
-137.11
-128.19
-108.34
-80.71
-50.63
-23.51
-2.73
11.45
21.39
30.48
41.65
56.05
72.38
86.92
94.61
91.06
74.85
48.82
19.39
-6.18
-22.86
-29.66
-29.05
-24.51
-18.19
-10.19
0.37
13.59
27.85
40.59
49.94
55.97
60.43
65.36
71.64
78.38
83.76
86.29
85.62
82.69
78.89
75.13
71.46
67.34
62.20
55.91
48.80
41.40
34.05
26.73
19.31
11.77
4.46
-2.09
-7.26
-10.72
-12.50
-12.87
-12.29
-11.17
-9.82
-8.34
-6.65
-4.58
-1.99
1.06
4.26
7.06
8.84
9.20
8.13
5.98
3.32
0.69
-1.59
-3.45
-5.05
-6.60
-8.28
-10.14
-12.16
-14.26
-16.42
-18.69
-21.17
-23.96
-27.05
-30.31
-33.59
-36.73
-39.66
-42.36
-44.82
-46.99
-48.87
-50.52
-52.08
-53.77
-55.69
-57.83
-60.12
-62.53
-65.10
-67.96
-71.04
-73.96
-75.97
-76.19
-73.94
-69.01
-61.71
-52.73
-42.84
-32.71
-22.78
-13.44
-5.08
1.93
7.29
10.93
13.06
14.10
14.56
14.85
15.20
15.58
15.83
15.71
15.12
14.09
12.82
11.56
10.46
9.55
8.64
7.51
5.91
3.76
1.12
-1.81
-4.77
-7.56
-10.12
-12.51
-14.91
-17.44
-20.15
-22.93
-25.69
-28.40
-31.13
-34.03
-37.22
-40.69
-44.31
-47.96
-51.60
-55.27
-58.95
-62.42
-65.19
-66.64
-66.27
-63.88
-59.69
-54.13
-47.65
-40.59
-33.05
-25.03
-16.59
-7.91
0.68
8.78
16.02
22.11
26.91
30.37
32.58
33.74
34.20
34.40
34.81
35.83
37.59
39.88
42.17
43.84
44.38
43.55
41.47
38.46
34.91
31.10
27.19
23.27
19.41
15.66
12.05
8.59
5.24
1.95
-1.40
-4.95
-8.84
-13.20
-18.02
-23.18
-28.46
-33.69
-38.82
-44.05
-49.75
-56.32
-63.99
-72.61
-81.57
-89.88
-96.35
-99.97
-100.16
-96.96
-91.01
-83.26
-74.69
-65.97
-57.39
-48.93
-40.50
-32.20
-24.39
-17.61
-12.36
-8.87
-6.90
-5.85
-4.91
-3.39
-0.84
2.90
7.83
13.92
21.21
29.67
39.11
49.12
59.07
68.20
75.75
81.05
83.51
82.65
78.27
70.70
60.97
50.69
41.66
35.29
32.14
31.86
33.52
36.11
38.94
41.70
44.17
45.95
46.39
44.97
41.67
37.19
32.71
29.37
27.67
27.32
27.38
26.83
25.04
22.01
18.29
14.62
11.61
9.61
8.75
8.95
9.91
11.08
11.70
10.83
7.59
1.55
-6.94
-16.46
-24.70
-29.16
-28.09
-21.36
-10.58
1.56
12.37
20.33
25.47
28.87
31.66
34.19
35.92
35.94
33.83
30.03
25.60
21.62
18.62
16.62
15.34
14.67
14.70
15.59
17.16
18.72
19.25
17.80
14.07
8.59
2.46
-3.17
-7.67
-11.17
-14.42
-18.33
-23.41
-29.64
-36.49
-43.25
-49.27
-54.11
-57.34
-58.44
-56.78
-51.87
-43.68
-32.81
-20.43
-7.88
3.73
13.79
22.09
28.79
34.10
38.17
41.10
42.89
43.66
43.61
43.03
42.24
41.50
40.97
40.67
40.50
40.24
39.65
38.61
37.12
35.41
33.78
32.46
31.52
30.84
30.09
28.86
26.68
23.12
17.95
11.29
3.71
-3.91
-10.66
-16.04
-20.18
-23.77
-27.68
-32.42
-37.86
-43.19
-47.37
-49.56
-49.50
-47.48
-44.06
-39.78
-34.86
-29.24
-22.72
-15.22
-6.90
1.73
9.99
17.23
23.06
27.45
30.68
33.14
35.19
36.90
38.17
38.82
38.80
38.33
37.84
37.74
38.16
38.85
39.29
38.94
37.53
35.23
32.44
29.65
27.11
24.80
22.49
19.89
16.85
13.36
9.50
5.33
0.88
-3.78
-8.57
-13.34
-17.90
-22.12
-25.97
-29.52
-32.78
-35.66
-37.92
-39.25
-39.49
-38.82
-37.78
-37.20
-37.87
-40.14
-43.62
-47.25
-49.47
-48.73
-43.92
-34.71
-21.72
-6.37
9.49
24.01
35.89
44.70
50.87
55.34
59.04
62.38
65.15
66.76
66.72
65.06
62.39
59.49
56.92
54.71
52.43
49.57
45.86
41.38
36.51
31.61
26.84
22.20
17.58
13.01
8.59
4.45
0.66
-2.74
-5.70
-8.14
-9.98
-11.25
-12.16
-13.07
-14.36
-16.25
-18.61
-21.07
-23.09
-24.24
-24.32
-23.41
-21.82
-19.95
-18.20
-16.79
-15.80
-15.10
-14.43
-13.47
-12.01
-9.99
-7.61
-5.14
-2.88
-0.99
0.58
1.94
3.23
4.47
5.59
6.50
7.15
7.60
7.97
8.35
8.80
9.30
9.79
10.15
10.31
10.20
9.82
9.24
8.60
8.05
7.63
7.27
6.78
6.01
4.94
3.73
2.63
1.83
1.33
0.95
0.45
-0.31
-1.28
-2.30
-3.18
-3.83
-4.25
-4.56
-4.87
-5.23
-5.68
-6.20
-6.81
-7.45
-8.05
-8.49
-8.73
-8.82
-8.86
-8.94
-9.07
-9.15
-9.05
-8.77
-8.39
-8.00
-7.66
-7.27
-6.70
-5.84
-4.76
-3.71
-2.97
-2.78
-3.22
-4.20
-5.51
-6.93
-8.21
-9.12
-9.49
-9.28
-8.63
-7.87
-7.39
-7.54
-8.44
-10.03
-12.08
-14.26
-16.26
-17.78
-18.69
-19.03
-19.10
-19.28
-19.92
-21.12
-22.71
-24.34
-25.68
-26.63
-27.35
-28.06
-28.86
-29.66
-30.10
-29.83
-28.55
-26.22
-23.02
-19.29
-15.48
-12.04
-9.27
-7.25
-5.75
-4.40
-2.82
-0.88
1.31
3.42
5.15
6.43
7.40
8.35
9.44
10.66
11.74
12.39
12.45
11.98
11.26
10.58
10.08
9.70
9.22
8.42
7.25
5.82
4.35
3.00
1.71
0.33
-1.39
-3.58
-6.23
-9.13
-12.02
-14.64
-16.80
-18.39
-19.43
-19.95
-20.01
-19.63
-18.77
-17.36
-15.40
-13.00
-10.37
-7.78
-5.44
-3.39
-1.52
0.34
2.31
4.43
6.64
8.88
11.18
13.61
16.20
18.82
21.15
22.79
23.38
22.81
21.32
19.45
17.81
16.86
16.70
17.06
17.44
17.37
16.60
15.18
13.44
11.76
10.44
9.55
8.98
8.44
7.70
6.60
5.11
3.32
1.38
-0.54
-2.37
-4.09
-5.70
-7.17
-8.45
-9.46
-10.15
-10.52
-10.64
-10.62
-10.56
-10.52
-10.47
-10.34
-10.05
-9.53
-8.79
-7.88
-6.90
-5.96
-5.11
-4.29
-3.46
-2.61
-1.79
-1.09
-0.53
-0.05
0.51
1.27
2.21
3.19
4.03
4.59
4.83
4.79
4.44
3.78
2.77
1.52
0.21
-0.91
-1.69
-2.21
-2.66
-3.33
-4.45
-6.14
-8.44
-11.28
-14.46
-17.69
-20.62
-22.98
-24.75
-26.17
-27.69
-29.67
-32.19
-35.10
-38.04
-40.70
-42.90
-44.56
-45.59
-45.82
-45.03
-43.10
-40.10
-36.28
-32.01
-27.52
-22.90
-17.99
-12.56
-6.48
0.20
7.12
13.77
19.66
24.47
28.15
30.91
32.98
34.56
35.69
36.38
36.65
36.56
36.13
35.25
33.71
31.28
27.98
24.16
20.32
16.97
14.37
12.42
10.80
9.18
7.38
5.39
3.26
0.97
-1.55
-4.49
-8.05
-12.35
-17.42
-23.08
-29.04
-34.88
-40.26
-44.98
-49.04
-52.54
-55.58
-58.20
-60.31
-61.82
-62.63
-62.69
-61.97
-60.38
-57.82
-54.22
-49.64
-44.27
-38.45
-32.55
-26.89
-21.69
-16.98
-12.66
-8.54
-4.41
-0.16
4.10
8.11
11.64
14.64
17.38
20.28
23.75
27.91
32.50
37.01
40.82
43.54
45.08
45.64
45.53
45.03
44.30
43.31
41.98
40.23
38.04
35.36
32.21
28.52
24.18
19.06
13.07
6.23
-1.20
-8.84
-16.26
-23.17
-29.54
-35.60
-41.46
-46.90
-51.03
-52.48
-49.81
-42.24
-30.13
-15.00
0.80
14.82
24.97
29.61
27.42
17.61
0.58
-21.12
-42.56
-57.25
-59.27
-45.67
-17.88
18.59
56.30
88.70
112.18
126.55
133.92
136.93
137.34
135.75
132.12
126.62
120.08
113.64
108.01
102.86
96.69
87.37
73.16
53.60
29.71
3.40
-23.51
-49.77
-74.74
-97.58
-116.74
-129.87
-134.64
-129.65
-115.23
-93.43
-67.45
-40.93
-17.35
0.43
10.62
13.07
9.58
3.54
-1.14
-1.59
3.02
11.40
21.21
30.34
37.75
43.36
47.40
49.89
50.49
49.02
45.83
41.82
37.96
34.80
32.21
29.63
26.57
22.93
19.07
15.51
12.60
10.42
8.77
7.35
5.94
4.42
2.71
0.76
-1.60
-4.64
-8.71
-14.12
-21.00
-29.16
-38.14
-47.31
-56.02
-63.69
-69.77
-73.75
-75.24
-74.04
-70.34
-64.68
-57.78
-50.37
-42.88
-35.47
-28.11
-20.76
-13.47
-6.48
-0.12
5.22
9.18
11.53
12.38
12.18
11.75
11.98
13.58
16.72
21.02
25.71
30.03
33.49
35.98
37.68
38.86
39.65
40.01
39.69
38.48
36.30
33.28
29.78
26.22
22.85
19.82
17.25
15.40
14.63
15.10
16.43
17.55
17.06
13.89
7.85
-0.18
-8.77
-16.68
-23.49
-29.59
-35.61
-41.64
-46.81
-49.62
-48.58
-43.07
-33.65
-21.84
-9.51
1.82
11.29
18.71
24.18
27.68
28.86
27.19
22.35
14.66
5.25
-4.09
-11.52
-15.66
-16.01
-12.99
-7.62
-1.15
5.34
11.07
15.55
18.54
19.95
19.87
18.52
16.26
13.56
10.90
8.65
7.03
6.06
5.59
5.33
4.98
4.27
3.07
1.29
-1.04
-3.94
-7.43
-11.58
-16.46
-22.09
-28.29
-34.60
-40.26
-44.34
-46.06
-45.10
-41.74
-36.75
-31.05
-25.35
-19.90
-14.59
-9.17
-3.51
2.29
7.93
13.04
17.29
20.42
22.34
23.13
23.08
22.61
22.13
21.93
22.03
22.31
22.56
22.59
22.23
21.35
19.85
17.71
15.08
12.31
9.81
7.85
6.42
5.21
3.78
1.71
-1.13
-4.70
-8.67
-12.74
-16.67
-20.40
-24.09
-28.04
-32.56
-37.85
-43.85
-50.11
-55.91
-60.33
-62.54
-61.99
-58.61
-52.73
-45.03
-36.33
-27.37
-18.73
-10.78
-3.65
2.64
8.14
12.95
17.17
20.83
23.92
26.38
28.19
29.38
30.14
30.66
31.15
31.67
32.15
32.47
32.49
32.14
31.42
30.34
28.92
27.15
25.01
22.56
19.84
16.88
13.64
10.06
6.10
1.83
-2.59
-6.95
-11.10
-14.96
-18.59
-22.15
-25.90
-30.23
-35.50
-41.88
-49.08
-56.29
-62.29
-65.79
-65.87
-62.36
-55.83
-47.32
-37.96
-28.60
-19.63
-11.09
-2.83
5.26
13.17
20.69
27.52
33.31
37.82
40.95
42.85
43.76
44.02
43.90
43.60
43.27
42.98
42.82
42.82
42.94
43.03
42.80
41.92
40.13
37.32
33.64
29.43
25.13
21.14
17.65
14.62
11.81
8.92
5.61
1.70
-2.94
-8.29
-14.18
-20.33
-26.38
-31.98
-36.98
-41.50
-45.98
-51.01
-57.12
-64.50
-72.82
-81.15
-88.11
-92.18
-92.18
-87.73
-79.36
-68.44
-56.62
-45.31
-35.18
-26.14
-17.60
-8.85
0.52
10.57
20.93
31.09
40.47
48.60
55.12
59.84
62.78
64.12
64.23
63.52
62.43
61.33
60.57
60.32
60.60
61.23
61.89
62.21
61.85
60.70
58.77
56.23
53.26
50.00
46.48
42.76
38.90
35.02
31.26
27.73
24.37
21.05
17.55
13.73
9.54
5.08
0.55
-3.89
-8.18
-12.36
-16.61
-21.16
-26.24
-32.00
-38.35
-44.87
-50.75
-54.99
-56.61
-55.06
-50.40
-43.31
-34.84
-26.05
-17.67
-9.91
-2.65
4.37
11.27
17.92
23.96
29.00
32.76
35.19
36.47
36.93
36.88
36.59
36.17
35.68
35.19
34.77
34.47
34.29
34.11
33.69
32.80
31.35
29.40
27.16
24.90
22.77
20.77
18.80
16.70
14.41
11.93
9.38
6.83
4.28
1.68
-1.06
-3.99
-7.14
-10.48
-13.96
-17.52
-21.08
-24.57
-27.97
-31.36
-35.00
-39.13
-43.87
-49.01
-53.92
-57.66
-59.35
-58.42
-54.87
-49.17
-42.10
-34.36
-26.45
-18.59
-10.80
-3.15
4.21
10.97
16.82
21.51
24.96
27.28
28.67
29.44
29.88
30.21
30.55
30.97
31.44
31.90
32.32
32.71
33.07
33.35
33.43
33.08
32.11
30.44
28.16
25.57
22.97
20.60
18.53
16.61
14.69
12.60
10.33
7.93
5.48
3.04
0.61
-1.83
-4.28
-6.78
-9.40
-12.21
-15.31
-18.73
-22.33
-25.90
-29.19
-32.07
-34.65
-37.27
-40.41
-44.50
-49.72
-55.77
-61.88
-66.98
-69.97
-70.11
-67.24
-61.82
-54.76
-47.06
-39.52
-32.55
-26.18
-20.20
-14.40
-8.70
-3.22
1.77
5.94
9.03
10.94
11.75
11.67
10.98
9.91
8.58
7.07
5.38
3.54
1.57
-0.55
-2.87
-5.54
-8.68
-12.34
-16.47
-20.88
-25.36
-29.69
-33.82
-37.81
-41.87
-46.26
-51.27
-57.05
-63.64
-70.90
-78.46
-85.74
-91.90
-95.98
-97.03
-94.42
-88.01
-78.23
-65.91
-52.00
-37.25
-22.18
-7.08
7.76
21.93
34.98
46.52
56.48
65.10
72.88
80.29
87.65
95.02
102.25
109.12
115.35
120.61
124.52
126.68
126.89
125.27
122.33
118.85
115.55
112.80
110.44
107.87
104.29
99.00
91.77
82.96
73.51
64.73
57.87
53.68
52.20
52.79
54.49
56.39
57.93
58.88
59.13
58.44
56.44
52.82
47.53
40.89
33.51
26.07
19.09
12.90
7.61
3.18
-0.61
-4.13
-7.85
-12.17
-17.24
-22.85
-28.49
-33.62
-37.89
-41.33
-44.27
-47.15
-50.18
-53.28
-56.11
-58.41
-60.22
-61.98
-64.25
-67.29
-70.73
-73.54
-74.50
-72.73
-68.24
-61.93
-55.24
-49.52
-45.48
-43.02
-41.47
-40.05
-38.26
-36.11
-34.02
-32.55
-32.10
-32.72
-34.18
-36.09
-38.11
-40.12
-42.16
-44.34
-46.68
-48.98
-50.80
-51.56
-50.68
-47.77
-42.76
-36.04
-28.41
-20.90
-14.59
-10.14
-7.63
-6.69
-6.71
-6.99
-6.73
-5.08
-1.45
3.92
9.63
13.31
12.61
6.35
-4.79
-18.52
-32.08
-43.56
-52.50
-59.58
-65.67
-71.04
-75.27
-77.93
-79.20
-79.98
-81.26
-83.42
-85.84
-87.35
-86.76
-83.41
-77.35
-69.20
-59.77
-50.05
-40.99
-33.45
-28.04
-24.84
-23.45
-22.99
-22.28
-20.03
-14.98
-6.16
6.98
24.32
45.00
67.43
89.58
109.28
124.64
134.37
138.06
136.26
130.34
122.10
113.21
104.70
96.79
89.00
80.77
71.85
62.45
53.12
44.39
36.56
29.71
23.91
19.28
16.03
14.20
13.54
13.41
12.99
11.60
8.92
5.12
0.72
-3.60
-7.31
-10.19
-12.39
-14.43
-16.93
-20.45
-25.10
-30.40
-35.33
-38.56
-38.96
-36.00
-30.00
-21.95
-13.11
-4.56
3.13
9.94
16.20
22.31
28.55
34.98
41.41
47.45
52.53
55.98
57.24
55.99
52.26
46.44
39.13
30.99
22.62
14.40
6.50
-1.14
-8.75
-16.59
-24.75
-32.97
-40.60
-46.73
-50.52
-51.52
-49.88
-46.26
-41.61
-36.87
-32.66
-29.27
-26.74
-24.96
-23.87
-23.47
-23.75
-24.63
-25.91
-27.37
-28.87
-30.50
-32.56
-35.47
-39.50
-44.57
-50.05
-54.94
-58.07
-58.52
-55.94
-50.63
-43.38
-35.20
-26.92
-19.07
-11.74
-4.80
1.91
8.41
14.51
19.90
24.31
27.61
29.97
31.78
33.53
35.69
38.45
41.70
45.07
48.06
50.26
51.45
51.61
50.88
49.44
47.40
44.89
42.01
38.87
35.57
32.16
28.56
24.68
20.42
15.84
11.14
6.57
2.35
-1.49
-5.12
-8.81
-12.88
-17.55
-22.89
-28.73
-34.65
-39.98
-43.83
-45.37
-44.07
-39.98
-33.73
-26.41
-19.07
-12.41
-6.54
-1.06
4.61
10.89
17.84
25.06
31.88
37.64
41.88
44.52
45.82
46.18
45.95
45.32
44.27
42.79
40.99
39.13
37.57
36.51
35.87
35.28
34.36
32.85
30.79
28.42
26.04
23.77
21.53
19.10
16.32
13.16
9.73
6.26
2.93
-0.21
-3.26
-6.51
-10.40
-15.39
-21.70
-29.14
-36.99
-44.11
-49.25
-51.49
-50.50
-46.64
-40.68
-33.57
-26.03
-18.49
-11.02
-3.60
3.75
10.83
17.31
22.78
26.96
29.74
31.23
31.74
31.64
31.25
30.79
30.35
29.90
29.37
28.68
27.80
26.72
25.43
23.93
22.17
20.09
17.64
14.83
11.72
8.43
5.09
1.86
-1.18
-4.00
-6.65
-9.26
-12.02
-15.14
-18.83
-23.15
-27.96
-32.86
-37.19
-40.24
-41.38
-40.32
-37.18
-32.44
-26.76
-20.77
-14.86
-9.15
-3.60
1.86
7.18
12.13
16.39
19.66
21.78
22.82
23.03
22.74
22.29
21.88
21.61
21.42
21.21
20.87
20.31
19.47
18.32
16.89
15.22
13.35
11.32
9.16
6.85
4.38
1.76
-0.94
-3.64
-6.27
-8.84
-11.47
-14.32
-17.60
-21.42
-25.77
-30.43
-34.99
-38.96
-41.77
-43.05
-42.56
-40.37
-36.71
-31.96
-26.57
-20.90
-15.22
-9.68
-4.27
1.04
6.27
11.33
16.00
19.94
22.85
24.60
25.28
25.26
24.97
24.76
24.79
24.98
25.12
25.02
24.60
23.92
23.07
22.09
20.93
19.50
17.74
15.71
13.58
11.50
9.50
7.46
5.15
2.43
-0.66
-3.87
-6.92
-9.63
-12.04
-14.41
-17.06
-20.21
-23.85
-27.80
-31.76
-35.51
-38.98
-42.24
-45.46
-48.94
-52.87
-57.34
-62.10
-66.55
-69.74
-70.64
-68.49
-63.04
-54.71
-44.35
-33.01
-21.55
-10.50
-0.07
9.64
18.62
26.83
34.28
40.98
46.97
52.20
56.58
60.02
62.52
64.24
65.44
66.31
66.90
67.06
66.53
65.06
62.56
59.14
55.06
50.65
46.23
41.98
37.97
34.12
30.21
25.91
20.83
14.59
6.88
-2.31
-12.59
-23.21
-33.09
-41.20
-46.84
-49.90
-50.80
-50.36
-49.42
-48.59
-48.20
-48.31
-48.90
-49.86
-50.92
-51.62
-51.37
-49.71
-46.57
-42.42
-38.10
-34.38
-31.57
-29.28
-26.58
-22.50
-16.44
-8.42
0.95
10.82
20.35
28.96
36.34
42.44
47.34
51.16
53.94
55.64
56.08
55.04
52.48
48.54
43.62
38.17
32.60
27.16
21.95
17.03
12.55
8.72
5.79
3.91
2.98
2.63
2.35
1.62
0.17
-1.90
-4.15
-6.06
-7.24
-7.74
-7.96
-8.46
-9.67
-11.66
-14.16
-16.70
-18.92
-20.71
-22.21
-23.66
-25.30
-27.24
-29.51
-32.10
-34.96
-37.97
-40.82
-43.00
-43.94
-43.18
-40.62
-36.56
-31.62
-26.47
-21.56
-16.99
-12.61
-8.20
-3.74
0.52
4.16
6.78
8.18
8.49
8.13
7.55
7.10
6.89
6.82
6.65
6.15
5.24
3.97
2.52
1.16
0.19
-0.08
0.62
2.39
5.13
8.51
12.04
15.27
17.85
19.64
20.59
20.69
19.89
18.12
15.38
11.82
7.72
3.40
-0.85
-4.92
-8.84
-12.71
-16.61
-20.55
-24.46
-28.23
-31.73
-34.76
-37.06
-38.35
-38.35
-36.95
-34.17
-30.23
-25.39
-19.87
-13.79
-7.16
-0.01
7.53
15.15
22.40
28.71
33.53
36.47
37.35
36.26
33.59
29.91
25.89
22.16
19.16
17.11
16.02
15.71
15.94
16.45
16.97
17.28
17.20
16.65
15.64
14.29
12.82
11.47
10.38
9.57
8.87
8.05
6.86
5.18
3.08
0.78
-1.40
-3.22
-4.64
-5.79
-6.96
-8.43
-10.38
-12.77
-15.42
-18.10
-20.65
-23.01
-25.27
-27.56
-30.06
-32.92
-36.21
-39.85
-43.49
-46.55
-48.31
-48.18
-45.94
-41.83
-36.48
-30.61
-24.77
-19.21
-13.89
-8.69
-3.59
1.30
5.77
9.62
12.73
15.11
16.84
17.99
18.67
19.00
19.12
19.18
19.29
19.49
19.74
19.95
20.01
19.87
19.47
18.82
17.89
16.65
15.10
13.28
11.30
9.35
7.62
6.21
5.14
4.27
3.35
2.19
0.66
-1.21
-3.29
-5.41
-7.51
-9.62
-11.92
-14.59
-17.76
-21.48
-25.67
-30.19
-34.74
-38.89
-42.04
-43.60
-43.11
-40.46
-35.96
-30.23
-24.02
-17.95
-12.35
-7.27
-2.59
1.82
5.99
9.82
13.13
15.78
17.73
18.99
19.70
19.91
19.69
19.08
18.19
17.26
16.59
16.48
17.00
17.97
18.96
19.50
19.23
18.12
16.37
14.32
12.25
10.29
8.39
6.40
4.21
1.75
-0.92
-3.72
-6.55
-9.35
-12.08
-14.79
-17.60
-20.67
-24.17
-28.23
-32.75
-37.40
-41.58
-44.53
-45.58
-44.36
-40.90
-35.61
-29.15
-22.20
-15.30
-8.78
-2.80
2.58
7.37
11.59
15.31
18.59
21.45
23.87
25.80
27.20
28.08
28.51
28.58
28.38
27.99
27.52
27.08
26.76
26.57
26.37
25.90
24.89
23.22
20.94
18.27
15.51
12.86
10.42
8.13
5.83
3.34
0.54
-2.63
-6.12
-9.76
-13.34
-16.67
-19.64
-22.34
-25.01
-28.05
-31.81
-36.44
-41.74
-47.10
-51.61
-54.27
-54.36
-51.62
-46.41
-39.50
-31.86
-24.25
-17.09
-10.42
-4.03
2.28
8.58
14.72
20.44
25.44
29.54
32.70
35.00
36.60
37.61
38.17
38.36
38.30
38.10
37.90
37.79
37.77
37.75
37.60
37.14
36.21
34.76
32.80
30.48
28.03
25.67
23.52
21.53
19.50
17.16
14.28
10.77
6.74
2.41
-1.92
-6.06
-9.89
-13.45
-16.86
-20.27
-23.90
-27.97
-32.62
-37.82
-43.23
-48.19
-51.83
-53.32
-52.17
-48.43
-42.66
-35.73
-28.50
-21.52
-14.95
-8.66
-2.42
3.80
9.84
15.37
20.00
23.49
25.82
27.17
27.82
28.00
27.88
27.51
26.93
26.27
25.73
25.53
25.81
26.52
27.38
28.04
28.16
27.53
26.12
24.05
21.46
18.51
15.36
12.10
8.82
5.56
2.27
-1.10
-4.62
-8.29
-12.02
-15.70
-19.26
-22.74
-26.28
-30.08
-34.31
-39.05
-44.20
-49.43
-54.18
-57.70
-59.21
-58.14
-54.42
-48.58
-41.66
-34.91
-29.38
-25.52
-23.02
-21.00
-18.35
-14.15
-8.05
-0.32
8.35
17.17
25.51
33.06
39.68
45.22
49.49
52.31
53.75
54.22
54.36
54.69
55.30
55.72
55.24
53.30
49.78
45.08
39.82
34.46
29.12
23.67
17.97
12.12
6.43
1.28
-3.06
-6.62
-9.65
-12.47
-15.36
-18.51
-22.02
-25.97
-30.29
-34.71
-38.69
-41.52
-42.46
-41.09
-37.45
-32.02
-25.58
-18.93
-12.65
-6.99
-1.93
2.72
7.11
11.28
15.11
18.39
20.91
22.57
23.41
23.64
23.52
23.28
23.01
22.74
22.44
22.10
21.76
21.43
21.10
20.60
19.72
18.27
16.18
13.53
10.59
7.70
5.13
2.98
1.18
-0.55
-2.45
-4.68
-7.19
-9.84
-12.41
-14.84
-17.18
-19.61
-22.32
-25.44
-29.05
-33.10
-37.40
-41.49
-44.69
-46.20
-45.29
-41.67
-35.59
-27.82
-19.33
-10.94
-3.14
3.99
10.56
16.60
22.05
26.70
30.33
32.88
34.50
35.52
36.39
37.62
39.67
42.75
46.80
51.40
55.88
59.60
62.18
63.64
64.26
64.38
64.08
63.12
61.06
57.50
52.29
45.59
37.80
29.40
20.82
12.44
4.48
-2.97
-9.97
-16.79
-23.65
-30.63
-37.53
-43.93
-49.36
-53.51
-56.26
-57.66
-57.83
-56.96
-55.34
-53.31
-51.17
-48.95
-46.50
-43.68
-40.80
-38.94
-39.80
-45.00
-55.12
-68.84
-82.99
-93.29
-95.86
-88.56
-71.74
-48.09
-21.60
3.74
25.00
40.87
51.42
57.62
60.71
61.82
61.89
61.69
61.87
62.84
64.63
66.78
68.40
68.51
66.32
61.61
54.78
46.65
38.12
29.86
22.13
14.80
7.50
-0.16
-8.42
-17.37
-26.93
-36.97
-47.27
-57.53
-67.33
-76.06
-82.95
-87.05
-87.40
-83.26
-74.44
-61.62
-46.38
-30.88
-17.33
-7.23
-1.00
2.03
3.17
3.71
4.46
5.68
7.20
8.76
10.08
10.91
11.05
10.38
8.90
6.84
4.55
2.40
0.69
-0.32
-0.45
0.50
2.65
5.89
9.88
14.14
18.33
22.42
26.60
31.01
35.45
39.44
42.58
44.99
47.41
50.88
56.12
63.03
70.69
77.81
83.48
87.53
90.43
92.79
94.90
96.52
97.08
96.02
92.89
87.42
79.36
68.63
55.60
41.34
27.52
15.79
7.07
0.90
-4.37
-10.90
-20.47
-33.67
-49.79
-67.14
-83.62
-97.25
-106.65
-111.23
-111.31
-108.06
-103.10
-98.07
-94.05
-91.21
-88.87
-85.76
-80.58
-72.52
-61.64
-48.98
-36.48
-26.45
-20.92
-20.93
-26.09
-34.68
-44.16
-52.07
-56.73
-57.67
-55.53
-51.61
-47.22
-43.21
-39.70
-36.30
-32.40
-27.68
-22.09
-15.86
-9.22
-2.20
5.22
12.86
20.24
26.75
32.13
36.62
40.76
44.85
48.42
50.24
48.91
43.65
34.93
24.35
13.91
5.11
-1.51
-6.31
-9.98
-12.97
-15.21
-16.26
-15.69
-13.44
-9.91
-5.78
-1.75
1.60
4.20
6.29
8.22
10.20
12.07
13.41
13.90
13.52
12.80
12.67
14.09
17.62
23.24
30.37
38.15
45.86
53.04
59.53
65.22
69.79
72.70
73.32
71.24
66.47
59.44
50.89
41.57
32.11
22.92
14.24
6.29
-0.80
-6.92
-12.11
-16.61
-20.76
-24.95
-29.42
-34.16
-38.95
-43.41
-47.23
-50.33
-52.90
-55.31
-57.93
-60.96
-64.38
-68.11
-72.05
-76.27
-80.85
-85.86
-91.28
-97.00
-103.03
-109.41
-116.08
-122.57
-127.74
-129.96
-127.56
-119.57
-106.35
-89.65
-72.11
-56.43
-44.53
-37.06
-33.51
-32.66
-33.24
-34.28
-35.14
-35.31
-34.06
-30.61
-24.37
-15.37
-4.44
7.05
17.85
27.37
35.86
44.11
52.72
61.57
69.68
75.60
78.13
76.91
72.47
66.02
58.86
52.04
46.11
41.21
37.25
34.01
31.13
28.13
24.39
19.35
12.75
4.86
-3.50
-11.13
-16.75
-19.37
-18.47
-14.20
-7.23
1.29
10.03
17.70
23.47
27.26
29.82
32.43
36.37
42.29
49.87
57.87
64.57
68.37
68.40
64.70
58.19
50.27
42.32
35.40
30.02
26.20
23.70
22.20
21.39
21.04
20.91
20.78
20.41
19.65
18.46
16.89
15.03
12.86
10.24
6.90
2.61
-2.68
-8.87
-15.59
-22.44
-29.05
-35.25
-41.09
-46.75
-52.35
-57.70
-62.24
-65.12
-65.46
-62.74
-56.97
-48.79
-39.15
-29.07
-19.25
-10.02
-1.42
6.66
14.28
21.38
27.85
33.60
38.55
42.67
45.87
48.08
49.26
49.45
48.79
47.53
45.99
44.45
43.15
42.14
41.32
40.39
39.02
36.96
34.18
30.92
27.57
24.47
21.72
19.12
16.23
12.66
8.19
2.95
-2.64
-8.10
-13.05
-17.39
-21.34
-25.35
-29.94
-35.44
-41.80
-48.49
-54.50
-58.63
-59.79
-57.35
-51.41
-42.71
-32.38
-21.57
-11.12
-1.47
7.30
15.28
22.55
29.06
34.67
39.23
42.69
45.12
46.69
47.60
48.00
48.00
47.60
46.82
45.75
44.56
43.44
42.57
41.95
41.36
40.53
39.17
37.08
34.29
30.98
27.39
23.77
20.23
16.74
13.20
9.48
5.47
1.14
-3.43
-8.13
-12.77
-17.20
-21.32
-25.16
-28.84
-32.68
-37.03
-42.16
-48.09
-54.36
-60.02
-63.82
-64.59
-61.64
-55.06
-45.77
-35.17
-24.71
-15.40
-7.55
-0.91
5.12
11.03
16.96
22.65
27.51
30.96
32.66
32.64
31.33
29.41
27.53
26.11
25.23
24.63
23.92
22.82
21.29
19.58
18.11
17.22
17.03
17.34
17.62
17.09
14.80
9.85
1.73
-9.25
-21.80
-33.77
-42.80
-47.22
-46.73
-42.50
-36.66
-31.31
-27.71
-25.93
-25.12
-24.07
-21.89
-18.20
-13.15
-7.19
-0.91
5.11
10.31
14.31
16.97
18.37
18.72
18.19
16.79
14.49
11.48
8.40
6.43
6.91
10.72
17.73
26.61
35.24
41.57
44.43
43.94
41.23
37.79
34.72
32.35
30.38
28.36
26.15
24.05
22.64
22.50
23.95
26.99
31.40
36.72
42.26
47.09
50.10
50.23
46.84
40.01
30.62
20.18
10.39
2.60
-2.55
-5.28
-6.48
-7.31
-8.64
-10.66
-12.81
-14.02
-13.21
-9.90
-4.54
1.60
6.85
9.76
9.62
6.61
1.66
-4.04
-9.54
-14.31
-18.33
-21.87
-25.27
-28.74
-32.34
-35.92
-39.27
-42.01
-43.79
-44.35
-43.77
-42.58
-41.73
-42.38
-45.55
-51.75
-60.72
-71.48
-82.54
-92.26
-99.21
-102.38
-101.41
-96.56
-88.71
-79.12
-69.09
-59.59
-50.91
-42.68
-34.19
-24.79
-14.24
-2.78
8.97
20.29
30.44
38.73
44.59
47.68
48.07
46.31
43.32
40.00
36.85
33.72
30.02
25.19
19.33
13.46
9.14
7.75
9.72
14.35
20.19
25.77
30.11
32.88
33.95
33.10
30.15
25.37
20.03
16.35
16.70
22.43
33.06
46.47
59.94
71.42
80.29
87.16
92.99
98.12
101.85
102.73
99.46
91.73
80.66
68.35
57.00
47.96
41.24
35.80
30.35
24.43
18.75
14.73
13.26
13.59
13.01
7.92
-4.39
-24.20
-49.04
-74.76
-97.61
-115.89
-130.32
-142.91
-155.00
-165.96
-173.29
-173.99
-166.28
-150.49
-128.92
-104.67
-80.54
-58.42
-39.33
-23.82
-11.95
-2.92
5.07
14.32
26.40
40.89
55.28
66.14
71.13
70.33
65.99
61.16
57.76
55.73
53.46
49.26
42.63
34.68
27.30
21.87
18.56
16.43
14.39
11.92
9.21
6.74
4.86
3.62
2.96
2.92
3.70
5.35
7.55
9.52
10.44
10.01
8.74
7.77
8.13
10.03
12.59
14.40
14.39
12.56
10.02
8.46
9.26
12.93
18.96
26.09
32.78
37.56
39.24
37.14
31.29
22.51
12.40
2.88
-4.39
-8.64
-10.11
-9.86
-9.17
-8.97
-9.62
-11.04
-12.93
-14.95
-16.64
-17.44
-16.87
-14.99
-12.70
-11.73
-13.92
-20.25
-30.06
-41.16
-50.72
-56.68
-58.65
-57.94
-56.52
-55.77
-55.83
-55.85
-54.76
-52.06
-48.05
-43.40
-38.66
-33.99
-29.21
-24.05
-18.26
-11.48
-3.21
7.01
19.07
31.80
43.04
50.51
52.86
50.60
45.88
41.41
38.97
38.64
39.00
38.23
35.29
30.36
24.56
19.01
14.11
9.36
3.89
-2.84
-10.53
-18.03
-23.86
-26.84
-26.63
-23.82
-19.58
-15.24
-11.70
-9.19
-7.33
-5.53
-3.42
-1.07
0.97
2.03
1.72
0.11
-2.19
-4.35
-5.62
-5.70
-4.92
-4.28
-5.06
-8.33
-14.44
-22.73
-31.69
-39.54
-44.97
-47.70
-48.57
-49.09
-50.59
-53.59
-57.46
-60.67
-61.45
-58.44
-51.17
-40.15
-26.74
-12.74
0.05
10.22
17.04
20.61
21.64
21.18
20.18
19.24
18.59
18.24
18.22
18.72
19.88
21.59
23.33
24.33
23.95
22.07
19.24
16.39
14.45
13.81
14.24
15.03
15.39
14.88
13.52
11.71
9.96
8.65
7.86
7.40
6.94
6.15
4.84
2.95
0.56
-2.21
-5.21
-8.35
-11.59
-14.93
-18.23
-21.26
-23.60
-24.82
-24.59
-22.86
-19.91
-16.16
-12.07
-7.85
-3.57
0.82
5.26
9.53
13.29
16.27
18.36
19.70
20.59
21.28
21.86
22.21
22.04
21.10
19.33
17.01
14.66
12.84
11.87
11.66
11.73
11.43
10.26
8.00
4.82
1.12
-2.61
-5.83
-8.04
-8.97
-8.84
-8.54
-9.60
-13.55
-21.18
-31.88
-43.58
-53.42
-58.83
-58.52
-52.83
-43.44
-32.49
-21.79
-12.37
-4.47
2.06
7.47
11.91
15.45
18.21
20.40
22.33
24.29
26.37
28.38
29.89
30.46
29.79
27.94
25.31
22.45
19.91
17.99
16.70
15.82
15.02
14.04
12.72
11.06
9.13
7.06
4.98
2.96
1.03
-0.90
-2.97
-5.30
-7.95
-10.85
-13.91
-16.99
-20.08
-23.28
-26.79
-30.70
-34.85
-38.77
-41.76
-43.12
-42.41
-39.59
-35.05
-29.42
-23.38
-17.43
-11.81
-6.49
-1.41
3.48
8.07
12.13
15.38
17.62
18.83
19.18
18.97
18.49
17.95
17.44
16.95
16.41
15.78
15.01
14.07
13.00
11.85
10.72
9.64
8.59
7.42
5.92
3.93
1.52
-1.01
-3.13
-4.41
-4.65
-4.09
-3.19
-2.55
-2.66
-3.82
-6.20
-9.97
-15.29
-22.21
-30.43
-39.08
-46.85
-52.36
-54.72
-53.86
-50.62
-46.32
-42.29
-39.43
-37.96
-37.60
-37.78
-37.84
-37.32
-35.86
-33.36
-29.97
-26.19
-22.82
-20.71
-20.42
-21.84
-24.16
-26.03
-26.06
-23.34
-17.70
-9.75
-0.47
9.22
18.76
28.04
37.10
45.87
53.97
60.79
65.80
68.77
69.87
69.47
67.94
65.35
61.44
55.82
48.29
39.08
28.94
18.94
10.19
3.52
-0.70
-2.55
-2.39
-0.75
1.86
4.96
8.12
10.99
13.33
15.13
16.57
17.88
19.21
20.47
21.38
21.70
21.46
21.00
20.87
21.54
23.15
25.46
28.00
30.31
32.14
33.42
34.14
34.20
33.43
31.66
28.88
25.34
21.39
17.41
13.60
9.94
6.20
2.10
-2.52
-7.62
-12.90
-17.88
-22.05
-25.15
-27.24
-28.75
-30.35
-32.64
-35.95
-40.11
-44.48
-48.13
-50.09
-49.64
-46.53
-41.03
-33.86
-25.96
-18.20
-11.17
-5.04
0.31
5.12
9.53
13.51
16.86
19.38
21.06
22.09
22.80
23.47
24.22
25.01
25.74
26.39
27.09
27.95
29.00
30.00
30.55
30.25
28.98
26.91
24.50
22.17
20.18
18.43
16.72
14.80
12.63
10.26
7.81
5.26
2.48
-0.74
-4.49
-8.73
-13.22
-17.73
-22.23
-26.81
-31.66
-36.73
-41.62
-45.54
-47.58
-47.09
-43.96
-38.70
-32.23
-25.48
-19.13
-13.42
-8.30
-3.60
0.84
5.07
9.12
12.96
16.49
19.54
21.85
23.19
23.46
22.75
21.36
19.65
17.97
16.55
15.46
14.67
14.03
13.33
12.42
11.22
9.74
8.08
6.34
4.55
2.66
0.55
-1.91
-4.81
-8.17
-12.00
-16.32
-21.08
-26.26
-31.79
-37.57
-43.56
-49.80
-56.38
-63.40
-70.87
-78.47
-85.56
-91.20
-94.34
-94.10
-89.99
-81.92
-70.23
-55.57
-38.84
-21.22
-4.04
11.39
24.01
33.36
39.61
43.44
45.72
47.25
48.54
49.93
51.65
53.92
56.87
60.43
64.23
67.74
70.42
71.92
72.13
71.21
69.39
66.95
64.14
61.18
58.25
55.45
52.75
49.96
46.80
43.05
38.61
33.60
28.29
23.09
18.33
14.34
11.27
9.23
8.17
7.96
8.31
8.91
9.47
9.86
10.25
11.09
13.05
16.75
22.56
30.42
39.87
50.21
60.75
70.95
80.60
89.73
98.52
107.13
115.60
123.80
131.41
138.01
143.13
146.31
147.11
145.15
140.08
131.76
120.32
106.28
90.54
74.17
58.11
42.99
28.96
15.87
3.48
-8.32
-19.40
-29.46
-38.29
-45.89
-52.56
-58.88
-65.47
-72.79
-80.87
-89.18
-96.81
-102.72
-106.22
-107.19
-106.17
-104.10
-101.95
-100.39
-99.73
-100.03
-101.31
-103.60
-106.92
-111.10
-115.73
-120.24
-124.14
-127.19
-129.46
-131.13
-132.33
-132.98
-132.73
-131.12
-127.71
-122.21
-114.56
-104.96
-93.85
-81.95
-70.10
-59.15
-49.73
-42.09
-36.04
-31.03
-26.45
-21.78
-16.89
-11.92
-7.17
-2.86
0.95
4.31
7.26
9.82
12.01
13.95
15.86
17.94
20.14
22.17
23.56
23.90
23.10
21.43
19.42
17.57
16.10
14.89
13.57
11.74
9.11
5.66
1.57
-2.87
-7.37
-11.70
-15.76
-19.57
-23.19
-26.73
-30.31
-33.91
-37.39
-40.41
-42.48
-43.13
-42.06
-39.22
-34.80
-29.08
-22.28
-14.48
-5.67
4.01
14.05
23.60
31.57
37.04
39.64
39.74
38.40
36.96
36.57
37.83
40.52
43.78
46.29
46.77
44.29
38.71
30.79
22.00
14.05
8.41
5.83
6.21
8.74
12.11
14.85
15.73
14.07
10.11
5.01
0.39
-2.39
-3.02
-2.47
-2.38
-4.13
-7.91
-12.72
-17.10
-20.23
-22.61
-25.79
-31.35
-39.85
-50.21
-60.18
-67.22
-69.69
-67.30
-61.07
-52.61
-43.36
-34.14
-25.08
-15.94
-6.49
3.12
12.36
20.52
27.03
31.68
34.74
36.75
38.31
39.81
41.28
42.44
42.97
42.66
41.63
40.29
39.07
38.26
37.79
37.33
36.43
34.79
32.34
29.24
25.77
22.10
18.26
14.17
9.71
4.91
-0.07
-4.95
-9.45
-13.49
-17.17
-20.86
-25.04
-30.21
-36.64
-44.24
-52.40
-60.04
-65.81
-68.43
-67.09
-61.74
-53.07
-42.27
-30.64
-19.16
-8.35
1.69
11.09
19.91
28.07
35.35
41.48
46.28
49.69
51.83
52.93
53.27
53.12
52.73
52.30
51.94
51.79
51.91
52.27
52.71
52.88
52.34
50.71
47.83
43.85
39.22
34.49
30.16
26.40
23.13
19.98
16.56
12.57
7.94
2.85
-2.35
-7.28
-11.68
-15.54
-19.11
-22.84
-27.25
-32.79
-39.61
-47.41
-55.39
-62.29
-66.71
-67.53
-64.22
-57.12
-47.30
-36.12
-24.85
-14.22
-4.45
4.63
13.27
21.59
29.49
36.72
43.05
48.30
52.37
55.25
56.95
57.54
57.22
56.26
54.99
53.74
52.73
52.06
51.68
51.52
51.35
50.92
49.91
48.02
45.09
41.14
36.43
31.40
26.48
21.99
18.04
14.52
11.20
7.86
4.35
0.67
-3.06
-6.65
-9.97
-13.02
-16.02
-19.34
-23.44
-28.63
-34.98
-42.17
-49.55
-56.14
-60.87
-62.77
-61.30
-56.45
-48.86
-39.59
-29.77
-20.34
-11.78
-4.14
2.80
9.29
15.43
21.13
26.18
30.33
33.38
35.26
36.08
36.05
35.46
34.64
33.80
33.09
32.55
32.16
31.85
31.55
31.13
30.40
29.17
27.30
24.77
21.78
18.61
15.59
12.94
10.62
8.37
5.83
2.76
-0.85
-4.74
-8.50
-11.79
-14.52
-16.87
-19.28
-22.23
-26.08
-30.96
-36.66
-42.60
-47.90
-51.55
-52.69
-50.86
-46.20
-39.39
-31.41
-23.23
-15.48
-8.38
-1.84
4.36
10.31
15.95
21.01
25.19
28.25
30.13
30.95
31.02
30.69
30.28
29.97
29.83
29.85
30.01
30.24
30.49
30.68
30.61
30.09
28.96
27.16
24.83
22.30
19.91
17.89
16.28
14.85
13.27
11.24
8.64
5.62
2.52
-0.27
-2.55
-4.36
-5.95
-7.70
-9.85
-12.45
-15.33
-18.19
-20.79
-23.01
-24.98
-26.91
-29.14
-31.94
-35.51
-39.91
-44.94
-50.04
-54.29
-56.59
-56.02
-52.20
-45.50
-36.94
-27.83
-19.27
-11.86
-5.64
-0.27
4.66
9.41
14.03
18.43
22.41
25.78
28.35
30.00
30.67
30.44
29.51
28.16
26.72
25.42
24.41
23.74
23.40
23.27
23.19
22.94
22.38
21.41
20.07
18.50
16.85
15.19
13.49
11.69
9.72
7.60
5.39
3.16
0.91
-1.45
-4.03
-6.87
-9.89
-12.93
-15.77
-18.24
-20.32
-22.13
-23.85
-25.68
-27.85
-30.54
-33.85
-37.75
-41.92
-45.70
-48.19
-48.54
-46.25
-41.46
-34.88
-27.60
-20.58
-14.41
-9.17
-4.57
-0.26
3.96
7.98
11.52
14.26
16.04
16.90
17.10
17.01
16.94
17.08
17.42
17.84
18.13
18.20
18.04
17.75
17.40
16.99
16.43
15.56
14.30
12.63
10.68
8.69
6.85
5.27
3.93
2.65
1.21
-0.62
-2.95
-5.73
-8.79
-11.85
-14.63
-16.93
-18.69
-20.06
-21.35
-22.95
-25.28
-28.60
-32.97
-38.13
-43.47
-48.11
-51.06
-51.51
-49.10
-44.07
-37.20
-29.54
-22.04
-15.29
-9.40
-4.17
0.70
5.41
9.94
14.15
17.85
20.85
23.11
24.65
25.57
26.02
26.15
26.10
26.01
25.98
26.08
26.29
26.51
26.59
26.35
25.68
24.58
23.15
21.59
20.08
18.72
17.53
16.40
15.21
13.78
11.96
9.74
7.19
4.52
1.98
-0.21
-2.02
-3.58
-5.18
-7.13
-9.57
-12.45
-15.53
-18.51
-21.17
-23.44
-25.46
-27.45
-29.70
-32.44
-35.87
-40.03
-44.71
-49.38
-53.19
-55.16
-54.49
-50.93
-44.86
-37.26
-29.35
-22.10
-16.01
-11.01
-6.66
-2.41
2.07
6.85
11.71
16.27
20.14
23.04
24.87
25.69
25.72
25.21
24.45
23.70
23.17
23.01
23.28
23.86
24.53
24.96
24.88
24.15
22.85
21.21
19.57
18.12
16.88
15.70
14.29
12.43
10.06
7.30
4.41
1.66
-0.81
-2.94
-4.84
-6.69
-8.70
-11.05
-13.85
-17.05
-20.43
-23.73
-26.69
-29.22
-31.46
-33.74
-36.42
-39.78
-43.75
-47.87
-51.35
-53.29
-52.97
-50.06
-44.68
-37.35
-28.76
-19.62
-10.55
-2.15
5.09
10.83
14.93
17.50
18.83
19.18
18.75
17.70
16.25
14.80
13.75
13.29
13.16
12.80
11.64
9.51
6.83
4.37
2.71
1.80
0.88
-1.11
-5.00
-10.91
-18.14
-25.51
-31.80
-36.19
-38.57
-39.46
-39.67
-39.92
-40.58
-41.64
-43.03
-44.71
-46.70
-48.84
-50.68
-51.65
-51.45
-50.26
-48.82
-47.88
-47.60
-47.19
-45.26
-40.69
-33.62
-25.65
-19.06
-15.51
-14.97
-15.66
-15.09
-11.44
-4.49
4.32
12.74
18.95
22.48
24.35
26.49
30.84
38.45
49.08
61.14
72.13
79.36
80.72
75.53
64.86
51.16
37.45
26.24
18.76
15.12
14.78
17.33
22.73
31.16
42.54
56.14
70.68
84.84
97.61
108.28
116.12
120.02
118.64
110.94
97.13
79.01
59.61
42.02
28.06
17.78
9.78
2.39
-5.24
-12.68
-18.68
-21.90
-21.80
-18.91
-14.63
-10.75
-9.07
-10.97
-17.21
-27.67
-41.20
-55.88
-69.39
-79.82
-86.25
-88.91
-88.91
-87.63
-86.11
-84.56
-82.44
-78.82
-72.93
-64.75
-55.25
-46.18
-39.42
-36.19
-36.60
-39.65
-43.70
-47.24
-49.31
-49.68
-48.54
-46.11
-42.44
-37.36
-30.68
-22.29
-12.20
-0.49
12.79
27.46
43.10
58.78
73.18
84.87
92.72
96.28
95.83
91.98
85.31
76.01
63.93
48.98
31.83
14.31
-0.76
-10.47
-12.99
-8.53
0.83
12.20
23.40
34.01
45.43
59.73
78.22
100.47
124.20
146.11
163.09
173.19
176.07
172.86
165.62
156.77
148.37
141.47
135.69
129.32
119.94
105.66
86.11
62.82
38.73
16.94
-0.41
-12.74
-20.76
-25.74
-28.75
-30.41
-31.07
-31.22
-31.65
-33.31
-36.83
-42.20
-48.79
-55.61
-61.73
-66.56
-69.96
-72.17
-73.74
-75.31
-77.39
-80.06
-82.84
-84.90
-85.44
-84.12
-81.20
-77.24
-72.63
-67.32
-60.88
-53.01
-43.96
-34.70
-26.49
-20.30
-16.31
-13.88
-11.94
-9.69
-6.96
-4.13
-1.77
-0.19
0.75
1.44
2.13
2.71
2.74
1.71
-0.63
-4.16
-8.45
-12.89
-16.72
-19.03
-18.85
-15.55
-9.32
-1.47
5.79
10.15
10.24
6.30
0.05
-6.13
-10.33
-11.82
-11.03
-8.98
-6.39
-3.47
-0.17
3.23
5.77
6.21
3.86
-0.65
-5.31
-7.62
-5.82
0.16
8.91
18.41
27.30
35.25
42.54
49.08
53.78
54.80
50.63
41.19
28.10
14.03
1.43
-8.44
-15.73
-21.39
-26.31
-30.89
-35.10
-38.92
-42.69
-47.04
-52.54
-59.36
-67.03
-74.72
-81.60
-87.16
-91.44
-94.71
-97.13
-98.45
-98.00
-94.94
-88.54
-78.50
-65.08
-49.07
-31.78
-14.77
0.35
12.43
21.04
26.76
31.00
35.48
41.52
49.45
58.47
66.95
73.21
76.18
75.79
72.72
68.09
62.83
57.49
52.24
47.08
42.17
37.78
34.12
31.22
28.73
26.12
22.94
19.08
14.79
10.59
6.95
4.11
1.95
0.04
-2.18
-5.17
-9.06
-13.53
-17.88
-21.24
-22.87
-22.41
-20.01
-16.19
-11.69
-7.19
-3.22
-0.04
2.33
4.03
5.35
6.62
8.12
9.97
12.05
14.05
15.59
16.36
16.23
15.29
13.79
12.04
10.37
8.97
7.97
7.35
7.00
6.77
6.48
5.92
4.92
3.30
1.00
-1.89
-5.10
-8.23
-10.90
-12.89
-14.25
-15.25
-16.28
-17.76
-19.97
-23.04
-26.79
-30.71
-34.02
-35.83
-35.41
-32.52
-27.48
-21.10
-14.38
-8.16
-2.86
1.47
5.06
8.14
10.87
13.31
15.40
17.07
18.21
18.75
18.66
17.99
16.86
15.50
14.07
12.72
11.43
10.13
8.74
7.25
5.73
4.25
2.84
1.43
-0.14
-2.02
-4.29
-6.90
-9.69
-12.47
-15.11
-17.56
-19.86
-22.06
-24.20
-26.30
-28.42
-30.68
-33.20
-35.88
-38.21
-39.26
-37.98
-33.70
-26.63
-17.91
-9.29
-2.40
1.90
3.79
4.26
4.44
5.02
5.99
6.87
7.16
6.69
5.77
4.91
4.44
4.40
4.45
4.23
3.57
2.64
1.80
1.39
1.40
1.54
1.30
0.33
-1.45
-3.77
-6.23
-8.45
-10.29
-11.83
-13.34
-15.14
-17.47
-20.38
-23.72
-27.04
-29.73
-31.16
-30.92
-28.92
-25.47
-21.10
-16.34
-11.59
-7.06
-2.86
0.87
3.94
6.13
7.31
7.45
6.64
5.06
3.03
1.01
-0.44
-0.69
0.66
3.66
7.88
12.59
17.01
20.65
23.51
25.99
28.58
31.43
34.19
36.08
36.38
34.79
31.70
27.91
24.20
20.90
17.89
14.86
11.71
8.71
6.39
5.15
4.92
5.24
5.40
4.93
3.69
1.86
-0.23
-2.28
-4.16
-5.82
-7.43
-9.20
-11.39
-14.04
-16.92
-19.55
-21.37
-22.06
-21.64
-20.36
-18.53
-16.31
-13.73
-10.89
-8.13
-6.14
-5.64
-7.07
-10.28
-14.57
-19.03
-22.92
-25.98
-28.38
-30.54
-32.85
-35.58
-38.86
-42.64
-46.64
-50.20
-52.26
-51.60
-47.29
-39.23
-28.38
-16.64
-6.30
0.71
3.46
2.26
-1.52
-6.07
-9.86
-12.14
-13.26
-14.45
-17.37
-23.43
-33.15
-45.82
-59.49
-71.49
-79.08
-80.35
-74.90
-63.95
-50.08
-36.33
-25.21
-17.59
-12.27
-6.07
5.22
25.39
56.24
96.45
141.50
184.79
219.53
240.82
246.89
239.16
221.10
196.74
169.40
141.34
113.95
88.23
65.09
45.23
28.97
15.97
5.47
-3.43
-11.11
-17.29
-21.12
-21.82
-19.42
-15.18
-11.39
-10.42
-13.55
-20.24
-28.18
-34.24
-35.78
-31.69
-22.71
-10.95
1.03
11.07
17.81
20.91
20.82
18.64
15.77
13.53
12.80
13.71
15.69
17.64
18.31
16.54
11.57
3.29
-7.60
-19.62
-30.78
-39.30
-44.17
-45.60
-44.85
-43.59
-43.16
-44.13
-46.34
-49.28
-52.55
-56.06
-59.83
-63.74
-67.28
-69.60
-69.84
-67.48
-62.51
-55.38
-46.82
-37.61
-28.41
-19.73
-11.87
-4.98
0.89
5.79
9.80
13.12
16.04
18.97
22.29
26.24
30.76
35.54
40.09
44.00
46.98
48.94
49.82
49.56
48.12
45.65
42.66
39.97
38.52
38.97
41.47
45.65
50.89
56.58
62.12
66.79
69.60
69.43
65.70
58.88
50.64
43.13
37.78
34.42
31.35
26.36
18.25
7.69
-3.02
-11.16
-15.08
-14.95
-12.42
-9.51
-7.62
-6.93
-6.75
-6.06
-4.16
-0.93
3.14
7.18
10.24
11.66
11.32
9.71
7.56
5.44
3.33
0.67
-3.26
-8.77
-15.48
-22.46
-28.72
-33.80
-37.97
-42.02
-46.75
-52.39
-58.39
-63.68
-67.25
-68.64
-68.08
-66.15
-63.20
-59.18
-53.75
-46.91
-39.37
-32.51
-27.72
-25.61
-25.60
-26.27
-26.29
-25.26
-23.85
-23.23
-24.01
-25.69
-26.80
-25.85
-22.19
-16.48
-10.19
-4.88
-1.45
0.13
0.54
0.61
0.88
1.59
2.73
4.24
6.10
8.22
10.45
12.54
14.31
15.67
16.64
17.24
17.37
16.81
15.44
13.34
10.88
8.60
6.88
5.72
4.73
3.30
1.00
-2.22
-5.90
-9.36
-12.03
-13.76
-14.84
-15.90
-17.53
-20.07
-23.55
-27.64
-31.80
-35.43
-37.85
-38.48
-36.88
-32.99
-27.12
-20.05
-12.79
-6.30
-1.24
2.20
4.25
5.42
6.28
7.29
8.68
10.43
12.37
14.21
15.68
16.59
16.91
16.74
16.20
15.41
14.39
13.16
11.75
10.26
8.82
7.56
6.47
5.44
4.30
2.92
1.29
-0.50
-2.34
-4.18
-6.07
-8.09
-10.22
-12.33
-14.19
-15.67
-16.85
-18.05
-19.71
-22.19
-25.47
-29.12
-32.27
-33.94
-33.38
-30.30
-24.96
-18.11
-10.69
-3.59
2.56
7.46
11.12
13.77
15.71
17.26
18.61
19.81
20.72
21.14
20.85
19.75
17.92
15.64
13.25
11.14
9.58
8.77
8.69
9.15
9.87
10.46
10.58
10.00
8.68
6.72
4.33
1.77
-0.71
-2.92
-4.76
-6.23
-7.47
-8.66
-10.03
-11.66
-13.52
-15.45
-17.18
-18.57
-19.66
-20.77
-22.31
-24.65
-27.85
-31.48
-34.70
-36.47
-35.93
-32.77
-27.30
-20.39
-13.15
-6.55
-1.11
3.05
6.18
8.63
10.65
12.35
13.73
14.73
15.33
15.58
15.52
15.23
14.76
14.18
13.59
13.11
12.80
12.68
12.64
12.53
12.22
11.66
10.94
10.16
9.44
8.75
7.98
6.91
5.40
3.43
1.13
-1.32
-3.77
-6.18
-8.61
-11.13
-13.75
-16.39
-18.89
-21.17
-23.24
-25.22
-27.32
-29.73
-32.63
-36.10
-40.11
-44.42
-48.53
-51.69
-53.08
-52.07
-48.54
-42.92
-36.02
-28.79
-21.90
-15.63
-9.90
-4.53
0.63
5.58
10.20
14.36
17.96
20.94
23.24
24.77
25.51
25.52
24.96
24.10
23.19
22.40
21.82
21.44
21.21
21.05
20.85
20.46
19.71
18.51
16.85
14.85
12.70
10.52
8.37
6.25
4.17
2.19
0.46
-0.96
-2.09
-3.11
-4.28
-5.75
-7.56
-9.61
-11.74
-13.92
-16.28
-19.11
-22.76
-27.49
-33.33
-39.86
-46.28
-51.43
-54.14
-53.55
-49.43
-42.27
-33.13
-23.20
-13.54
-4.77
2.92
9.64
15.60
20.98
25.88
30.21
33.79
36.41
37.91
38.31
37.83
36.90
35.98
35.45
35.45
35.96
36.72
37.48
37.93
37.87
37.25
36.08
34.51
32.68
30.74
28.76
26.80
24.84
22.90
20.96
18.98
16.87
14.50
11.73
8.45
4.62
0.33
-4.21
-8.71
-12.87
-16.50
-19.56
-22.27
-25.02
-28.28
-32.44
-37.63
-43.56
-49.52
-54.46
-57.26
-57.05
-53.46
-46.83
-38.01
-28.13
-18.21
-8.97
-0.65
6.79
13.53
19.64
25.05
29.57
33.01
35.25
36.32
36.35
35.53
34.09
32.28
30.35
28.55
27.12
26.19
25.84
26.02
26.51
26.99
27.10
26.44
24.79
22.19
18.92
15.48
12.35
9.79
7.75
5.90
3.77
1.00
-2.47
-6.46
-10.56
-14.34
-17.55
-20.18
-22.51
-24.98
-28.06
-32.11
-37.25
-43.26
-49.46
-54.85
-58.23
-58.60
-55.46
-49.00
-40.10
-30.03
-19.96
-10.63
-2.27
5.33
12.51
19.44
26.01
31.94
36.87
40.57
43.02
44.35
44.81
44.62
43.96
42.94
41.71
40.41
39.25
38.37
37.85
37.64
37.57
37.42
36.94
35.94
34.28
31.90
28.89
25.44
21.79
18.19
14.79
11.57
8.40
5.09
1.50
-2.40
-6.48
-10.54
-14.41
-18.01
-21.43
-24.89
-28.73
-33.27
-38.75
-45.20
-52.30
-59.38
-65.39
-69.22
-69.84
-66.76
-60.15
-50.84
-40.11
-29.17
-18.88
-9.50
-0.80
7.61
15.97
24.19
31.82
38.34
43.34
46.73
48.67
49.50
49.51
48.88
47.77
46.30
44.64
42.99
41.52
40.25
39.10
37.93
36.57
34.93
32.97
30.72
28.24
25.60
22.90
20.23
17.61
15.03
12.38
9.52
6.33
2.76
-1.14
-5.22
-9.27
-13.09
-16.58
-19.76
-22.79
-25.96
-29.60
-34.01
-39.39
-45.72
-52.59
-59.22
-64.47
-67.16
-66.41
-62.00
-54.45
-44.91
-34.70
-24.91
-16.05
-8.13
-0.81
6.27
13.24
19.98
26.19
31.53
35.82
38.99
41.14
42.39
42.83
42.60
41.80
40.69
39.63
38.99
38.99
39.56
40.36
40.77
40.28
38.59
35.75
32.14
28.28
24.62
21.45
18.81
16.49
14.15
11.42
8.00
3.81
-1.03
-6.22
-11.42
-16.33
-20.78
-24.75
-28.39
-31.99
-35.95
-40.71
-46.47
-53.01
-59.53
-64.74
-67.30
-66.25
-61.48
-53.71
-44.28
-34.60
-25.77
-18.26
-12.08
-6.89
-2.33
1.84
5.70
9.16
12.07
14.22
15.43
15.63
14.91
13.56
12.03
10.84
10.38
10.80
11.95
13.44
14.85
15.87
16.41
16.53
16.34
15.76
14.59
12.56
9.47
5.31
0.31
-5.08
-10.26
-14.58
-17.50
-18.76
-18.56
-17.56
-16.77
-17.18
-19.40
-23.36
-28.23
-32.74
-35.49
-35.43
-32.14
-25.95
-17.78
-8.85
-0.29
7.15
13.32
18.48
23.11
27.56
31.91
35.91
39.20
41.52
42.78
43.16
42.95
42.43
41.78
41.08
40.35
39.61
38.86
38.14
37.36
36.40
34.99
32.86
29.76
25.61
20.49
14.62
8.36
2.08
-3.91
-9.46
-14.52
-19.14
-23.47
-27.77
-32.37
-37.66
-43.90
-51.04
-58.51
-65.23
-69.89
-71.28
-68.77
-62.46
-53.18
-42.09
-30.35
-18.81
-7.97
1.96
10.97
19.07
26.26
32.58
37.97
42.37
45.66
47.75
48.64
48.47
47.49
46.03
44.36
42.64
40.94
39.21
37.37
35.33
33.07
30.61
28.03
25.40
22.71
19.83
16.53
12.65
8.14
3.15
-2.03
-7.16
-12.17
-17.19
-22.47
-28.24
-34.59
-41.42
-48.50
-55.51
-62.00
-67.28
-70.48
-70.70
-67.37
-60.49
-50.85
-39.75
-28.56
-18.26
-9.16
-0.94
6.96
15.01
23.33
31.61
39.22
45.53
49.98
52.34
52.66
51.31
48.82
45.74
42.53
39.50
36.80
34.51
32.66
31.23
30.19
29.41
28.67
27.71
26.26
24.10
21.09
17.22
12.62
7.55
2.33
-2.73
-7.45
-11.81
-16.02
-20.37
-25.22
-30.85
-37.29
-44.16
-50.67
-55.67
-58.01
-56.89
-52.16
-44.39
-34.67
-24.23
-14.02
-4.53
4.15
12.16
19.64
26.58
32.83
38.15
42.27
44.95
46.08
45.71
44.12
41.69
38.83
35.92
33.18
30.75
28.69
27.03
25.73
24.62
23.33
21.40
18.42
14.26
9.19
3.82
-1.19
-5.36
-8.63
-11.36
-14.16
-17.64
-22.18
-27.86
-34.42
-41.28
-47.58
-52.29
-54.45
-53.46
-49.30
-42.52
-34.10
-25.03
-15.96
-7.10
1.63
10.29
18.68
26.27
32.39
36.52
38.46
38.42
36.91
34.50
31.75
28.98
26.39
24.03
21.92
20.08
18.56
17.32
16.20
14.88
13.01
10.38
7.00
3.14
-0.85
-4.74
-8.56
-12.56
-17.08
-22.39
-28.59
-35.52
-42.80
-49.84
-55.78
-59.66
-60.60
-58.09
-52.23
-43.71
-33.66
-23.25
-13.33
-4.30
3.84
11.29
18.21
24.58
30.19
34.75
38.03
39.92
40.48
39.94
38.60
36.84
34.97
33.28
31.90
30.82
29.89
28.90
27.69
26.17
24.39
22.41
20.27
17.84
14.90
11.22
6.72
1.55
-3.92
-9.28
-14.18
-18.49
-22.29
-25.87
-29.58
-33.82
-38.92
-45.05
-52.12
-59.59
-66.47
-71.48
-73.43
-71.58
-66.01
-57.53
-47.49
-37.18
-27.52
-18.81
-10.86
-3.25
4.36
12.04
19.56
26.53
32.54
37.26
40.53
42.30
42.67
41.83
40.07
37.75
35.25
32.90
30.91
29.34
28.07
26.83
25.31
23.21
20.28
16.43
11.71
6.35
0.68
-4.92
-10.22
-15.16
-19.92
-24.87
-30.44
-36.92
-44.36
-52.40
-60.44
-67.81
-74.03
-79.08
-83.44
-87.98
-93.73
-101.46
-111.33
-122.57
-133.58
-142.13
-146.05
-143.85
-135.23
-121.17
-103.49
-84.22
-64.95
-46.56
-29.41
-13.78
-0.09
11.09
19.31
24.53
27.08
27.31
25.34
21.25
15.60
9.89
6.30
6.85
12.25
21.43
32.09
42.08
50.71
59.07
69.09
82.02
97.23
112.25
124.08
130.82
132.55
131.00
128.21
125.36
122.24
117.85
111.36
102.94
93.79
85.46
78.96
74.11
69.62
63.82
55.44
44.20
30.83
16.57
2.62
-10.32
-22.10
-32.98
-43.24
-52.88
-61.39
-67.88
-71.37
-71.25
-67.55
-61.03
-52.94
-44.54
-36.68
-29.63
-23.16
-16.85
-10.40
-3.86
2.45
8.09
12.70
16.11
18.33
19.54
20.01
20.00
19.80
19.66
19.80
20.32
21.23
22.37
23.49
24.33
24.68
24.43
23.59
22.21
20.37
18.16
15.67
13.03
10.43
8.02
5.82
3.74
1.57
-0.92
-3.83
-7.10
-10.54
-13.89
-16.97
-19.75
-22.34
-24.97
-27.89
-31.38
-35.64
-40.72
-46.36
-51.94
-56.43
-58.72
-57.92
-53.78
-46.77
-38.01
-28.80
-20.20
-12.73
-6.35
-0.66
4.76
10.12
15.40
20.36
24.74
28.34
31.06
32.92
33.99
34.41
34.34
33.99
33.61
33.41
33.54
34.02
34.70
35.31
35.50
35.05
33.87
32.08
29.90
27.61
25.36
23.19
21.00
18.67
16.10
13.27
10.26
7.19
4.17
1.21
-1.75
-4.86
-8.28
-12.10
-16.27
-20.61
-24.87
-28.80
-32.29
-35.39
-38.35
-41.49
-45.14
-49.53
-54.65
-60.19
-65.48
-69.62
-71.63
-70.81
-66.99
-60.62
-52.61
-44.02
-35.69
-28.05
-21.12
-14.72
-8.67
-2.98
2.26
6.94
11.00
14.57
17.83
20.97
24.16
27.43
30.69
33.77
36.45
38.57
40.09
41.18
42.10
43.14
44.47
46.05
47.71
49.14
50.06
50.25
49.54
47.83
45.05
41.17
36.30
30.67
24.68
18.82
13.52
9.01
5.27
1.99
-1.22
-4.70
-8.50
-12.37
-15.84
-18.35
-19.57
-19.48
-18.53
-17.44
-17.03
-17.96
-20.40
-23.99
-27.86
-30.95
-32.28
-31.40
-28.36
-23.73
-18.24
-12.56
-7.10
-2.04
2.63
6.96
10.96
14.59
17.73
20.21
21.86
22.53
22.21
21.03
19.23
17.15
15.10
13.31
11.92
10.99
10.52
10.48
10.75
11.15
11.45
11.40
10.81
9.55
7.61
5.05
1.99
-1.43
-5.07
-8.79
-12.49
-16.09
-19.60
-23.06
-26.52
-29.96
-33.23
-36.03
-38.01
-38.96
-38.96
-38.49
-38.25
-38.92
-40.79
-43.55
-46.35
-48.05
-47.67
-44.69
-39.20
-31.78
-23.25
-14.42
-5.91
1.90
8.85
14.88
20.09
24.55
28.34
31.48
33.85
35.38
36.04
35.99
35.49
34.90
34.46
34.26
34.21
34.13
33.83
33.12
31.86
29.93
27.23
23.76
19.66
15.21
10.82
6.85
3.53
0.84
-1.47
-3.77
-6.40
-9.57
-13.22
-17.18
-21.12
-24.73
-27.83
-30.36
-32.48
-34.58
-37.20
-40.89
-46.00
-52.37
-59.23
-65.27
-69.04
-69.46
-66.18
-59.71
-51.17
-41.87
-32.84
-24.63
-17.28
-10.54
-4.10
2.17
8.20
13.78
18.66
22.70
25.88
28.28
30.06
31.32
32.13
32.51
32.47
32.07
31.45
30.77
30.14
29.63
29.17
28.64
27.85
26.67
25.01
22.90
20.45
17.86
15.29
12.81
10.36
7.75
4.78
1.30
-2.69
-7.00
-11.30
-15.25
-18.61
-21.39
-23.80
-26.21
-29.02
-32.56
-37.01
-42.31
-48.12
-53.74
-58.14
-60.25
-59.20
-54.75
-47.33
-37.95
-27.85
-18.08
-9.24
-1.40
5.63
12.09
18.08
23.49
28.12
31.80
34.46
36.17
37.09
37.39
37.23
36.76
36.13
35.50
35.06
34.92
35.06
35.30
35.30
34.71
33.25
30.85
27.70
24.14
20.58
17.33
14.50
11.97
9.47
6.73
3.59
0.04
-3.76
-7.62
-11.37
-14.98
-18.51
-22.11
-26.00
-30.37
-35.26
-40.45
-45.31
-48.95
-50.36
-48.84
-44.23
-37.09
-28.52
-19.74
-11.66
-4.62
1.59
7.44
13.31
19.19
24.65
29.06
31.91
33.12
33.00
32.18
31.22
30.47
29.93
29.44
28.83
28.02
27.12
26.22
25.41
24.61
23.70
22.53
20.99
19.00
16.48
13.38
9.69
5.50
1.04
-3.36
-7.40
-10.92
-13.89
-16.48
-18.96
-21.68
-25.01
-29.20
-34.24
-39.71
-44.76
-48.27
-49.22
-47.06
-41.96
-34.74
-26.50
-18.26
-10.61
-3.68
2.72
8.82
14.74
20.37
25.46
29.73
32.95
34.98
35.85
35.71
34.87
33.65
32.40
31.32
30.55
30.13
30.02
30.13
30.24
30.05
29.21
27.48
24.84
21.53
17.94
14.49
11.40
8.67
6.09
3.37
0.28
-3.20
-6.92
-10.66
-14.17
-17.34
-20.20
-22.97
-26.03
-29.80
-34.58
-40.41
-46.91
-53.22
-58.19
-60.65
-59.77
-55.36
-47.96
-38.67
-28.78
-19.40
-11.14
-4.06
2.16
7.98
13.74
19.48
25.03
30.06
34.23
37.34
39.31
40.17
40.10
39.30
38.05
36.66
35.42
34.57
34.22
34.30
34.61
34.82
34.58
33.64
31.94
29.63
27.03
24.43
21.99
19.74
17.53
15.26
12.86
10.35
7.71
4.84
1.63
-1.98
-5.87
-9.71
-13.14
-15.94
-18.17
-20.14
-22.23
-24.72
-27.77
-31.41
-35.70
-40.70
-46.33
-52.08
-57.02
-59.88
-59.55
-55.56
-48.33
-39.06
-29.27
-20.24
-12.63
-6.40
-1.08
3.85
8.69
13.38
17.68
21.29
24.04
25.92
27.03
27.50
27.44
26.93
26.11
25.16
24.35
23.92
23.96
24.38
24.89
25.08
24.58
23.19
20.93
18.08
15.04
12.21
9.86
8.02
6.47
4.85
2.79
0.08
-3.23
-6.88
-10.46
-13.63
-16.23
-18.36
-20.35
-22.66
-25.70
-29.71
-34.60
-39.85
-44.61
-47.84
-48.62
-46.43
-41.41
-34.28
-26.11
-17.99
-10.66
-4.37
1.00
5.81
10.33
14.66
18.67
22.11
24.70
26.25
26.74
26.27
25.11
23.60
22.10
20.91
20.19
19.92
19.95
20.04
19.98
19.59
18.77
17.44
15.59
13.23
10.49
7.50
4.43
1.39
-1.59
-4.54
-7.47
-10.38
-13.23
-15.96
-18.54
-21.10
-23.85
-27.08
-31.06
-35.87
-41.17
-46.22
-49.94
-51.25
-49.43
-44.49
-37.12
-28.51
-19.85
-12.04
-5.44
0.04
4.73
8.96
12.92
16.64
19.97
22.69
24.58
25.53
25.64
25.20
24.59
24.16
24.05
24.20
24.35
24.27
23.78
22.82
21.42
19.60
17.38
14.79
11.87
8.68
5.32
1.87
-1.57
-4.87
-7.86
-10.45
-12.64
-14.59
-16.63
-19.13
-22.51
-27.04
-32.69
-38.99
-45.03
-49.58
-51.45
-49.93
-45.08
-37.72
-29.17
-20.71
-13.19
-6.86
-1.51
3.24
7.71
12.01
16.13
20.00
23.52
26.61
29.11
30.87
31.73
31.60
30.58
28.93
27.13
25.68
24.95
25.03
25.64
26.22
26.17
25.08
22.88
19.86
16.47
13.18
10.25
7.74
5.48
3.23
0.79
-1.96
-4.98
-8.16
-11.34
-14.41
-17.31
-20.09
-22.92
-25.97
-29.50
-33.67
-38.38
-43.20
-47.27
-49.56
-49.17
-45.77
-39.72
-31.96
-23.69
-15.87
-8.97
-2.98
2.45
7.64
12.69
17.49
21.73
25.11
27.45
28.76
29.24
29.17
28.88
28.54
28.22
27.87
27.43
26.90
26.35
25.85
25.42
24.98
24.36
23.39
21.95
20.04
17.75
15.28
12.80
10.49
8.42
6.55
4.75
2.83
0.59
-2.06
-5.11
-8.37
-11.60
-14.55
-17.05
-19.12
-21.00
-23.08
-25.75
-29.27
-33.68
-38.70
-43.84
-48.32
-51.31
-52.01
-49.88
-44.88
-37.57
-29.01
-20.42
-12.78
-6.49
-1.37
3.14
7.53
11.99
16.29
19.99
22.67
24.16
24.55
24.14
23.29
22.31
21.44
20.81
20.47
20.46
20.75
21.28
21.89
22.28
22.09
20.97
18.81
15.77
12.35
9.13
6.62
4.96
3.95
3.12
1.92
-0.02
-2.87
-6.48
-10.52
-14.54
-18.14
-21.08
-23.39
-25.40
-27.60
-30.52
-34.46
-39.33
-44.55
-49.12
-51.89
-51.89
-48.70
-42.61
-34.49
-25.55
-16.88
-9.19
-2.67
2.83
7.63
11.97
15.96
19.53
22.53
24.80
26.23
26.84
26.78
26.34
25.87
25.59
25.59
25.75
25.91
25.95
25.86
25.69
25.45
25.06
24.34
23.09
21.24
18.85
16.13
13.32
10.59
8.05
5.69
3.45
1.25
-1.04
-3.50
-6.22
-9.19
-12.38
-15.68
-18.94
-22.08
-25.07
-27.96
-30.92
-34.19
-38.04
-42.72
-48.21
-54.15
-59.71
-63.75
-65.11
-63.04
-57.53
-49.35
-39.83
-30.30
-21.67
-14.20
-7.55
-1.22
5.15
11.55
17.67
23.12
27.62
31.14
33.77
35.67
36.96
37.70
37.92
37.72
37.28
36.80
36.46
36.35
36.37
36.33
35.97
35.09
33.63
31.69
29.50
27.26
25.07
22.93
20.69
18.24
15.56
12.76
10.00
7.41
4.98
2.57
-0.05
-3.03
-6.42
-10.11
-13.91
-17.61
-21.08
-24.30
-27.34
-30.40
-33.71
-37.60
-42.29
-47.79
-53.71
-59.20
-63.09
-64.22
-61.90
-56.14
-47.72
-37.85
-27.82
-18.55
-10.40
-3.31
3.03
8.92
14.47
19.67
24.37
28.43
31.78
34.35
36.12
37.08
37.24
36.70
35.60
34.22
32.88
31.89
31.48
31.65
32.14
32.50
32.22
30.96
28.65
25.58
22.17
18.88
15.95
13.31
10.70
7.80
4.42
0.59
-3.45
-7.34
-10.73
-13.39
-15.40
-17.07
-18.97
-21.71
-25.77
-31.15
-37.31
-43.18
-47.42
-48.87
-46.94
-41.81
-34.35
-25.77
-17.24
-9.49
-2.78
3.01
8.15
12.82
17.05
20.75
23.78
26.03
27.50
28.28
28.52
28.40
28.05
27.59
27.05
26.44
25.79
25.16
24.64
24.29
24.04
23.68
22.92
21.47
19.24
16.36
13.18
10.10
7.44
5.29
3.50
1.75
-0.29
-2.83
-5.91
-9.38
-13.00
-16.53
-19.83
-22.96
-26.11
-29.56
-33.57
-38.21
-43.32
-48.36
-52.47
-54.64
-53.97
-50.06
-43.17
-34.23
-24.57
-15.43
-7.60
-1.22
4.06
8.81
13.53
18.44
23.52
28.61
33.48
37.88
41.52
44.10
45.41
45.38
44.18
42.17
39.81
37.56
35.72
34.43
33.59
32.94
32.13
30.83
28.83
26.17
23.07
19.90
16.94
14.25
11.68
8.90
5.64
1.83
-2.35
-6.58
-10.50
-13.93
-16.91
-19.64
-22.43
-25.60
-29.39
-33.91
-39.04
-44.28
-48.81
-51.54
-51.53
-48.31
-42.17
-34.07
-25.33
-17.16
-10.25
-4.63
0.13
4.59
9.06
13.49
17.53
20.72
22.75
23.60
23.50
22.81
21.90
21.05
20.38
19.96
19.77
19.77
19.86
19.89
19.68
19.06
17.90
16.12
13.71
10.75
7.36
3.76
0.28
-2.77
-5.20
-7.08
-8.66
-10.36
-12.54
-15.38
-18.91
-23.04
-27.62
-32.43
-37.07
-40.90
-43.08
-42.91
-39.99
-34.58
-27.44
-19.63
-12.13
-5.51
0.10
4.92
9.22
13.19
16.80
19.90
22.24
23.62
24.01
23.55
22.59
21.54
20.78
20.50
20.65
20.97
21.12
20.77
19.77
18.17
16.17
14.00
11.84
9.73
7.62
5.37
2.91
0.22
-2.64
-5.54
-8.44
-11.32
-14.21
-17.15
-20.17
-23.32
-26.75
-30.61
-34.94
-39.46
-43.49
-46.08
-46.28
-43.59
-38.13
-30.66
-22.31
-14.16
-6.93
-0.89
4.12
8.42
12.36
16.19
19.95
23.49
26.54
28.82
30.10
30.31
29.57
28.12
26.30
24.47
22.94
21.97
21.62
21.77
22.10
22.17
21.57
20.12
17.87
15.12
12.21
9.38
6.71
4.11
1.44
-1.41
-4.44
-7.55
-10.59
-13.43
-16.05
-18.52
-21.04
-23.85
-27.19
-31.18
-35.73
-40.42
-44.48
-47.00
-47.13
-44.43
-39.03
-31.65
-23.36
-15.23
-8.00
-1.92
3.16
7.60
11.72
15.64
19.28
22.43
24.90
26.61
27.62
28.05
28.06
27.74
27.11
26.23
25.20
24.19
23.36
22.77
22.33
21.79
20.83
19.27
17.10
14.53
11.85
9.33
7.07
5.01
2.99
0.84
-1.58
-4.24
-7.03
-9.74
-12.18
-14.25
-16.02
-17.74
-19.82
-22.66
-26.43
-30.93
-35.52
-39.23
-41.03
-40.22
-36.63
-30.77
-23.58
-16.20
-9.52
-3.97
0.45
4.12
7.45
10.73
13.96
16.94
19.33
20.85
21.39
21.05
20.08
18.83
17.59
16.57
15.83
15.33
14.97
14.64
14.22
13.64
12.87
11.88
10.64
9.09
7.19
4.96
2.49
-0.06
-2.47
-4.62
-6.51
-8.21
-9.89
-11.67
-13.61
-15.74
-18.16
-21.01
-24.39
-28.18
-31.90
-34.71
-35.60
-33.85
-29.34
-22.75
-15.26
-8.17
-2.40
1.82
4.91
7.51
10.12
12.80
15.24
16.98
17.75
17.59
16.83
15.91
15.10
14.51
14.07
13.64
13.14
12.58
12.01
11.48
11.00
10.48
9.78
8.76
7.31
5.39
3.09
0.55
-2.03
-4.48
-6.68
-8.64
-10.43
-12.17
-14.03
-16.19
-18.80
-22.02
-25.80
-29.88
-33.63
-36.18
-36.69
-34.66
-30.20
-24.01
-17.16
-10.63
-5.03
-0.42
3.50
7.12
10.66
14.05
17.04
19.29
20.59
20.87
20.25
18.94
17.27
15.58
14.12
13.06
12.40
12.06
11.91
11.81
11.64
11.27
10.56
9.45
7.93
6.09
4.06
1.92
-0.31
-2.67
-5.16
-7.76
-10.34
-12.79
-15.10
-17.34
-19.73
-22.42
-25.55
-29.05
-32.64
-35.81
-37.89
-38.25
-36.44
-32.51
-26.89
-20.41
-13.89
-7.95
-2.82
1.62
5.65
9.50
13.18
16.54
19.29
21.17
22.10
22.16
21.60
20.72
19.81
19.09
18.65
18.51
18.61
18.84
18.98
18.83
18.16
16.84
14.95
12.70
10.38
8.26
6.44
4.85
3.30
1.52
-0.69
-3.42
-6.60
-10.00
-13.31
-16.24
-18.67
-20.67
-22.54
-24.73
-27.66
-31.52
-36.15
-40.96
-44.99
-47.22
-46.86
-43.64
-37.93
-30.62
-22.80
-15.39
-8.88
-3.29
1.64
6.25
10.69
14.91
18.70
21.80
24.12
25.64
26.50
26.86
26.89
26.67
26.29
25.82
25.36
25.01
24.82
24.76
24.66
24.28
23.40
21.90
19.77
17.18
14.39
11.68
9.28
7.30
5.67
4.17
2.47
0.26
-2.66
-6.22
-10.14
-14.01
-17.49
-20.44
-22.91
-25.22
-27.71
-30.72
-34.44
-38.81
-43.46
-47.66
-50.49
-51.13
-49.07
-44.44
-37.87
-30.37
-22.83
-15.80
-9.36
-3.31
2.64
8.57
14.35
19.70
24.29
27.85
30.23
31.42
31.58
31.00
30.06
29.16
28.60
28.50
28.79
29.26
29.65
29.73
29.34
28.45
27.13
25.50
23.70
21.82
19.85
17.77
15.57
13.26
10.88
8.50
6.11
3.70
1.20
-1.41
-4.12
-6.86
-9.59
-12.30
-14.98
-17.64
-20.32
-23.08
-26.08
-29.57
-33.71
-38.46
-43.36
-47.65
-50.38
-50.75
-48.44
-43.65
-37.05
-29.54
-21.92
-14.72
-8.18
-2.23
3.28
8.51
13.53
18.29
22.62
26.28
29.04
30.72
31.35
31.14
30.40
29.51
28.75
28.26
28.04
28.00
28.05
28.11
28.12
27.94
27.44
26.43
24.80
22.56
19.86
16.92
14.01
11.29
8.84
6.60
4.44
2.24
-0.08
-2.53
-5.07
-7.60
-10.03
-12.30
-14.45
-16.63
-19.08
-22.06
-25.81
-30.44
-35.73
-41.18
-45.92
-48.97
-49.46
-46.93
-41.58
-34.16
-25.77
-17.49
-10.05
-3.71
1.67
6.41
10.72
14.66
18.06
20.73
22.54
23.57
24.04
24.21
24.29
24.37
24.43
24.39
24.24
24.03
23.88
23.88
23.97
23.99
23.68
22.78
21.15
18.82
15.97
12.91
9.97
7.39
5.27
3.48
1.76
-0.20
-2.65
-5.58
-8.81
-12.02
-14.95
-17.47
-19.70
-21.93
-24.51
-27.75
-31.77
-36.37
-41.01
-44.83
-46.89
-46.45
-43.23
-37.60
-30.34
-22.48
-14.85
-7.93
-1.79
3.73
8.80
13.50
17.70
21.19
23.81
25.51
26.45
26.89
27.11
27.32
27.56
27.76
27.80
27.66
27.39
27.12
26.92
26.75
26.38
25.57
24.13
22.03
19.37
16.36
13.27
10.32
7.70
5.47
3.56
1.76
-0.17
-2.43
-5.12
-8.16
-11.37
-14.53
-17.48
-20.15
-22.63
-25.09
-27.82
-31.14
-35.31
-40.38
-46.02
-51.45
-55.61
-57.39
-56.06
-51.50
-44.27
-35.45
-26.25
-17.66
-10.18
-3.87
1.58
6.55
11.35
16.07
20.62
24.82
28.43
31.26
33.22
34.25
34.45
34.01
33.18
32.31
31.68
31.46
31.64
32.03
32.31
32.19
31.46
30.09
28.21
26.02
23.73
21.48
19.32
17.20
15.06
12.83
10.48
8.05
5.58
3.12
0.67
-1.81
-4.40
-7.19
-10.26
-13.57
-17.02
-20.45
-23.70
-26.74
-29.66
-32.75
-36.37
-40.83
-46.21
-52.17
-57.93
-62.35
-64.25
-62.84
-57.99
-50.30
-40.91
-31.07
-21.72
-13.31
-5.77
1.16
7.76
14.11
20.09
25.49
30.10
33.81
36.56
38.40
39.40
39.69
39.40
38.75
37.94
37.25
36.91
37.08
37.74
38.67
39.45
39.65
38.98
37.40
35.15
32.58
30.01
27.60
25.30
23.02
20.63
18.10
15.49
12.84
10.25
7.75
5.40
3.20
1.13
-0.90
-3.03
-5.43
-8.24
-11.52
-15.19
-19.04
-22.83
-26.29
-29.32
-32.00
-34.58
-37.45
-40.97
-45.30
-50.28
-55.33
-59.54
-61.83
-61.34
-57.68
-51.12
-42.51
-33.02
-23.73
-15.29
-7.92
-1.37
4.68
10.47
16.04
21.20
25.70
29.29
31.87
33.52
34.40
34.73
34.71
34.48
34.12
33.72
33.42
33.35
33.59
34.10
34.66
34.93
34.60
33.46
31.52
29.02
26.29
23.69
21.43
19.60
18.12
16.83
15.51
13.98
12.16
10.02
7.65
5.17
2.69
0.30
-2.01
-4.32
-6.73
-9.33
-12.11
-14.99
-17.86
-20.59
-23.14
-25.54
-27.91
-30.43
-33.33
-36.85
-41.03
-45.65
-50.06
-53.31
-54.36
-52.48
-47.57
-40.26
-31.64
-22.93
-15.03
-8.30
-2.62
2.37
7.00
11.40
15.47
18.98
21.74
23.66
24.83
25.47
25.82
26.08
26.34
26.60
26.83
27.02
27.19
27.38
27.53
27.49
27.03
25.98
24.34
22.29
20.14
18.21
16.64
15.33
14.04
12.47
10.51
8.20
5.78
3.53
1.60
-0.05
-1.65
-3.48
-5.76
-8.48
-11.40
-14.17
-16.46
-18.19
-19.53
-20.86
-22.62
-25.19
-28.71
-33.03
-37.71
-42.01
-45.00
-45.80
-43.84
-39.06
-32.01
-23.69
-15.27
-7.67
-1.38
3.62
7.64
11.03
14.02
16.61
18.66
20.05
20.77
20.96
20.88
20.76
20.78
21.00
21.36
21.76
22.11
22.38
22.55
22.58
22.38
21.82
20.77
19.25
17.41
15.53
13.85
12.51
11.43
10.40
9.10
7.29
4.92
2.16
-0.70
-3.30
-5.37
-6.88
-7.95
-8.92
-10.13
-11.88
-14.25
-17.10
-20.13
-23.01
-25.53
-27.71
-29.78
-32.12
-35.12
-38.96
-43.44
-47.92
-51.45
-52.97
-51.68
-47.39
-40.58
-32.26
-23.61
-15.61
-8.73
-2.99
1.89
6.23
10.21
13.86
17.14
19.98
22.34
24.17
25.45
26.16
26.34
26.12
25.72
25.34
25.15
25.22
25.51
25.92
26.26
26.31
25.89
24.86
23.24
21.21
19.08
17.15
15.64
14.60
13.86
13.12
12.06
10.45
8.29
5.80
3.36
1.29
-0.23
-1.30
-2.26
-3.56
-5.48
-8.05
-11.04
-14.05
-16.75
-18.97
-20.81
-22.49
-24.27
-26.40
-29.07
-32.42
-36.48
-41.03
-45.48
-48.88
-50.14
-48.48
-43.76
-36.60
-28.21
-19.88
-12.56
-6.59
-1.73
2.53
6.63
10.67
14.46
17.67
20.06
21.61
22.51
23.06
23.52
23.99
24.41
24.65
24.59
24.27
23.83
23.47
23.34
23.41
23.49
23.32
22.67
21.53
20.05
18.47
17.01
15.72
14.49
13.10
11.42
9.41
7.21
5.03
3.07
1.44
0.11
-1.07
-2.32
-3.84
-5.76
-8.11
-10.80
-13.63
-16.39
-18.89
-21.07
-23.00
-24.92
-27.12
-29.89
-33.37
-37.40
-41.42
-44.61
-46.03
-44.97
-41.27
-35.33
-28.01
-20.38
-13.29
-7.22
-2.25
1.85
5.33
8.41
11.11
13.38
15.13
16.31
16.96
17.20
17.20
17.13
17.16
17.34
17.67
18.07
18.45
18.73
18.86
18.81
18.57
18.12
17.43
16.45
15.10
13.39
11.34
9.09
6.80
4.67
2.78
1.17
-0.25
-1.61
-3.07
-4.75
-6.73
-9.00
-11.50
-14.08
-16.65
-19.12
-21.49
-23.86
-26.37
-29.24
-32.67
-36.74
-41.29
-45.77
-49.29
-50.86
-49.70
-45.56
-38.95
-30.92
-22.69
-15.25
-9.05
-3.98
0.36
4.43
8.45
12.41
16.10
19.27
21.78
23.58
24.76
25.44
25.76
25.84
25.78
25.69
25.67
25.80
26.10
26.46
26.74
26.71
26.24
25.28
23.89
22.24
20.50
18.79
17.16
15.54
13.81
11.85
9.62
7.20
4.76
2.48
0.45
-1.43
-3.38
-5.66
-8.41
-11.60
-15.01
-18.34
-21.37
-24.09
-26.70
-29.56
-33.04
-37.41
-42.66
-48.44
-54.02
-58.39
-60.54
-59.73
-55.83
-49.34
-41.29
-32.80
-24.73
-17.46
-10.90
-4.76
1.19
7.04
12.68
17.98
22.85
27.25
31.09
34.23
36.52
37.86
38.34
38.19
37.72
37.19
36.78
36.52
36.39
36.32
36.18
35.86
35.24
34.26
32.92
31.28
29.40
27.33
25.09
22.68
20.11
17.41
14.65
11.91
9.25
6.74
4.38
2.12
-0.15
-2.61
-5.42
-8.62
-12.14
-15.75
-19.21
-22.37
-25.28
-28.22
-31.58
-35.76
-40.91
-46.76
-52.52
-57.07
-59.17
-57.98
-53.33
-45.88
-36.84
-27.60
-19.17
-11.98
-5.84
-0.27
5.20
10.76
16.28
21.44
25.89
29.42
31.97
33.65
34.62
35.05
35.06
34.78
34.34
33.90
33.64
33.68
33.99
34.34
34.43
33.96
32.80
30.99
28.75
26.34
23.94
21.61
19.34
17.08
14.81
12.52
10.25
8.00
5.71
3.29
0.64
-2.28
-5.42
-8.59
-11.56
-14.13
-16.29
-18.28
-20.50
-23.44
-27.43
-32.47
-38.17
-43.77
-48.28
-50.71
-50.31
-46.84
-40.65
-32.61
-23.87
-15.51
-8.21
-2.15
2.90
7.38
11.63
15.72
19.48
22.68
25.11
26.75
27.69
28.14
28.29
28.27
28.17
28.06
28.01
28.03
28.17
28.39
28.60
28.63
28.31
27.47
26.06
24.12
21.83
19.43
17.13
15.08
13.28
11.66
10.09
8.44
6.61
4.56
2.31
-0.17
-2.89
-5.86
-9.04
-12.36
-15.64
-18.68
-21.36
-23.64
-25.66
-27.70
-30.16
-33.45
-37.86
-43.32
-49.29
-54.70
-58.22
-58.66
-55.45
-48.91
-40.11
-30.51
-21.41
-13.53
-6.96
-1.31
3.89
8.94
13.90
18.62
22.90
26.59
29.62
31.94
33.55
34.45
34.68
34.39
33.80
33.19
32.80
32.75
32.99
33.29
33.36
32.90
31.77
30.02
27.84
25.57
23.49
21.73
20.28
18.96
17.52
15.77
13.62
11.11
8.37
5.56
2.87
0.41
-1.77
-3.77
-5.78
-8.01
-10.61
-13.58
-16.75
-19.85
-22.69
-25.21
-27.58
-30.09
-33.11
-36.92
-41.60
-46.90
-52.15
-56.37
-58.44
-57.51
-53.33
-46.42
-37.88
-29.04
-20.92
-13.96
-8.00
-2.62
2.60
7.81
12.91
17.65
21.80
25.24
27.90
29.75
30.79
31.03
30.64
29.88
29.12
28.68
28.75
29.26
29.95
30.44
30.39
29.67
28.35
26.63
24.77
22.90
20.99
18.92
16.57
13.92
11.11
8.30
5.66
3.24
0.98
-1.23
-3.51
-5.91
-8.42
-10.95
-13.40
-15.70
-17.87
-20.07
-22.56
-25.60
-29.35
-33.76
-38.48
-42.95
-46.42
-48.13
-47.50
-44.30
-38.79
-31.70
-24.03
-16.72
-10.33
-4.98
-0.32
4.08
8.53
13.04
17.32
20.97
23.71
25.41
26.18
26.28
26.00
25.61
25.25
24.97
24.77
24.61
24.50
24.46
24.49
24.47
24.22
23.53
22.27
20.48
18.40
16.30
14.42
12.77
11.22
9.54
7.59
5.39
3.07
0.86
-1.12
-2.88
-4.55
-6.35
-8.38
-10.69
-13.19
-15.77
-18.33
-20.85
-23.37
-26.00
-28.87
-32.14
-35.92
-40.20
-44.74
-49.02
-52.23
-53.52
-52.23
-48.20
-41.86
-34.14
-26.14
-18.75
-12.38
-6.95
-2.08
2.64
7.40
12.15
16.62
20.54
23.70
26.02
27.55
28.46
28.91
29.06
29.04
28.89
28.66
28.35
28.03
27.78
27.65
27.65
27.67
27.51
26.93
25.77
24.00
21.80
19.47
17.30
15.48
13.92
12.42
10.68
8.56
6.12
3.56
1.20
-0.78
-2.33
-3.62
-4.88
-6.34
-8.22
-10.58
-13.39
-16.49
-19.64
-22.58
-25.15
-27.34
-29.36
-31.56
-34.31
-37.85
-42.22
-47.08
-51.74
-55.23
-56.56
-55.03
-50.50
-43.47
-34.96
-26.13
-17.90
-10.74
-4.67
0.59
5.36
9.92
14.33
18.58
22.52
25.93
28.61
30.41
31.33
31.52
31.18
30.55
29.80
29.06
28.48
28.19
28.26
28.63
29.03
29.07
28.43
26.99
24.91
22.57
20.39
18.60
17.16
15.84
14.36
12.54
10.40
8.12
5.93
3.99
2.31
0.76
-0.87
-2.78
-5.05
-7.69
-10.55
-13.46
-16.24
-18.77
-21.05
-23.15
-25.25
-27.56
-30.32
-33.65
-37.50
-41.54
-45.14
-47.47
-47.77
-45.57
-40.93
-34.43
-27.00
-19.54
-12.70
-6.71
-1.47
3.26
7.67
11.76
15.39
18.36
20.55
21.99
22.81
23.17
23.27
23.21
23.09
23.01
23.03
23.24
23.64
24.16
24.61
24.76
24.37
23.31
21.59
19.42
17.09
14.91
13.11
11.73
10.65
9.65
8.49
7.02
5.23
3.19
1.07
-1.02
-3.03
-5.03
-7.13
-9.42
-11.94
-14.60
-17.21
-19.59
-21.63
-23.38
-25.10
-27.14
-29.88
-33.51
-37.93
-42.68
-46.98
-49.86
-50.46
-48.30
-43.47
-36.66
-28.88
-21.15
-14.17
-8.17
-2.97
1.73
6.18
10.39
14.21
17.46
20.03
21.95
23.31
24.23
24.80
25.10
25.22
25.26
25.32
25.47
25.75
26.10
26.43
26.58
26.40
25.77
24.62
23.05
21.20
19.27
17.45
15.83
14.42
13.11
11.78
10.32
8.69
6.87
4.96
3.00
1.07
-0.83
-2.76
-4.81
-7.07
-9.60
-12.41
-15.38
-18.35
-21.10
-23.45
-25.30
-26.76
-28.13
-29.84
-32.36
-36.01
-40.79
-46.29
-51.66
-55.73
-57.40
-55.92
-51.26
-44.10
-35.58
-26.97
-19.19
-12.61
-7.13
-2.38
2.05
6.41
10.79
15.13
19.32
23.18
26.53
29.12
30.82
31.59
31.60
31.13
30.54
30.10
29.98
30.18
30.61
31.13
31.54
31.64
31.24
30.23
28.63
26.61
24.42
22.37
20.66
19.28
18.04
16.67
14.92
12.68
10.05
7.26
4.61
2.31
0.40
-1.29
-3.05
-5.19
-7.88
-11.06
-14.51
-17.93
-21.09
-23.90
-26.43
-28.93
-31.71
-35.11
-39.39
-44.57
-50.33
-55.91
-60.23
-62.12
-60.77
-56.10
-48.79
-40.10
-31.44
-23.83
-17.67
-12.73
-8.40
-4.06
0.67
5.83
11.17
16.28
20.78
24.37
26.94
28.51
29.21
29.27
28.94
28.49
28.14
28.03
28.23
28.65
29.10
29.35
29.17
28.42
27.12
25.33
23.17
20.77
18.26
15.73
13.28
10.98
8.83
6.76
4.65
2.35
-0.24
-3.14
-6.26
-9.41
-12.38
-15.03
-17.35
-19.53
-21.88
-24.77
-28.52
-33.25
-38.76
-44.46
-49.43
-52.57
-52.97
-50.23
-44.65
-37.15
-28.94
-21.08
-14.17
-8.22
-2.88
2.28
7.51
12.73
17.62
21.76
24.85
26.79
27.70
27.88
27.71
27.51
27.50
27.74
28.21
28.86
29.58
30.29
30.85
31.09
30.87
30.08
28.71
26.82
24.55
22.04
19.43
16.84
14.33
11.94
9.62
7.28
4.79
2.08
-0.86
-3.97
-7.14
-10.28
-13.32
-16.20
-18.93
-21.56
-24.18
-27.03
-30.40
-34.60
-39.76
-45.74
-51.94
-57.39
-60.89
-61.40
-58.43
-52.19
-43.60
-33.96
-24.50
-16.02
-8.77
-2.50
3.21
8.73
14.22
19.63
24.72
29.21
32.86
35.49
37.06
37.71
37.69
37.39
37.14
37.15
37.46
37.97
38.49
38.84
38.87
38.50
37.67
36.36
34.56
32.34
29.88
27.43
25.21
23.33
21.70
20.05
18.09
15.63
12.66
9.36
6.04
2.96
0.28
-2.04
-4.19
-6.48
-9.16
-12.36
-16.00
-19.83
-23.54
-26.90
-29.90
-32.75
-35.86
-39.61
-44.28
-49.85
-55.94
-61.80
-66.38
-68.63
-67.73
-63.47
-56.27
-47.14
-37.31
-27.84
-19.30
-11.72
-4.74
2.08
8.99
15.97
22.72
28.89
34.16
38.38
41.53
43.66
44.88
45.31
45.14
44.58
43.92
43.45
43.32
43.53
43.84
43.90
43.31
41.86
39.59
36.82
34.01
31.60
29.81
28.53
27.42
26.03
24.01
21.24
17.86
14.20
10.69
7.67
5.30
3.51
2.02
0.40
-1.72
-4.55
-8.09
-12.07
-16.12
-19.89
-23.17
-25.97
-28.49
-31.08
-34.15
-38.03
-42.78
-48.11
-53.32
-57.40
-59.32
-58.36
-54.35
-47.77
-39.57
-30.80
-22.30
-14.51
-7.44
-0.92
5.20
10.97
16.26
20.88
24.68
27.56
29.52
30.63
31.02
30.91
30.55
30.20
30.09
30.33
30.90
31.64
32.31
32.66
32.46
31.60
30.07
27.99
25.57
23.02
20.51
18.11
15.81
13.51
11.18
8.85
6.62
4.56
2.68
0.85
-1.12
-3.39
-6.04
-8.99
-12.05
-15.07
-17.95
-20.72
-23.54
-26.59
-30.05
-34.06
-38.67
-43.74
-48.82
-53.20
-55.95
-56.20
-53.45
-47.80
-39.99
-31.16
-22.48
-14.77
-8.27
-2.72
2.38
7.45
12.61
17.70
22.35
26.22
29.07
30.85
31.70
31.85
31.59
31.22
30.94
30.87
31.02
31.31
31.66
31.97
32.14
32.05
31.57
30.56
28.96
26.82
24.31
21.70
19.27
17.24
15.69
14.54
13.59
12.55
11.20
9.40
7.23
4.86
2.51
0.30
-1.80
-3.93
-6.26
-8.88
-11.78
-14.85
-17.99
-21.07
-23.99
-26.69
-29.14
-31.38
-33.59
-36.09
-39.23
-43.30
-48.28
-53.73
-58.73
-62.09
-62.73
-60.03
-54.16
-45.99
-36.80
-27.82
-19.80
-12.91
-6.89
-1.29
4.18
9.58
14.80
19.65
23.95
27.56
30.38
32.31
33.34
33.59
33.32
32.85
32.49
32.40
32.62
32.99
33.31
33.36
32.99
32.16
30.93
29.43
27.77
26.02
24.21
22.34
20.44
18.59
16.83
15.11
13.33
11.36
9.13
6.75
4.38
2.24
0.39
-1.27
-2.99
-5.00
-7.45
-10.27
-13.28
-16.23
-18.90
-21.16
-23.08
-24.87
-26.86
-29.39
-32.71
-36.93
-41.82
-46.84
-51.12
-53.65
-53.56
-50.43
-44.47
-36.52
-27.75
-19.30
-11.90
-5.81
-0.83
3.38
7.17
10.73
14.13
17.35
20.29
22.76
24.60
25.66
25.96
25.70
25.13
24.52
24.04
23.70
23.47
23.29
23.13
22.94
22.62
22.02
21.02
19.57
17.72
15.63
13.49
11.42
9.48
7.71
6.06
4.52
3.02
1.51
-0.11
-1.95
-4.11
-6.60
-9.35
-12.19
-14.91
-17.33
-19.40
-21.21
-23.00
-25.06
-27.69
-31.02
-35.04
-39.44
-43.60
-46.66
-47.70
-46.03
-41.52
-34.69
-26.64
-18.62
-11.58
-5.88
-1.31
2.71
6.69
10.84
15.04
18.97
22.29
24.78
26.40
27.18
27.26
26.81
26.08
25.32
24.74
24.42
24.37
24.49
24.66
24.78
24.76
24.44
23.72
22.50
20.80
18.77
16.65
14.66
12.93
11.45
10.09
8.65
7.01
5.13
3.06
0.91
-1.18
-3.10
-4.79
-6.29
-7.67
-9.09
-10.73
-12.70
-15.07
-17.76
-20.63
-23.49
-26.20
-28.75
-31.25
-33.91
-37.01
-40.73
-45.05
-49.63
-53.73
-56.38
-56.63
-53.90
-48.26
-40.46
-31.68
-23.10
-15.52
-9.20
-3.92
0.73
5.09
9.35
13.49
17.41
20.93
23.85
25.98
27.21
27.61
27.41
26.98
26.65
26.58
26.78
27.13
27.52
27.85
28.09
28.16
27.91
27.23
26.03
24.36
22.35
20.22
18.16
16.31
14.73
13.41
12.27
11.19
10.05
8.75
7.27
5.63
3.90
2.12
0.32
-1.51
-3.43
-5.50
-7.77
-10.26
-12.92
-15.61
-18.15
-20.36
-22.19
-23.70
-25.13
-26.79
-28.98
-31.97
-35.85
-40.46
-45.32
-49.59
-52.27
-52.42
-49.58
-43.97
-36.48
-28.33
-20.67
-14.15
-8.84
-4.39
-0.34
3.64
7.59
11.37
14.73
17.50
19.58
20.97
21.73
21.98
21.89
21.66
21.47
21.44
21.67
22.19
22.94
23.81
24.55
24.91
24.65
23.69
22.15
20.30
18.45
16.83
15.46
14.21
12.86
11.23
9.28
7.08
4.79
2.58
0.55
-1.24
-2.84
-4.36
-5.96
-7.83
-10.11
-12.84
-15.93
-19.17
-22.28
-25.06
-27.45
-29.65
-32.06
-35.16
-39.21
-44.12
-49.29
-53.67
-56.10
-55.67
-52.09
-45.76
-37.71
-29.18
-21.20
-14.34
-8.62
-3.71
0.85
5.36
9.88
14.26
18.23
21.53
24.03
25.74
26.76
27.33
27.67
27.99
28.34
28.75
29.16
29.51
29.78
29.92
29.90
29.65
29.13
28.39
27.53
26.69
25.89
25.04
23.93
22.35
20.23
17.76
15.25
13.05
11.28
9.85
8.52
7.06
5.38
3.53
1.64
-0.22
-2.06
-4.05
-6.36
-9.07
-12.18
-15.53
-18.93
-22.16
-25.08
-27.69
-30.11
-32.58
-35.37
-38.78
-42.96
-47.89
-53.22
-58.29
-62.16
-63.88
-62.74
-58.56
-51.81
-43.41
-34.49
-26.00
-18.47
-11.97
-6.21
-0.78
4.66
10.23
15.81
21.12
25.79
29.48
32.03
33.46
33.98
33.90
33.54
33.17
33.02
33.21
33.80
34.68
35.63
36.31
36.44
35.84
34.53
32.74
30.71
28.74
26.95
25.39
24.02
22.73
21.40
19.95
18.27
16.29
14.01
11.50
8.87
6.28
3.87
1.65
-0.46
-2.62
-4.99
-7.69
-10.68
-13.82
-16.86
-19.61
-21.99
-24.10
-26.21
-28.70
-31.94
-36.17
-41.27
-46.70
-51.50
-54.54
-54.89
-52.10
-46.43
-38.71
-30.07
-21.51
-13.70
-6.87
-0.96
4.23
8.83
12.92
16.52
19.64
22.32
24.62
26.54
28.05
29.07
29.57
29.57
29.23
28.85
28.72
29.05
29.85
30.85
31.67
31.90
31.30
29.85
27.78
25.40
23.07
21.01
19.34
17.97
16.69
15.26
13.52
11.45
9.18
6.92
4.80
2.81
0.77
-1.53
-4.29
-7.52
-11.07
-14.71
-18.14
-21.20
-23.85
-26.23
-28.68
-31.61
-35.44
-40.32
-46.00
-51.74
-56.41
-58.79
-57.99
-53.77
-46.64
-37.69
-28.23
-19.38
-11.76
-5.47
-0.20
4.51
9.03
13.57
18.10
22.46
26.40
29.69
32.16
33.78
34.62
34.85
34.68
34.29
33.85
33.48
33.28
33.29
33.44
33.52
33.28
32.49
31.08
29.19
27.10
25.13
23.44
22.03
20.70
19.18
17.26
14.90
12.20
9.39
6.68
4.24
2.01
-0.15
-2.55
-5.39
-8.71
-12.33
-15.87
-19.02
-21.61
-23.78
-25.88
-28.34
-31.55
-35.71
-40.79
-46.49
-52.16
-56.86
-59.53
-59.30
-55.80
-49.34
-40.91
-31.77
-23.08
-15.50
-9.11
-3.62
1.44
6.34
11.16
15.79
20.05
23.83
27.02
29.56
31.36
32.40
32.74
32.57
32.17
31.80
31.67
31.81
32.12
32.39
32.40
31.96
31.01
29.59
27.90
26.19
24.63
23.29
22.03
20.63
18.87
16.70
14.19
11.59
9.17
7.13
5.48
4.03
2.48
0.51
-2.06
-5.17
-8.57
-11.94
-14.98
-17.60
-19.92
-22.22
-24.78
-27.88
-31.62
-36.00
-40.77
-45.45
-49.24
-51.24
-50.66
-47.19
-41.15
-33.46
-25.32
-17.75
-11.27
-5.83
-1.02
3.59
8.16
12.55
16.45
19.58
21.88
23.41
24.36
24.86
25.01
24.93
24.78
24.73
24.93
25.36
25.87
26.20
26.13
25.58
24.61
23.36
21.99
20.53
18.94
17.12
15.02
12.68
10.27
7.96
5.85
3.94
2.08
0.08
-2.16
-4.67
-7.36
-10.11
-12.81
-15.39
-17.86
-20.22
-22.56
-25.01
-27.78
-31.13
-35.17
-39.73
-44.25
-47.89
-49.69
-48.96
-45.49
-39.68
-32.43
-24.76
-17.54
-11.23
-5.80
-0.94
3.72
8.40
13.11
17.60
21.56
24.72
26.98
28.40
29.15
29.47
29.57
29.58
29.58
29.57
29.52
29.37
29.10
28.68
28.12
27.42
26.60
25.63
24.49
23.14
21.55
19.76
17.82
15.79
13.74
11.69
9.60
7.48
5.33
3.20
1.16
-0.73
-2.48
-4.17
-5.95
-8.01
-10.46
-13.32
-16.50
-19.78
-22.95
-25.86
-28.47
-30.86
-33.27
-36.00
-39.38
-43.60
-48.55
-53.72
-58.20
-60.92
-60.99
-58.00
-52.22
-44.52
-36.01
-27.72
-20.24
-13.71
-7.89
-2.44
2.93
8.30
13.59
18.57
23.01
26.67
29.42
31.20
32.10
32.27
31.99
31.52
31.14
31.04
31.29
31.83
32.55
33.24
33.67
33.62
32.96
31.63
29.70
27.35
24.80
22.27
19.93
17.89
16.17
14.70
13.30
11.80
10.02
7.92
5.60
3.25
1.02
-1.05
-3.11
-5.39
-8.07
-11.10
-14.27
-17.27
-19.85
-21.97
-23.83
-25.74
-28.08
-31.15
-35.11
-39.94
-45.29
-50.49
-54.59
-56.56
-55.66
-51.69
-45.14
-37.01
-28.52
-20.64
-13.86
-8.16
-3.14
1.63
6.40
11.11
15.51
19.24
22.10
24.06
25.24
25.85
26.12
26.21
26.25
26.39
26.71
27.24
27.86
28.36
28.48
27.98
26.84
25.18
23.22
21.17
19.16
17.20
15.24
13.26
11.28
9.37
7.54
5.75
3.85
1.66
-0.93
-3.92
-7.14
-10.35
-13.29
-15.85
-18.08
-20.18
-22.41
-25.07
-28.37
-32.44
-37.23
-42.43
-47.40
-51.25
-52.98
-51.88
-47.77
-41.11
-32.88
-24.24
-16.12
-9.04
-3.01
2.30
7.28
12.18
16.99
21.46
25.28
28.20
30.16
31.29
31.85
32.07
32.07
31.87
31.48
31.00
30.63
30.59
30.93
31.47
31.82
31.55
30.37
28.32
25.75
23.14
20.87
19.10
17.71
16.40
14.86
12.92
10.60
8.07
5.51
3.08
0.82
-1.32
-3.46
-5.75
-8.34
-11.27
-14.49
-17.81
-21.01
-23.87
-26.32
-28.49
-30.73
-33.49
-37.21
-42.11
-48.04
-54.32
-59.91
-63.55
-64.17
-61.29
-55.14
-46.63
-37.06
-27.63
-19.13
-11.85
-5.62
-0.11
5.01
9.92
14.65
19.13
23.26
26.91
29.98
32.34
33.92
34.68
34.70
34.17
33.39
32.68
32.32
32.39
32.83
33.40
33.78
33.69
32.91
31.40
29.30
26.87
24.46
22.36
20.71
19.45
18.36
17.14
15.54
13.48
11.01
8.28
5.47
2.73
0.17
-2.20
-4.43
-6.63
-8.95
-11.44
-14.11
-16.83
-19.49
-22.02
-24.47
-27.01
-29.94
-33.51
-37.83
-42.79
-47.88
-52.29
-55.03
-55.20
-52.42
-46.91
-39.46
-31.15
-22.96
-15.51
-8.95
-3.16
2.11
7.05
11.71
16.03
19.85
22.97
25.22
26.53
27.00
26.93
26.75
26.81
27.28
28.11
29.07
29.92
30.39
30.36
29.77
28.67
27.19
25.50
23.78
22.13
20.55
18.95
17.22
15.26
13.06
10.65
8.14
5.63
3.18
0.82
-1.53
-3.97
-6.61
-9.45
-12.41
-15.32
-18.03
-20.56
-23.02
-25.66
-28.69
-32.27
-36.42
-41.03
-45.75
-49.95
-52.74
-53.20
-50.75
-45.39
-37.81
-29.14
-20.56
-12.83
-6.20
-0.42
4.90
10.06
15.09
19.76
23.76
26.80
28.77
29.78
30.10
30.07
29.99
30.04
30.24
30.53
30.85
31.13
31.30
31.23
30.77
29.78
28.21
26.21
24.06
22.07
20.43
19.18
18.18
17.19
15.95
14.27
12.06
9.39
6.46
3.59
1.11
-0.82
-2.24
-3.47
-4.95
-7.07
-10.02
-13.69
-17.70
-21.61
-25.04
-27.82
-30.08
-32.19
-34.61
-37.75
-41.84
-46.73
-51.90
-56.40
-59.13
-59.12
-55.91
-49.74
-41.47
-32.34
-23.51
-15.70
-9.09
-3.42
1.71
6.58
11.28
15.75
19.89
23.63
26.88
29.56
31.51
32.59
32.80
32.29
31.38
30.43
29.72
29.39
29.40
29.62
29.82
29.83
29.46
28.63
27.33
25.62
23.65
21.59
19.54
17.56
15.57
13.51
11.32
9.03
6.73
4.54
2.54
0.73
-1.02
-2.88
-5.03
-7.58
-10.46
-13.48
-16.40
-18.97
-21.12
-22.90
-24.58
-26.50
-29.04
-32.48
-36.84
-41.81
-46.68
-50.46
-52.09
-50.86
-46.63
-39.96
-31.91
-23.68
-16.21
-9.94
-4.75
-0.21
4.15
8.58
13.05
17.26
20.87
23.61
25.42
26.43
26.86
26.90
26.69
26.33
25.89
25.50
25.27
25.24
25.32
25.32
25.05
24.37
23.25
21.71
19.85
17.74
15.44
13.06
10.71
8.51
6.55
4.84
3.33
1.94
0.51
-1.11
-3.09
-5.54
-8.41
-11.52
-14.56
-17.27
-19.53
-21.43
-23.24
-25.32
-28.06
-31.72
-36.32
-41.47
-46.40
-50.03
-51.30
-49.53
-44.71
-37.56
-29.24
-20.94
-13.53
-7.33
-2.18
2.31
6.53
10.71
14.88
18.86
22.40
25.28
27.33
28.58
29.18
29.32
29.20
28.92
28.52
28.06
27.63
27.38
27.40
27.67
27.94
27.88
27.16
25.64
23.45
20.92
18.46
16.33
14.56
12.98
11.33
9.46
7.39
5.30
3.40
1.79
0.43
-0.86
-2.33
-4.17
-6.50
-9.29
-12.39
-15.58
-18.61
-21.27
-23.54
-25.59
-27.76
-30.44
-33.92
-38.23
-43.07
-47.82
-51.64
-53.64
-53.16
-49.92
-44.27
-37.01
-29.21
-21.82
-15.43
-10.07
-5.41
-0.93
3.75
8.76
13.92
18.88
23.19
26.50
28.60
29.49
29.36
28.58
27.57
26.70
26.21
26.15
26.41
26.80
27.01
26.81
26.07
24.76
23.06
21.22
19.47
17.96
16.68
15.50
14.25
12.85
11.24
9.47
7.55
5.54
3.43
1.28
-0.88
-2.99
-5.03
-6.96
-8.79
-10.54
-12.29
-14.16
-16.32
-18.92
-22.05
-25.68
-29.69
-33.72
-37.25
-39.60
-40.13
-38.42
-34.52
-28.95
-22.57
-16.24
-10.50
-5.50
-1.02
3.23
7.43
11.50
15.24
18.44
20.94
22.74
23.88
24.40
24.37
23.91
23.17
22.38
21.73
21.42
21.50
21.93
22.50
22.89
22.83
22.12
20.77
18.95
16.96
15.06
13.40
11.98
10.70
9.41
8.05
6.54
4.94
3.31
1.70
0.12
-1.48
-3.25
-5.34
-7.84
-10.72
-13.75
-16.66
-19.19
-21.27
-23.01
-24.69
-26.67
-29.27
-32.61
-36.54
-40.58
-43.92
-45.67
-45.14
-42.08
-36.82
-30.16
-23.09
-16.38
-10.43
-5.24
-0.54
3.95
8.38
12.72
16.74
20.14
22.68
24.26
24.91
24.87
24.44
23.91
23.47
23.19
23.09
23.13
23.26
23.37
23.36
23.08
22.40
21.30
19.85
18.20
16.56
15.04
13.70
12.48
11.24
9.81
8.05
5.94
3.65
1.45
-0.38
-1.66
-2.47
-3.10
-3.95
-5.40
-7.63
-10.57
-13.91
-17.24
-20.19
-22.52
-24.25
-25.57
-26.89
-28.63
-31.15
-34.55
-38.58
-42.59
-45.67
-46.89
-45.64
-41.84
-36.00
-29.07
-22.04
-15.65
-10.22
-5.64
-1.63
2.08
5.60
8.90
11.89
14.47
16.58
18.19
19.27
19.82
19.91
19.74
19.52
19.48
19.71
20.20
20.78
21.27
21.47
21.25
20.58
19.48
18.06
16.48
14.87
13.31
11.80
10.28
8.68
7.00
5.26
3.55
1.89
0.24
-1.50
-3.46
-5.70
-8.20
-10.89
-13.64
-16.34
-18.90
-21.32
-23.67
-26.13
-28.93
-32.26
-36.08
-40.02
-43.33
-45.13
-44.67
-41.66
-36.44
-29.83
-22.87
-16.38
-10.80
-6.06
-1.84
2.17
6.15
10.02
13.59
16.66
19.13
21.01
22.39
23.36
24.00
24.35
24.48
24.45
24.37
24.35
24.46
24.64
24.78
24.65
24.10
23.06
21.59
19.89
18.14
16.44
14.75
12.96
10.94
8.69
6.35
4.18
2.38
1.00
-0.14
-1.35
-2.95
-5.13
-7.86
-10.96
-14.16
-17.28
-20.20
-22.95
-25.64
-28.43
-31.56
-35.27
-39.64
-44.46
-49.12
-52.67
-54.16
-52.91
-48.85
-42.56
-35.02
-27.30
-20.17
-13.93
-8.48
-3.50
1.33
6.21
11.14
15.99
20.58
24.65
27.99
30.44
31.92
32.49
32.34
31.71
30.87
30.08
29.51
29.32
29.54
30.09
30.73
31.12
30.93
29.97
28.28
26.12
23.84
21.75
19.96
18.37
16.75
14.91
12.80
10.53
8.27
6.19
4.32
2.49
0.47
-1.98
-4.94
-8.30
-11.81
-15.19
-18.27
-21.02
-23.58
-26.15
-28.91
-32.05
-35.72
-39.94
-44.57
-49.10
-52.70
-54.42
-53.49
-49.70
-43.49
-35.83
-27.85
-20.41
-13.91
-8.23
-2.97
2.21
7.48
12.72
17.62
21.83
25.07
27.26
28.51
29.06
29.21
29.21
29.22
29.28
29.39
29.54
29.76
30.07
30.42
30.66
30.50
29.62
27.80
25.12
21.87
18.58
15.70
13.53
11.99
10.72
9.29
7.33
4.70
1.52
-1.95
-5.43
-8.71
-11.68
-14.37
-16.87
-19.36
-22.10
-25.36
-29.36
-34.11
-39.29
-44.22
-47.96
-49.56
-48.45
-44.56
-38.41
-30.88
-22.93
-15.29
-8.36
-2.21
3.34
8.44
13.25
17.79
22.00
25.75
28.87
31.22
32.74
33.47
33.55
33.18
32.56
31.91
31.38
31.14
31.23
31.56
31.93
32.04
31.62
30.53
28.77
26.49
23.83
20.97
18.07
15.27
12.67
10.34
8.21
6.09
3.78
1.09
-1.98
-5.28
-8.55
-11.56
-14.22
-16.57
-18.84
-21.26
-24.08
-27.47
-31.61
-36.52
-42.02
-47.63
-52.51
-55.65
-56.13
-53.50
-47.99
-40.41
-31.95
-23.68
-16.27
-9.86
-4.13
1.37
6.98
12.70
18.31
23.41
27.74
31.13
33.63
35.37
36.47
37.04
37.13
36.86
36.38
35.86
35.47
35.26
35.16
35.02
34.65
33.91
32.76
31.26
29.53
27.70
25.81
23.83
21.66
19.25
16.63
13.94
11.35
9.00
6.95
5.13
3.40
1.57
-0.54
-3.06
-6.02
-9.34
-12.82
-16.22
-19.33
-22.10
-24.66
-27.30
-30.37
-34.14
-38.66
-43.62
-48.34
-51.87
-53.20
-51.62
-47.03
-40.06
-31.86
-23.73
-16.61
-10.83
-6.13
-1.94
2.27
6.66
11.08
15.19
18.69
21.47
23.53
24.98
25.83
26.11
25.79
25.00
23.95
22.96
22.32
22.24
22.69
23.46
24.19
24.47
23.96
22.59
20.50
18.03
15.57
13.37
11.47
9.70
7.84
5.71
3.24
0.52
-2.29
-4.99
-7.46
-9.61
-11.49
-13.20
-14.97
-17.06
-19.73
-23.15
-27.34
-32.08
-36.90
-41.04
-43.65
-43.98
-41.64
-36.83
-30.25
-22.90
-15.73
-9.31
-3.74
1.20
5.84
10.33
14.60
18.35
21.29
23.25
24.28
24.59
24.50
24.29
24.14
24.13
24.21
24.33
24.43
24.48
24.46
24.29
23.88
23.09
21.85
20.17
18.10
15.81
13.45
11.21
9.19
7.46
6.00
4.68
3.32
1.70
-0.35
-2.87
-5.75
-8.76
-11.62
-14.12
-16.24
-18.11
-20.00
-22.20
-24.99
-28.49
-32.68
-37.28
-41.76
-45.35
-47.24
-46.77
-43.76
-38.60
-32.09
-25.19
-18.62
-12.68
-7.26
-2.07
3.10
8.25
13.14
17.47
20.97
23.51
25.11
25.92
26.17
26.12
25.99
25.84
25.63
25.26
24.68
23.93
23.12
22.35
21.60
20.74
19.63
18.20
16.58
15.02
13.75
12.88
12.32
11.87
11.27
10.35
9.05
7.45
5.71
3.97
2.36
0.85
-0.67
-2.39
-4.50
-7.07
-10.00
-13.08
-16.01
-18.57
-20.70
-22.51
-24.25
-26.31
-29.03
-32.64
-37.01
-41.60
-45.47
-47.55
-47.01
-43.66
-38.05
-31.24
-24.39
-18.30
-13.21
-8.85
-4.77
-0.62
3.64
7.79
11.56
14.73
17.24
19.12
20.45
21.27
21.60
21.51
21.18
20.84
20.71
20.90
21.33
21.78
21.98
21.75
21.00
19.79
18.25
16.54
14.82
13.17
11.62
10.11
8.54
6.83
4.98
3.09
1.35
-0.07
-1.14
-2.04
-3.04
-4.43
-6.38
-8.81
-11.51
-14.19
-16.60
-18.62
-20.29
-21.79
-23.42
-25.53
-28.38
-32.00
-36.04
-39.74
-42.08
-42.17
-39.55
-34.42
-27.65
-20.35
-13.55
-7.79
-3.04
1.03
4.83
8.55
12.10
15.26
17.82
19.72
21.03
21.85
22.24
22.22
21.76
20.98
20.10
19.39
19.11
19.33
19.93
20.58
20.98
20.87
20.15
18.92
17.36
15.61
13.79
11.96
10.14
8.38
6.71
5.23
3.93
2.79
1.67
0.43
-1.08
-2.93
-5.11
-7.54
-10.11
-12.72
-15.27
-17.66
-19.83
-21.77
-23.53
-25.27
-27.20
-29.53
-32.46
-36.03
-39.96
-43.71
-46.42
-47.23
-45.55
-41.33
-35.15
-27.99
-20.93
-14.68
-9.45
-5.00
-0.90
3.18
7.31
11.35
15.05
18.21
20.77
22.70
24.03
24.81
25.09
24.92
24.49
23.98
23.59
23.45
23.58
23.87
24.12
24.10
23.66
22.75
21.42
19.81
18.09
16.42
14.91
13.64
12.57
11.58
10.48
9.09
7.33
5.25
3.01
0.78
-1.32
-3.27
-5.16
-7.12
-9.25
-11.54
-13.91
-16.23
-18.34
-20.19
-21.85
-23.50
-25.44
-27.98
-31.39
-35.72
-40.73
-45.77
-49.89
-52.10
-51.61
-48.19
-42.24
-34.72
-26.80
-19.53
-13.46
-8.62
-4.66
-1.07
2.45
6.00
9.41
12.43
14.91
16.80
18.21
19.26
20.06
20.68
21.15
21.50
21.79
22.05
22.24
22.28
22.09
21.61
20.85
19.90
18.81
17.65
16.42
15.07
13.58
11.93
10.16
8.36
6.61
4.90
3.15
1.19
-1.13
-3.84
-6.80
-9.77
-12.49
-14.86
-16.92
-18.88
-20.99
-23.47
-26.49
-30.13
-34.35
-38.84
-43.02
-46.08
-47.19
-45.84
-42.02
-36.27
-29.44
-22.39
-15.70
-9.61
-4.10
0.97
5.74
10.23
14.37
18.01
21.01
23.26
24.78
25.73
26.32
26.76
27.15
27.50
27.77
27.96
28.13
28.41
28.84
29.34
29.67
29.49
28.58
26.90
24.71
22.40
20.37
18.82
17.65
16.56
15.20
13.37
11.18
8.93
6.96
5.39
4.04
2.48
0.32
-2.64
-6.26
-10.15
-13.88
-17.14
-19.87
-22.23
-24.50
-26.96
-29.89
-33.54
-38.03
-43.27
-48.76
-53.64
-56.76
-57.12
-54.21
-48.28
-40.27
-31.44
-22.94
-15.47
-9.13
-3.66
1.32
6.06
10.63
14.95
18.92
22.49
25.63
28.25
30.28
31.61
32.22
32.23
31.91
31.57
31.52
31.85
32.45
33.02
33.21
32.77
31.66
30.05
28.24
26.48
24.91
23.48
22.03
20.40
18.50
16.31
13.92
11.42
8.92
6.52
4.28
2.18
0.09
-2.18
-4.80
-7.87
-11.25
-14.72
-18.02
-21.00
-23.67
-26.23
-29.00
-32.28
-36.32
-41.07
-46.20
-50.94
-54.29
-55.27
-53.31
-48.47
-41.50
-33.48
-25.49
-18.20
-11.79
-6.04
-0.65
4.57
9.60
14.25
18.28
21.54
23.95
25.58
26.62
27.28
27.77
28.21
28.63
28.99
29.26
29.48
29.67
29.85
29.90
29.65
28.90
27.52
25.54
23.12
20.47
17.84
15.39
13.23
11.36
9.68
8.01
6.10
3.75
0.87
-2.49
-6.14
-9.80
-13.21
-16.24
-18.92
-21.45
-24.15
-27.40
-31.49
-36.52
-42.24
-48.00
-52.87
-55.79
-55.95
-53.05
-47.39
-39.81
-31.34
-22.87
-14.95
-7.72
-1.09
5.15
11.13
16.86
22.22
27.02
31.02
34.02
35.92
36.80
36.87
36.53
36.17
36.12
36.53
37.36
38.38
39.25
39.63
39.26
38.07
36.16
33.78
31.18
28.56
25.97
23.39
20.79
18.14
15.48
12.83
10.17
7.45
4.60
1.60
-1.53
-4.69
-7.78
-10.72
-13.53
-16.23
-18.92
-21.68
-24.64
-27.94
-31.72
-36.11
-41.10
-46.38
-51.30
-54.91
-56.26
-54.71
-50.24
-43.48
-35.50
-27.41
-19.98
-13.41
-7.43
-1.58
4.45
10.66
16.74
22.24
26.76
30.08
32.23
33.36
33.74
33.67
33.39
33.09
32.90
32.89
33.09
33.43
33.79
33.97
33.76
33.01
31.65
29.76
27.50
25.05
22.58
20.12
17.66
15.14
12.55
9.95
7.43
5.13
3.05
1.15
-0.78
-2.93
-5.46
-8.36
-11.46
-14.50
-17.21
-19.50
-21.48
-23.44
-25.77
-28.80
-32.72
-37.45
-42.56
-47.38
-50.99
-52.53
-51.38
-47.48
-41.32
-33.86
-26.17
-19.10
-13.02
-7.82
-3.08
1.66
6.61
11.70
16.59
20.84
24.14
26.34
27.52
27.90
27.75
27.29
26.69
26.05
25.50
25.14
25.10
25.38
25.80
26.07
25.80
24.75
22.86
20.32
17.47
14.68
12.20
10.13
8.37
6.69
4.81
2.56
-0.10
-3.00
-5.89
-8.51
-10.71
-12.55
-14.25
-16.12
-18.48
-21.63
-25.74
-30.76
-36.35
-41.77
-46.03
-48.08
-47.25
-43.47
-37.34
-29.89
-22.22
-15.11
-8.86
-3.36
1.67
6.48
11.13
15.50
19.34
22.42
24.58
25.85
26.42
26.58
26.63
26.80
27.20
27.78
28.39
28.86
29.06
28.90
28.37
27.51
26.35
24.91
23.21
21.20
18.93
16.49
14.09
11.94
10.15
8.68
7.29
5.63
3.46
0.66
-2.65
-6.19
-9.67
-12.85
-15.62
-17.99
-20.08
-22.09
-24.29
-27.02
-30.54
-34.94
-39.94
-44.86
-48.70
-50.39
-49.19
-44.96
-38.29
-30.26
-22.05
-14.56
-8.14
-2.69
2.23
7.00
11.80
16.54
20.94
24.65
27.46
29.30
30.28
30.62
30.56
30.27
29.87
29.40
28.93
28.57
28.40
28.43
28.54
28.43
27.81
26.49
24.49
22.02
19.45
17.08
15.04
13.28
11.62
9.86
7.91
5.84
3.77
1.84
0.07
-1.66
-3.53
-5.72
-8.30
-11.18
-14.16
-16.99
-19.51
-21.69
-23.65
-25.66
-28.03
-31.10
-35.03
-39.74
-44.76
-49.24
-52.14
-52.56
-50.06
-44.82
-37.62
-29.54
-21.58
-14.41
-8.24
-2.95
1.74
6.07
10.12
13.83
17.02
19.53
21.24
22.21
22.63
22.78
22.89
23.08
23.32
23.54
23.65
23.63
23.53
23.36
23.03
22.39
21.27
19.58
17.39
14.85
12.22
9.74
7.63
5.93
4.56
3.25
1.69
-0.40
-3.08
-6.22
-9.48
-12.51
-15.05
-17.05
-18.66
-20.18
-21.98
-24.41
-27.71
-31.86
-36.51
-40.95
-44.25
-45.52
-44.23
-40.38
-34.52
-27.53
-20.29
-13.51
-7.54
-2.45
1.92
5.76
9.26
12.52
15.51
18.10
20.11
21.42
22.02
22.07
21.82
21.54
21.35
21.31
21.38
21.53
21.73
21.88
21.83
21.31
20.09
18.05
15.31
12.23
9.24
6.73
4.84
3.47
2.30
0.89
-1.12
-3.86
-7.19
-10.71
-13.93
-16.50
-18.39
-19.89
-21.55
-23.93
-27.37
-31.84
-36.92
-41.87
-45.82
-47.96
-47.70
-44.83
-39.60
-32.68
-25.00
-17.49
-10.81
-5.22
-0.57
3.51
7.43
11.37
15.31
19.00
22.13
24.45
25.87
26.47
26.50
26.27
26.01
25.88
25.91
26.05
26.20
26.26
26.12
25.70
24.94
23.81
22.36
20.73
19.04
17.36
15.64
13.78
11.66
9.24
6.64
4.06
1.69
-0.39
-2.24
-4.06
-6.02
-8.26
-10.76
-13.43
-16.12
-18.72
-21.22
-23.69
-26.29
-29.26
-32.83
-37.16
-42.17
-47.43
-52.16
-55.35
-56.08
-53.79
-48.59
-41.25
-32.90
-24.69
-17.41
-11.32
-6.24
-1.70
2.73
7.29
11.95
16.46
20.45
23.62
25.81
27.07
27.64
27.80
27.76
27.62
27.39
27.04
26.61
26.22
25.94
25.80
25.62
25.14
24.15
22.54
20.43
18.04
15.68
13.55
11.75
10.22
8.81
7.26
5.38
3.01
0.17
-2.95
-6.09
-8.96
-11.43
-13.54
-15.48
-17.55
-20.04
-23.15
-26.95
-31.37
-36.08
-40.49
-43.80
-45.19
-44.08
-40.38
-34.56
-27.51
-20.20
-13.37
-7.34
-2.03
2.85
7.56
12.16
16.50
20.24
23.07
24.80
25.48
25.41
25.00
24.68
24.66
24.97
25.39
25.66
25.64
25.34
24.95
24.62
24.36
23.97
23.18
21.78
19.74
17.27
14.67
12.23
10.09
8.20
6.40
4.53
2.49
0.23
-2.24
-4.91
-7.72
-10.61
-13.53
-16.42
-19.29
-22.11
-24.95
-27.86
-31.06
-34.75
-39.10
-43.92
-48.62
-52.23
-53.74
-52.51
-48.53
-42.42
-35.18
-27.73
-20.59
-13.90
-7.52
-1.29
4.82
10.70
16.14
20.88
24.74
27.57
29.36
30.26
30.57
30.60
30.64
30.78
31.02
31.32
31.64
31.99
32.35
32.63
32.57
31.96
30.65
28.74
26.49
24.22
22.17
20.37
18.65
16.77
14.57
12.05
9.36
6.74
4.37
2.29
0.35
-1.66
-3.95
-6.67
-9.80
-13.23
-16.75
-20.18
-23.37
-26.33
-29.20
-32.22
-35.73
-40.02
-45.10
-50.59
-55.67
-59.23
-60.22
-58.05
-52.87
-45.56
-37.35
-29.43
-22.48
-16.53
-11.17
-5.85
-0.23
5.63
11.37
16.53
20.74
23.90
26.12
27.59
28.49
28.94
28.96
28.60
28.00
27.37
26.92
26.78
26.86
26.93
26.63
25.65
23.82
21.20
17.99
14.51
11.06
7.86
4.96
2.26
-0.48
-3.54
-7.11
-11.22
-15.68
-20.19
-24.44
-28.24
-31.64
-34.92
-38.52
-42.88
-48.34
-54.93
-62.33
-69.81
-76.35
-80.81
-82.33
-80.53
-75.69
-68.59
-60.22
-51.31
-42.19
-32.68
-22.43
-11.21
0.88
13.38
25.61
36.87
46.65
54.63
60.76
65.16
68.09
69.89
70.90
71.39
71.49
71.18
70.35
68.93
66.89
64.27
61.21
57.81
54.13
50.22
46.11
41.89
37.71
33.71
30.00
26.56
23.22
19.76
15.98
11.77
7.18
2.37
-2.45
-7.06
-11.28
-15.05
-18.43
-21.62
-24.93
-28.73
-33.29
-38.69
-44.70
-50.68
-55.71
-58.77
-59.01
-56.03
-50.07
-41.92
-32.72
-23.55
-15.16
-7.79
-1.27
4.80
10.69
16.45
21.90
26.73
30.67
33.61
35.61
36.84
37.50
37.77
37.78
37.64
37.48
37.41
37.49
37.69
37.79
37.53
36.67
35.14
33.05
30.68
28.31
26.09
24.02
21.95
19.71
17.20
14.44
11.51
8.54
5.61
2.75
-0.09
-2.98
-5.98
-9.12
-12.35
-15.62
-18.86
-22.06
-25.27
-28.62
-32.29
-36.46
-41.25
-46.58
-52.09
-57.05
-60.48
-61.40
-59.20
-53.90
-46.17
-37.19
-28.15
-19.91
-12.76
-6.52
-0.73
4.99
10.73
16.27
21.20
25.13
27.85
29.39
30.00
30.03
29.82
29.60
29.50
29.56
29.78
30.12
30.51
30.85
31.01
30.82
30.11
28.77
26.78
24.22
21.30
18.33
15.59
13.27
11.40
9.80
8.20
6.30
3.90
0.95
-2.38
-5.85
-9.19
-12.25
-15.00
-17.58
-20.13
-22.85
-25.90
-29.48
-33.80
-38.93
-44.62
-50.12
-54.30
-55.88
-54.04
-48.72
-40.76
-31.56
-22.51
-14.56
-7.94
-2.35
2.73
7.66
12.52
17.10
21.12
24.36
26.72
28.27
29.16
29.56
29.63
29.51
29.30
29.11
29.03
29.13
29.40
29.72
29.88
29.63
28.78
27.31
25.31
22.98
20.48
17.90
15.26
12.58
9.91
7.40
5.16
3.21
1.41
-0.52
-2.84
-5.68
-9.01
-12.61
-16.18
-19.48
-22.38
-24.92
-27.34
-30.00
-33.34
-37.71
-43.17
-49.37
-55.41
-60.08
-62.15
-60.81
-55.96
-48.31
-39.10
-29.65
-20.97
-13.46
-6.99
-1.15
4.50
10.14
15.71
20.93
25.52
29.23
31.93
33.62
34.40
34.44
33.94
33.16
32.35
31.71
31.35
31.29
31.39
31.48
31.35
30.86
29.94
28.56
26.68
24.33
21.58
18.58
15.55
12.68
10.11
7.82
5.72
3.68
1.59
-0.71
-3.30
-6.25
-9.51
-12.90
-16.15
-19.02
-21.46
-23.66
-26.04
-29.04
-32.99
-37.94
-43.61
-49.36
-54.25
-57.22
-57.34
-54.16
-47.86
-39.32
-29.86
-20.74
-12.82
-6.37
-1.16
3.31
7.47
11.50
15.38
18.89
21.84
24.07
25.58
26.45
26.86
26.94
26.75
26.34
25.73
25.04
24.47
24.23
24.40
24.79
24.97
24.46
22.93
20.39
17.23
14.06
11.35
9.29
7.70
6.14
4.16
1.53
-1.67
-5.15
-8.50
-11.44
-13.93
-16.12
-18.29
-20.74
-23.70
-27.30
-31.51
-36.15
-40.75
-44.63
-46.96
-46.99
-44.34
-39.19
-32.23
-24.43
-16.72
-9.65
-3.36
2.33
7.64
12.64
17.19
20.99
23.78
25.49
26.27
26.47
26.46
26.51
26.73
27.08
27.44
27.71
27.85
27.87
27.81
27.61
27.19
26.42
25.21
23.60
21.69
19.61
17.50
15.39
13.27
11.10
8.85
6.57
4.30
2.03
-0.25
-2.58
-5.00
-7.53
-10.11
-12.71
-15.29
-17.89
-20.54
-23.29
-26.18
-29.26
-32.62
-36.42
-40.74
-45.42
-49.96
-53.50
-55.08
-53.95
-49.95
-43.57
-35.80
-27.74
-20.22
-13.58
-7.66
-2.09
3.44
9.01
14.42
19.33
23.40
26.41
28.34
29.33
29.59
29.39
28.94
28.44
28.02
27.81
27.84
28.07
28.36
28.48
28.22
27.48
26.29
24.79
23.13
21.36
19.44
17.26
14.82
12.17
9.52
7.08
4.92
2.97
0.98
-1.28
-3.93
-6.90
-9.97
-12.87
-15.48
-17.80
-20.03
-22.45
-25.28
-28.70
-32.73
-37.18
-41.61
-45.35
-47.60
-47.67
-45.20
-40.34
-33.75
-26.34
-19.01
-12.33
-6.48
-1.29
3.51
8.11
12.47
16.38
19.54
21.78
23.10
23.71
23.91
23.94
23.93
23.88
23.73
23.45
23.09
22.72
22.43
22.20
21.89
21.31
20.25
18.60
16.42
13.92
11.44
9.29
7.60
6.28
5.01
3.39
1.12
-1.87
-5.32
-8.82
-11.88
-14.20
-15.81
-17.03
-18.38
-20.38
-23.38
-27.44
-32.28
-37.36
-41.85
-44.89
-45.69
-43.83
-39.38
-32.95
-25.47
-17.94
-11.07
-5.12
0.05
4.75
9.20
13.38
17.09
20.09
22.23
23.55
24.19
24.37
24.32
24.20
24.11
24.09
24.10
24.08
24.01
23.86
23.66
23.41
23.06
22.50
21.63
20.39
18.83
17.07
15.25
13.45
11.67
9.86
8.01
6.13
4.29
2.52
0.77
-1.10
-3.26
-5.81
-8.72
-11.82
-14.83
-17.50
-19.69
-21.48
-23.12
-25.00
-27.54
-30.99
-35.36
-40.23
-44.77
-47.94
-48.73
-46.61
-41.68
-34.73
-26.90
-19.30
-12.62
-7.04
-2.27
2.10
6.41
10.75
14.96
18.75
21.83
24.04
25.33
25.84
25.84
25.60
25.35
25.22
25.21
25.27
25.38
25.51
25.66
25.71
25.47
24.70
23.28
21.26
18.90
16.56
14.54
12.93
11.65
10.49
9.27
7.86
6.27
4.52
2.64
0.61
-1.67
-4.22
-7.02
-9.95
-12.83
-15.49
-17.84
-19.93
-21.95
-24.15
-26.81
-30.15
-34.18
-38.65
-42.99
-46.41
-48.01
-47.15
-43.66
-37.98
-30.98
-23.72
-16.99
-11.14
-6.06
-1.40
3.15
7.68
12.00
15.77
18.68
20.59
21.57
21.83
21.66
21.32
20.97
20.71
20.59
20.59
20.69
20.86
21.03
21.13
21.02
20.55
19.57
17.98
15.82
13.22
10.47
7.85
5.67
4.05
2.92
2.02
1.00
-0.46
-2.51
-5.06
-7.88
-10.67
-13.23
-15.57
-17.79
-20.09
-22.60
-25.38
-28.46
-31.91
-35.69
-39.61
-43.13
-45.41
-45.59
-43.12
-38.06
-31.13
-23.42
-16.00
-9.51
-4.07
0.63
4.99
9.27
13.49
17.46
20.91
23.64
25.55
26.68
27.17
27.19
26.92
26.53
26.15
25.88
25.79
25.87
26.05
26.19
26.13
25.70
24.82
23.48
21.81
19.99
18.16
16.42
14.73
13.02
11.14
9.06
6.84
4.63
2.59
0.78
-0.86
-2.48
-4.32
-6.50
-9.07
-11.95
-14.92
-17.77
-20.33
-22.56
-24.61
-26.75
-29.36
-32.74
-37.02
-41.97
-46.97
-51.08
-53.32
-52.93
-49.67
-43.92
-36.60
-28.84
-21.59
-15.36
-10.16
-5.62
-1.30
3.14
7.73
12.33
16.62
20.25
22.97
24.67
25.40
25.39
24.95
24.43
24.07
23.99
24.16
24.46
24.74
24.88
24.78
24.38
23.65
22.56
21.07
19.18
16.96
14.52
12.02
9.65
7.54
5.75
4.20
2.75
1.23
-0.51
-2.52
-4.80
-7.27
-9.84
-12.42
-14.96
-17.43
-19.88
-22.43
-25.29
-28.67
-32.65
-37.13
-41.63
-45.39
-47.50
-47.22
-44.20
-38.73
-31.59
-23.86
-16.48
-10.03
-4.57
0.22
4.72
9.20
13.59
17.61
20.95
23.41
25.01
25.92
26.35
26.49
26.42
26.16
25.80
25.46
25.34
25.55
26.06
26.71
27.21
27.26
26.68
25.44
23.69
21.68
19.71
17.97
16.50
15.15
13.70
11.92
9.74
7.24
4.67
2.25
0.11
-1.86
-3.91
-6.33
-9.28
-12.73
-16.46
-20.14
-23.49
-26.38
-28.86
-31.19
-33.74
-36.88
-40.88
-45.67
-50.76
-55.25
-58.05
-58.21
-55.32
-49.63
-42.01
-33.60
-25.40
-17.98
-11.44
-5.57
-0.10
5.12
10.11
14.80
19.08
22.85
25.99
28.36
29.89
30.61
30.69
30.38
29.96
29.66
29.64
29.97
30.66
31.57
32.48
33.05
32.99
32.12
30.50
28.35
25.99
23.67
21.58
19.75
18.11
16.53
14.81
12.80
10.42
7.77
5.06
2.54
0.33
-1.69
-3.81
-6.37
-9.56
-13.28
-17.23
-21.01
-24.34
-27.17
-29.65
-32.09
-34.82
-38.16
-42.27
-47.09
-52.28
-57.13
-60.71
-62.11
-60.75
-56.56
-50.09
-42.27
-34.09
-26.30
-19.17
-12.60
-6.28
0.01
6.27
12.27
17.62
21.94
25.05
26.97
27.97
28.43
28.76
29.24
29.98
30.93
31.92
32.82
33.54
34.04
34.28
34.16
33.54
32.30
30.42
28.05
25.44
22.86
20.41
18.11
15.85
13.55
11.18
8.78
6.37
3.91
1.29
-1.63
-4.88
-8.36
-11.85
-15.11
-17.99
-20.58
-23.16
-26.10
-29.76
-34.32
-39.67
-45.41
-50.75
-54.78
-56.54
-55.41
-51.26
-44.54
-36.16
-27.21
-18.61
-10.87
-4.02
2.20
8.12
13.86
19.32
24.19
28.15
31.03
32.87
33.90
34.42
34.70
34.89
35.07
35.28
35.57
36.03
36.67
37.41
37.98
38.06
37.35
35.73
33.36
30.62
27.95
25.69
23.88
22.25
20.40
17.99
14.94
11.47
8.00
4.88
2.24
-0.06
-2.36
-4.95
-7.99
-11.39
-14.94
-18.43
-21.75
-24.94
-28.20
-31.77
-35.88
-40.68
-46.15
-52.06
-57.87
-62.78
-65.83
-66.17
-63.27
-57.23
-48.70
-38.81
-28.73
-19.36
-11.14
-3.94
2.61
8.90
15.05
20.92
26.17
30.48
33.70
35.94
37.40
38.36
38.96
39.27
39.31
39.14
38.91
38.77
38.79
38.89
38.84
38.40
37.41
35.91
34.09
32.20
30.36
28.55
26.63
24.41
21.76
18.69
15.31
11.84
8.52
5.57
3.12
1.10
-0.76
-2.86
-5.53
-8.94
-12.96
-17.25
-21.43
-25.29
-28.83
-32.23
-35.78
-39.73
-44.27
-49.45
-55.00
-60.34
-64.51
-66.43
-65.26
-60.73
-53.35
-44.19
-34.49
-25.27
-17.04
-9.81
-3.27
2.95
9.05
15.03
20.65
25.58
29.46
32.15
33.69
34.37
34.57
34.61
34.64
34.61
34.43
34.08
33.64
33.27
33.03
32.81
32.37
31.40
29.72
27.34
24.47
21.36
18.30
15.42
12.74
10.12
7.36
4.32
0.95
-2.63
-6.22
-9.62
-12.72
-15.58
-18.34
-21.20
-24.34
-27.90
-32.01
-36.74
-41.93
-47.13
-51.54
-54.18
-54.22
-51.26
-45.52
-37.73
-28.91
-20.00
-11.62
-4.02
2.87
9.23
15.20
20.75
25.74
29.94
33.17
35.33
36.53
36.97
36.93
36.70
36.51
36.51
36.73
37.13
37.54
37.76
37.58
36.87
35.63
33.93
31.94
29.78
27.56
25.33
23.11
20.89
18.66
16.34
13.83
11.04
7.93
4.54
1.00
-2.52
-5.91
-9.16
-12.30
-15.41
-18.47
-21.46
-24.34
-27.18
-30.15
-33.55
-37.64
-42.57
-48.15
-53.85
-58.77
-61.89
-62.28
-59.47
-53.64
-45.56
-36.35
-27.09
-18.52
-10.84
-3.87
2.69
9.05
15.14
20.70
25.43
29.11
31.67
33.21
33.97
34.22
34.23
34.23
34.34
34.59
34.86
35.04
34.94
34.49
33.62
32.35
30.72
28.80
26.66
24.45
22.22
20.03
17.80
15.44
12.90
10.22
7.54
5.00
2.60
0.16
-2.54
-5.70
-9.31
-13.10
-16.68
-19.75
-22.18
-24.15
-25.99
-28.11
-30.82
-34.30
-38.53
-43.21
-47.79
-51.45
-53.32
-52.67
-49.24
-43.34
-35.76
-27.55
-19.63
-12.53
-6.29
-0.64
4.79
10.15
15.33
19.95
23.62
26.09
27.36
27.68
27.42
26.94
26.50
26.21
26.11
26.19
26.41
26.72
27.06
27.29
27.19
26.53
25.08
22.80
19.86
16.66
13.66
11.23
9.38
7.88
6.26
4.14
1.37
-1.89
-5.29
-8.46
-11.18
-13.50
-15.61
-17.82
-20.42
-23.61
-27.48
-31.97
-36.79
-41.35
-44.86
-46.49
-45.63
-42.16
-36.50
-29.51
-22.17
-15.23
-9.02
-3.45
1.76
6.85
11.81
16.44
20.41
23.47
25.53
26.64
27.00
26.81
26.31
25.71
25.17
24.82
24.68
24.69
24.74
24.71
24.50
24.06
23.38
22.44
21.21
19.67
17.80
15.66
13.33
10.97
8.74
6.78
5.11
3.62
2.05
0.15
-2.26
-5.16
-8.32
-11.43
-14.21
-16.60
-18.75
-21.00
-23.68
-26.99
-30.94
-35.32
-39.67
-43.37
-45.67
-45.92
-43.71
-39.11
-32.68
-25.37
-18.15
-11.70
-6.24
-1.57
2.71
6.92
11.10
15.12
18.71
21.67
23.92
25.51
26.51
27.01
27.01
26.58
25.84
24.97
24.21
23.71
23.50
23.45
23.37
23.02
22.28
21.13
19.64
17.96
16.20
14.45
12.71
10.93
9.06
7.05
4.91
2.78
0.79
-0.93
-2.39
-3.74
-5.23
-7.13
-9.54
-12.35
-15.28
-17.98
-20.23
-22.01
-23.57
-25.36
-27.77
-31.10
-35.21
-39.61
-43.41
-45.64
-45.50
-42.66
-37.43
-30.59
-23.24
-16.32
-10.44
-5.67
-1.73
1.84
5.38
8.95
12.36
15.31
17.50
18.81
19.32
19.27
18.91
18.44
18.00
17.60
17.29
17.06
16.97
17.01
17.15
17.28
17.26
16.91
16.10
14.71
12.75
10.35
7.79
5.37
3.38
1.92
0.90
0.05
-0.96
-2.36
-4.22
-6.40
-8.66
-10.74
-12.55
-14.17
-15.81
-17.72
-20.07
-22.92
-26.18
-29.69
-33.21
-36.37
-38.67
-39.49
-38.26
-34.74
-29.16
-22.27
-15.10
-8.57
-3.25
0.85
4.11
7.01
9.86
12.68
15.22
17.19
18.40
18.93
19.04
19.05
19.18
19.43
19.63
19.56
19.11
18.32
17.40
16.58
15.98
15.54
15.11
14.49
13.59
12.39
10.94
9.31
7.53
5.61
3.55
1.38
-0.82
-2.99
-5.11
-7.18
-9.23
-11.29
-13.38
-15.47
-17.54
-19.57
-21.57
-23.60
-25.77
-28.23
-31.12
-34.54
-38.43
-42.47
-46.04
-48.33
-48.54
-46.20
-41.33
-34.58
-26.97
-19.60
-13.17
-7.92
-3.59
0.27
4.04
7.82
11.47
14.74
17.41
19.35
20.62
21.29
21.55
21.58
21.56
21.66
21.96
22.45
23.06
23.62
23.98
23.99
23.52
22.53
21.05
19.23
17.35
15.72
14.51
13.73
13.13
12.33
10.97
8.90
6.22
3.25
0.40
-2.02
-3.96
-5.62
-7.33
-9.38
-11.92
-14.84
-17.91
-20.86
-23.54
-25.95
-28.27
-30.76
-33.70
-37.33
-41.74
-46.69
-51.57
-55.42
-57.21
-56.15
-52.05
-45.41
-37.27
-28.78
-20.86
-13.97
-8.09
-2.96
1.71
6.16
10.48
14.66
18.57
22.02
24.75
26.59
27.50
27.66
27.44
27.22
27.28
27.70
28.40
29.18
29.82
30.15
30.08
29.58
28.61
27.21
25.43
23.38
21.21
19.06
17.03
15.14
13.34
11.55
9.75
7.91
5.99
3.92
1.60
-1.08
-4.08
-7.25
-10.34
-13.10
-15.46
-17.51
-19.53
-21.82
-24.64
-28.14
-32.34
-37.05
-41.81
-45.89
-48.40
-48.54
-45.91
-40.68
-33.56
-25.56
-17.61
-10.35
-3.97
1.60
6.57
11.05
15.05
18.43
21.07
22.89
23.97
24.56
24.91
25.30
25.86
26.57
27.36
28.09
28.69
29.12
29.35
29.33
28.98
28.23
27.04
25.47
23.63
21.66
19.68
17.78
15.96
14.15
12.23
10.13
7.84
5.44
3.02
0.61
-1.88
-4.57
-7.53
-10.69
-13.83
-16.73
-19.28
-21.59
-23.94
-26.68
-30.09
-34.31
-39.25
-44.54
-49.49
-53.16
-54.54
-52.94
-48.23
-41.00
-32.31
-23.31
-14.90
-7.47
-0.98
4.81
10.10
14.95
19.26
22.89
25.72
27.74
29.00
29.68
30.00
30.22
30.52
30.98
31.55
32.14
32.61
32.90
32.96
32.74
32.16
31.14
29.63
27.68
25.45
23.13
20.93
18.94
17.12
15.35
13.48
11.42
9.19
6.90
4.70
2.66
0.71
-1.34
-3.75
-6.69
-10.18
-13.99
-17.79
-21.26
-24.25
-26.87
-29.47
-32.51
-36.33
-41.04
-46.30
-51.37
-55.26
-56.98
-55.84
-51.71
-45.08
-36.90
-28.23
-19.93
-12.46
-5.84
0.15
5.76
11.11
16.17
20.80
24.81
28.07
30.46
31.99
32.72
32.82
32.56
32.23
32.08
32.26
32.76
33.46
34.11
34.42
34.14
33.10
31.35
29.09
26.65
24.33
22.27
20.43
18.62
16.63
14.38
11.88
9.28
6.73
4.35
2.14
0.03
-2.15
-4.55
-7.24
-10.17
-13.17
-15.99
-18.51
-20.78
-23.06
-25.71
-29.07
-33.24
-38.03
-42.95
-47.27
-50.17
-50.86
-48.90
-44.34
-37.79
-30.21
-22.61
-15.65
-9.53
-4.04
1.20
6.41
11.54
16.28
20.24
23.08
24.68
25.12
24.73
23.96
23.30
23.13
23.56
24.45
25.51
26.41
26.99
27.17
26.99
26.47
25.60
24.32
22.61
20.53
18.26
15.97
13.82
11.89
10.14
8.45
6.62
4.52
2.07
-0.67
-3.57
-6.44
-9.15
-11.67
-14.06
-16.44
-18.89
-21.52
-24.36
-27.53
-31.14
-35.25
-39.77
-44.21
-47.79
-49.57
-48.78
-45.13
-39.03
-31.41
-23.46
-16.11
-9.79
-4.36
0.65
5.67
10.83
15.89
20.40
23.96
26.43
27.92
28.71
29.12
29.32
29.38
29.32
29.17
29.03
29.04
29.27
29.65
29.96
29.89
29.15
27.64
25.52
23.13
20.86
18.96
17.45
16.09
14.55
12.62
10.28
7.67
5.04
2.60
0.43
-1.53
-3.39
-5.31
-7.44
-9.91
-12.74
-15.88
-19.11
-22.21
-25.03
-27.59
-30.12
-33.03
-36.64
-41.07
-45.95
-50.48
-53.56
-54.18
-51.73
-46.39
-38.94
-30.59
-22.47
-15.27
-9.13
-3.75
1.27
6.22
11.13
15.84
20.07
23.56
26.16
27.84
28.70
28.93
28.78
28.47
28.19
28.04
28.07
28.28
28.62
28.97
29.12
28.88
28.06
26.68
24.88
22.93
21.11
19.55
18.22
16.96
15.53
13.73
11.50
8.96
6.32
3.81
1.60
-0.29
-2.00
-3.81
-5.93
-8.50
-11.39
-14.38
-17.15
-19.51
-21.48
-23.33
-25.43
-28.19
-31.82
-36.20
-40.87
-45.02
-47.74
-48.21
-46.04
-41.32
-34.67
-26.99
-19.20
-11.99
-5.71
-0.37
4.19
8.18
11.77
14.99
17.78
20.04
21.67
22.64
23.00
22.94
22.68
22.41
22.29
22.37
22.65
23.10
23.62
24.09
24.35
24.22
23.60
22.45
20.80
18.76
16.49
14.14
11.85
9.73
7.80
6.03
4.36
2.72
1.02
-0.78
-2.75
-4.92
-7.26
-9.71
-12.11
-14.36
-16.45
-18.52
-20.77
-23.45
-26.68
-30.45
-34.59
-38.74
-42.39
-44.87
-45.53
-43.95
-40.09
-34.38
-27.60
-20.60
-14.03
-8.17
-2.99
1.74
6.21
10.49
14.46
17.97
20.83
22.95
24.32
25.02
25.22
25.12
24.90
24.69
24.62
24.76
25.18
25.80
26.45
26.87
26.80
26.06
24.70
22.96
21.10
19.38
17.92
16.68
15.57
14.42
13.08
11.42
9.43
7.18
4.84
2.64
0.72
-0.86
-2.23
-3.63
-5.31
-7.47
-10.19
-13.38
-16.80
-20.15
-23.12
-25.56
-27.54
-29.35
-31.46
-34.30
-38.12
-42.81
-47.83
-52.27
-55.05
-55.24
-52.34
-46.57
-38.75
-30.11
-21.83
-14.66
-8.75
-3.81
0.65
5.03
9.41
13.68
17.61
21.00
23.75
25.86
27.34
28.21
28.57
28.50
28.15
27.73
27.43
27.37
27.56
27.91
28.26
28.41
28.24
27.66
26.66
25.22
23.38
21.23
18.95
16.77
14.89
13.39
12.16
11.02
9.75
8.26
6.57
4.79
3.00
1.20
-0.69
-2.80
-5.19
-7.84
-10.68
-13.58
-16.37
-18.97
-21.30
-23.47
-25.67
-28.18
-31.23
-34.96
-39.27
-43.81
-47.95
-50.96
-52.08
-50.79
-47.00
-41.12
-34.00
-26.62
-19.75
-13.73
-8.41
-3.41
1.62
6.74
11.69
16.03
19.41
21.60
22.68
22.92
22.67
22.27
21.98
21.95
22.24
22.87
23.79
24.91
26.09
27.01
27.32
26.70
25.06
22.57
19.75
17.13
15.15
13.90
13.19
12.65
11.89
10.66
8.90
6.70
4.29
1.91
-0.23
-2.06
-3.64
-5.20
-7.00
-9.22
-11.82
-14.66
-17.47
-20.07
-22.43
-24.66
-27.03
-29.86
-33.38
-37.63
-42.24
-46.49
-49.36
-49.89
-47.57
-42.52
-35.51
-27.62
-19.89
-12.93
-6.85
-1.46
3.51
8.17
12.44
16.11
18.98
20.99
22.25
23.00
23.51
24.01
24.62
25.33
26.03
26.63
27.09
27.43
27.70
27.86
27.79
27.33
26.34
24.84
23.00
21.10
19.41
18.11
17.16
16.39
15.50
14.18
12.30
9.90
7.22
4.60
2.31
0.48
-1.01
-2.42
-4.08
-6.22
-8.92
-12.06
-15.41
-18.67
-21.62
-24.12
-26.22
-28.12
-30.17
-32.79
-36.32
-40.86
-46.08
-51.16
-54.97
-56.37
-54.62
-49.70
-42.36
-33.85
-25.43
-17.97
-11.72
-6.42
-1.55
3.29
8.25
13.20
17.87
21.96
25.32
27.89
29.74
30.99
31.73
32.06
32.06
31.89
31.72
31.75
32.05
32.56
33.04
33.19
32.73
31.58
29.85
27.80
25.71
23.79
22.14
20.70
19.35
17.97
16.45
14.72
12.74
10.54
8.21
5.90
3.70
1.59
-0.59
-3.02
-5.87
-9.12
-12.56
-15.89
-18.83
-21.32
-23.50
-25.68
-28.23
-31.43
-35.43
-40.14
-45.21
-49.95
-53.47
-54.85
-53.47
-49.24
-42.75
-35.02
-27.21
-20.20
-14.31
-9.34
-4.76
-0.09
4.89
10.03
14.95
19.15
22.33
24.46
25.72
26.44
26.87
27.16
27.29
27.24
27.01
26.69
26.42
26.26
26.19
26.04
25.60
24.72
23.37
21.63
19.64
17.56
15.49
13.49
11.54
9.61
7.62
5.44
2.98
0.15
-2.99
-6.30
-9.48
-12.30
-14.67
-16.69
-18.68
-21.04
-24.08
-27.93
-32.49
-37.33
-41.79
-45.02
-46.21
-44.77
-40.60
-34.16
-26.35
-18.27
-10.80
-4.42
0.88
5.39
9.47
13.35
17.03
20.38
23.21
25.40
26.90
27.77
28.12
28.13
27.93
27.66
27.46
27.40
27.50
27.73
27.95
27.96
27.57
26.66
25.24
23.45
21.46
19.44
17.41
15.34
13.20
10.96
8.68
6.43
4.24
2.05
-0.24
-2.69
-5.33
-8.08
-10.85
-13.56
-16.13
-18.53
-20.76
-22.88
-25.10
-27.73
-31.12
-35.42
-40.43
-45.45
-49.44
-51.33
-50.35
-46.36
-39.92
-32.09
-24.04
-16.64
-10.24
-4.72
0.31
5.21
10.06
14.72
18.92
22.43
25.16
27.15
28.52
29.38
29.82
29.91
29.76
29.53
29.37
29.39
29.60
29.89
30.05
29.87
29.19
27.99
26.36
24.48
22.56
20.78
19.21
17.82
16.53
15.19
13.68
11.90
9.84
7.56
5.19
2.82
0.50
-1.81
-4.21
-6.75
-9.44
-12.18
-14.85
-17.30
-19.50
-21.49
-23.42
-25.49
-27.96
-31.08
-34.99
-39.59
-44.43
-48.67
-51.28
-51.36
-48.49
-42.93
-35.53
-27.46
-19.78
-13.09
-7.46
-2.52
2.16
6.88
11.58
15.97
19.70
22.52
24.41
25.53
26.13
26.40
26.38
26.08
25.52
24.84
24.26
23.98
24.05
24.31
24.45
24.14
23.22
21.67
19.69
17.50
15.27
13.11
11.02
9.00
7.09
5.31
3.68
2.06
0.29
-1.81
-4.29
-7.04
-9.75
-12.12
-14.00
-15.46
-16.81
-18.41
-20.58
-23.45
-27.00
-31.03
-35.24
-39.15
-42.11
-43.39
-42.38
-38.83
-33.03
-25.77
-18.10
-10.95
-4.88
0.08
4.24
8.03
11.69
15.16
18.17
20.39
21.68
22.14
22.07
21.86
21.79
21.95
22.25
22.52
22.64
22.61
22.48
22.35
22.23
22.03
21.59
20.74
19.40
17.59
15.42
13.08
10.74
8.54
6.56
4.82
3.25
1.79
0.32
-1.25
-2.99
-4.97
-7.18
-9.61
-12.19
-14.83
-17.44
-19.98
-22.46
-25.04
-27.88
-31.19
-34.96
-38.90
-42.42
-44.70
-44.95
-42.75
-38.21
-31.93
-24.83
-17.76
-11.30
-5.63
-0.62
3.93
8.18
12.15
15.77
18.92
21.51
23.46
24.75
25.35
25.38
25.02
24.50
24.06
23.85
23.90
24.18
24.58
24.98
25.21
25.13
24.58
23.47
21.79
19.69
17.38
15.07
12.95
11.07
9.37
7.76
6.15
4.51
2.83
1.08
-0.83
-2.99
-5.50
-8.34
-11.37
-14.33
-16.96
-19.14
-20.92
-22.59
-24.59
-27.33
-31.06
-35.68
-40.62
-45.01
-47.78
-48.09
-45.56
-40.47
-33.66
-26.20
-19.07
-12.86
-7.69
-3.31
0.65
4.50
8.34
12.07
15.47
18.28
20.29
21.42
21.73
21.43
20.78
20.09
19.56
19.31
19.37
19.72
20.28
20.90
21.33
21.29
20.56
19.04
16.84
14.28
11.74
9.53
7.76
6.29
4.87
3.22
1.19
-1.23
-3.85
-6.45
-8.82
-10.91
-12.79
-14.65
-16.68
-19.08
-21.96
-25.34
-29.18
-33.25
-37.12
-40.15
-41.60
-40.85
-37.67
-32.35
-25.67
-18.60
-12.01
-6.39
-1.78
2.12
5.70
9.23
12.71
15.92
18.56
20.43
21.52
22.00
22.15
22.19
22.24
22.34
22.46
22.59
22.72
22.81
22.73
22.36
21.56
20.35
18.86
17.30
15.83
14.51
13.23
11.84
10.19
8.27
6.17
4.00
1.88
-0.18
-2.24
-4.41
-6.74
-9.19
-11.63
-13.92
-16.00
-17.94
-19.93
-22.19
-24.91
-28.16
-31.95
-36.17
-40.60
-44.83
-48.23
-50.01
-49.50
-46.39
-40.95
-33.96
-26.47
-19.36
-13.07
-7.56
-2.53
2.33
7.12
11.69
15.77
19.16
21.79
23.70
25.03
25.90
26.47
26.87
27.25
27.71
28.22
28.74
29.13
29.32
29.24
28.85
28.10
26.95
25.41
23.60
21.74
20.07
18.75
17.76
16.88
15.79
14.25
12.15
9.62
6.97
4.52
2.49
0.91
-0.42
-1.85
-3.72
-6.25
-9.40
-12.90
-16.39
-19.54
-22.19
-24.39
-26.38
-28.46
-30.95
-34.14
-38.20
-43.06
-48.30
-53.08
-56.33
-57.05
-54.66
-49.33
-41.94
-33.71
-25.79
-18.87
-13.07
-8.07
-3.45
1.13
5.75
10.32
14.66
18.62
22.05
24.85
26.90
28.15
28.63
28.51
28.07
27.60
27.37
27.49
27.93
28.50
28.95
29.05
28.67
27.82
26.63
25.25
23.81
22.36
20.87
19.22
17.33
15.17
12.80
10.37
8.02
5.83
3.76
1.68
-0.57
-3.11
-5.91
-8.80
-11.60
-14.15
-16.42
-18.52
-20.64
-22.98
-25.71
-28.99
-32.88
-37.33
-42.04
-46.41
-49.50
-50.37
-48.34
-43.35
-36.01
-27.44
-18.87
-11.27
-5.05
-0.11
3.98
7.71
11.37
15.02
18.49
21.55
23.95
25.62
26.60
27.06
27.20
27.22
27.21
27.24
27.32
27.49
27.78
28.16
28.52
28.65
28.29
27.30
25.67
23.56
21.25
19.00
16.92
14.98
13.03
10.90
8.55
6.08
3.66
1.43
-0.61
-2.62
-4.81
-7.36
-10.27
-13.38
-16.42
-19.25
-21.87
-24.47
-27.32
-30.69
-34.69
-39.34
-44.42
-49.44
-53.64
-56.07
-55.86
-52.61
-46.57
-38.64
-30.07
-21.95
-14.89
-8.83
-3.35
2.07
7.61
13.14
18.25
22.59
25.95
28.37
30.04
31.18
31.94
32.41
32.64
32.67
32.60
32.54
32.55
32.68
32.86
32.94
32.76
32.16
31.06
29.50
27.65
25.73
23.94
22.37
20.93
19.41
17.58
15.32
12.68
9.88
7.17
4.76
2.66
0.77
-1.12
-3.23
-5.73
-8.66
-11.94
-15.36
-18.68
-21.71
-24.39
-26.92
-29.68
-33.13
-37.55
-42.88
-48.55
-53.57
-56.79
-57.27
-54.61
-49.07
-41.54
-33.16
-24.95
-17.52
-10.97
-5.03
0.69
6.44
12.20
17.74
22.66
26.62
29.43
31.06
31.68
31.60
31.18
30.79
30.72
31.05
31.73
32.50
33.09
33.26
32.94
32.17
31.03
29.58
27.81
25.69
23.26
20.67
18.11
15.77
13.71
11.87
10.05
8.04
5.69
3.00
0.09
-2.82
-5.49
-7.80
-9.79
-11.66
-13.70
-16.22
-19.38
-23.22
-27.64
-32.41
-37.12
-41.17
-43.83
-44.40
-42.44
-38.00
-31.69
-24.46
-17.26
-10.76
-5.17
-0.32
4.14
8.42
12.55
16.29
19.37
21.57
22.88
23.47
23.65
23.70
23.79
23.92
24.00
23.95
23.79
23.64
23.61
23.74
23.94
23.93
23.43
22.23
20.29
17.76
14.94
12.17
9.73
7.75
6.14
4.66
2.98
0.86
-1.76
-4.75
-7.80
-10.62
-12.99
-14.93
-16.64
-18.44
-20.66
-23.55
-27.22
-31.58
-36.27
-40.67
-43.96
-45.33
-44.19
-40.46
-34.57
-27.40
-19.94
-12.98
-6.91
-1.69
2.93
7.24
11.34
15.12
18.35
20.84
22.47
23.31
23.55
23.44
23.20
23.01
22.99
23.15
23.48
23.92
24.39
24.75
24.91
24.72
24.12
23.02
21.43
19.42
17.14
14.80
12.60
10.71
9.15
7.80
6.47
4.96
3.16
1.05
-1.28
-3.75
-6.28
-8.82
-11.28
-13.59
-15.64
-17.39
-18.95
-20.55
-22.56
-25.34
-29.15
-33.86
-38.97
-43.58
-46.62
-47.18
-44.84
-39.83
-32.98
-25.41
-18.19
-12.02
-7.06
-3.07
0.36
3.63
6.89
10.11
13.13
15.75
17.81
19.27
20.14
20.53
20.57
20.42
20.20
20.03
19.96
19.97
20.00
19.93
19.60
18.89
17.75
16.19
14.36
12.42
10.56
8.88
7.45
6.21
5.06
3.82
2.32
0.38
-2.01
-4.75
-7.57
-10.22
-12.49
-14.39
-16.10
-17.90
-20.09
-22.85
-26.19
-29.94
-33.70
-36.87
-38.81
-38.92
-36.93
-32.91
-27.40
-21.15
-14.91
-9.20
-4.18
0.25
4.32
8.22
11.92
15.27
18.05
20.11
21.41
22.06
22.22
22.05
21.71
21.33
20.99
20.80
20.82
21.01
21.30
21.53
21.53
21.16
20.35
19.15
17.66
16.05
14.44
12.90
11.41
9.92
8.33
6.65
4.93
3.26
1.65
0.02
-1.80
-3.99
-6.63
-9.61
-12.65
-15.40
-17.65
-19.41
-20.89
-22.43
-24.36
-26.89
-30.03
-33.60
-37.24
-40.39
-42.37
-42.55
-40.55
-36.42
-30.64
-24.01
-17.35
-11.22
-5.82
-1.07
3.26
7.28
11.02
14.34
17.10
19.21
20.67
21.54
21.95
22.05
21.95
21.76
21.54
21.31
21.13
21.02
21.01
21.06
21.06
20.85
20.30
19.35
18.02
16.41
14.68
12.94
11.25
9.64
8.08
6.56
5.08
3.65
2.23
0.76
-0.85
-2.69
-4.79
-7.07
-9.41
-11.67
-13.76
-15.65
-17.38
-19.08
-20.90
-23.01
-25.58
-28.68
-32.15
-35.55
-38.16
-39.27
-38.38
-35.44
-30.89
-25.44
-19.84
-14.58
-9.83
-5.51
-1.43
2.53
6.35
9.87
12.90
15.25
16.86
17.74
18.02
17.88
17.52
17.14
16.86
16.75
16.80
16.99
17.23
17.44
17.53
17.46
17.16
16.61
15.77
14.58
13.01
11.08
8.95
6.81
4.90
3.30
1.98
0.71
-0.77
-2.64
-4.91
-7.40
-9.81
-11.93
-13.69
-15.21
-16.74
-18.54
-20.77
-23.50
-26.66
-30.10
-33.54
-36.54
-38.52
-38.88
-37.20
-33.40
-27.93
-21.57
-15.23
-9.59
-4.85
-0.85
2.83
6.48
10.16
13.69
16.78
19.27
21.14
22.49
23.39
23.87
23.91
23.58
23.06
22.62
22.48
22.67
23.03
23.28
23.18
22.62
21.66
20.45
19.16
17.89
16.66
15.44
14.18
12.77
11.17
9.32
7.27
5.11
2.99
1.06
-0.58
-1.92
-3.07
-4.21
-5.59
-7.43
-9.84
-12.70
-15.72
-18.52
-20.85
-22.66
-24.20
-25.94
-28.33
-31.58
-35.53
-39.61
-42.98
-44.76
-44.31
-41.44
-36.48
-30.13
-23.30
-16.78
-11.03
-6.19
-2.07
1.64
5.24
8.85
12.45
15.88
18.90
21.30
22.97
23.93
24.30
24.27
24.04
23.79
23.64
23.65
23.79
23.97
24.07
23.94
23.49
22.69
21.59
20.26
18.78
17.22
15.58
13.80
11.83
9.65
7.30
4.97
2.86
1.17
-0.04
-0.93
-1.82
-3.07
-4.94
-7.44
-10.36
-13.36
-16.09
-18.39
-20.33
-22.14
-24.20
-26.82
-30.16
-34.12
-38.28
-41.95
-44.31
-44.64
-42.56
-38.21
-32.22
-25.49
-18.92
-13.09
-8.15
-3.89
0.03
3.91
7.79
11.50
14.75
17.29
19.00
19.99
20.47
20.69
20.83
20.93
20.95
20.85
20.64
20.44
20.36
20.47
20.70
20.83
20.63
19.91
18.67
17.01
15.13
13.17
11.21
9.23
7.21
5.14
3.10
1.15
-0.67
-2.47
-4.38
-6.55
-9.02
-11.67
-14.30
-16.72
-18.87
-20.86
-22.95
-25.45
-28.66
-32.66
-37.27
-41.98
-45.94
-48.16
-47.81
-44.55
-38.66
-31.04
-22.87
-15.19
-8.60
-3.19
1.35
5.41
9.25
12.90
16.24
19.12
21.45
23.26
24.65
25.73
26.55
27.10
27.39
27.43
27.31
27.18
27.15
27.26
27.42
27.45
27.10
26.25
24.91
23.23
21.44
19.73
18.17
16.68
15.07
13.18
10.91
8.31
5.52
2.74
0.10
-2.35
-4.67
-6.92
-9.16
-11.44
-13.72
-15.99
-18.22
-20.43
-22.64
-24.95
-27.50
-30.49
-34.17
-38.63
-43.66
-48.69
-52.82
-55.08
-54.70
-51.42
-45.56
-37.93
-29.56
-21.36
-13.95
-7.54
-2.01
2.93
7.59
12.08
16.39
20.31
23.62
26.12
27.80
28.78
29.27
29.51
29.63
29.68
29.66
29.57
29.43
29.28
29.09
28.78
