1624291167.00
64.000000
-0.00
-0.00
-0.00
-0.00
-0.00
-0.00
-0.00
-0.00
-0.00
-0.00
0.00
0.01
0.01
-0.00
-0.03
-0.05
-0.05
0.00
0.13
0.36
0.66
1.01
1.37
1.72
2.06
2.40
2.79
3.24
3.80
4.42
5.06
5.66
6.20
6.68
7.15
7.68
8.31
9.14
10.09
11.04
11.88
12.56
13.14
13.76
14.65
15.96
17.91
20.32
22.90
25.38
27.58
29.57
31.68
34.32
37.81
42.54
48.15
54.10
59.83
64.97
69.58
74.14
79.35
85.71
93.76
103.00
112.61
121.72
129.76
136.76
143.34
150.79
157.82
166.64
177.85
191.57
206.61
220.10
227.71
224.81
207.99
176.34
132.21
79.42
22.32
-35.82
-93.41
-150.16
-206.21
-261.30
-314.65
-364.86
-411.02
-452.40
-488.32
-517.81
-539.41
-551.35
-551.98
-540.37
-516.45
-481.47
-437.49
-386.93
-332.20
-275.34
-218.08
-161.87
-108.10
-57.95
-12.58
27.28
61.34
89.82
113.22
132.08
146.76
157.39
164.02
166.78
166.12
162.88
158.00
152.34
146.43
140.31
133.74
126.34
117.72
107.54
95.70
82.65
69.74
59.23
53.75
55.22
63.74
77.17
91.76
103.56
109.91
110.29
105.98
99.01
91.08
83.12
75.11
66.95
58.85
51.42
45.20
40.32
36.43
32.97
29.50
26.00
22.93
20.89
20.21
20.74
21.80
22.40
21.70
19.30
15.36
10.59
5.89
1.99
-0.68
-2.09
-2.51
-2.37
-2.08
-2.04
-2.44
-3.23
-4.03
-4.26
-3.43
-1.51
0.99
3.09
3.88
2.94
0.57
-2.36
-4.95
-6.64
-7.44
-7.70
-7.78
-7.80
-7.60
-7.04
-6.16
-5.26
-4.72
-4.72
-5.15
-5.69
-5.97
-5.77
-5.17
-4.48
-4.07
-4.18
-4.76
-5.52
-5.94
-5.52
-3.94
-1.27
2.12
5.57
8.35
9.87
9.82
8.34
5.90
3.20
0.94
-0.39
-0.61
0.17
1.67
3.60
5.76
8.00
10.15
11.99
13.26
13.76
13.48
12.59
11.31
9.84
8.25
6.46
4.48
2.26
-0.11
-2.44
-4.57
-6.41
-8.00
-9.39
-10.65
-11.77
-12.66
-13.19
-13.29
-12.96
-12.33
-11.61
-11.01
-10.68
-10.69
-10.98
-11.31
-11.35
-10.70
-9.05
-6.29
-2.64
1.36
5.02
7.65
8.84
8.54
7.01
4.70
2.06
-0.50
-2.74
-4.43
-5.43
-5.61
-4.96
-3.65
-1.95
-0.27
1.06
1.83
2.03
1.79
1.24
0.51
-0.37
-1.42
-2.57
-3.69
-4.59
-5.13
-5.30
-5.29
-5.33
-5.62
-6.15
-6.80
-7.40
-7.89
-8.35
-8.85
-9.54
-10.50
-11.78
-13.38
-15.19
-16.98
-18.28
-18.37
-16.54
-12.35
-5.92
2.05
10.47
18.15
24.19
28.08
29.67
29.13
26.76
22.99
18.42
13.75
9.69
6.87
5.63
5.95
7.45
9.48
11.35
12.52
12.71
11.94
10.51
8.76
6.99
5.32
3.69
1.95
-0.04
-2.33
-4.84
-7.36
-9.66
-11.55
-13.00
-14.14
-15.24
-16.62
-18.53
-20.98
-23.68
-26.07
-27.44
-27.03
-24.34
-19.25
-12.10
-3.69
4.89
12.55
18.40
21.97
23.20
22.44
20.19
17.03
13.48
9.97
6.93
4.71
3.57
3.55
4.48
5.95
7.45
8.61
9.20
9.21
8.74
7.86
6.54
4.71
2.36
-0.42
-3.35
-6.10
-8.46
-10.37
-12.00
-13.64
-15.59
-18.02
-20.86
-23.77
-26.18
-27.38
-26.68
-23.59
-18.08
-10.61
-2.09
6.34
13.62
18.95
21.97
22.69
21.38
18.48
14.50
10.05
5.75
2.23
-0.02
-0.77
-0.09
1.65
3.90
6.06
7.60
8.24
7.89
6.68
4.82
2.56
0.09
-2.42
-4.83
-7.06
-9.08
-11.03
-13.15
-15.72
-18.86
-22.31
-25.38
-27.18
-26.82
-23.78
-18.12
-10.45
-1.76
6.84
14.37
20.10
23.62
24.80
23.79
20.95
16.86
12.23
7.80
4.18
1.82
0.90
1.32
2.78
4.79
6.78
8.24
8.76
8.21
6.67
4.42
1.78
-0.97
-3.68
-6.32
-8.92
-11.58
-14.37
-17.34
-20.42
-23.37
-25.66
-26.58
-25.35
-21.52
-15.13
-6.86
2.20
10.78
17.82
22.68
25.13
25.31
23.56
20.36
16.25
11.89
7.93
4.95
3.31
3.06
3.95
5.46
7.00
8.02
8.15
7.27
5.49
3.11
0.47
-2.12
-4.51
-6.70
-8.84
-11.17
-13.88
-17.01
-20.39
-23.58
-25.91
-26.63
-25.15
-21.17
-14.92
-7.06
1.39
9.36
15.92
20.51
22.92
23.24
21.81
19.07
15.59
11.96
8.77
6.51
5.41
5.43
6.24
7.35
8.25
8.52
7.96
6.55
4.49
2.06
-0.42
-2.71
-4.77
-6.67
-8.67
-11.07
-14.08
-17.69
-21.59
-25.11
-27.36
-27.48
-24.88
-19.52
-11.98
-3.35
5.11
12.32
17.63
20.92
22.38
22.37
21.23
19.22
16.64
13.89
11.42
9.66
8.83
8.87
9.43
10.03
10.22
9.73
8.50
6.68
4.48
2.10
-0.27
-2.54
-4.65
-6.60
-8.48
-10.45
-12.71
-15.45
-18.63
-21.91
-24.60
-25.82
-24.76
-21.06
-14.91
-7.13
1.10
8.63
14.60
18.62
20.75
21.30
20.71
19.38
17.65
15.86
14.31
13.21
12.66
12.57
12.72
12.81
12.58
11.91
10.84
9.49
7.98
6.40
4.68
2.74
0.53
-1.89
-4.35
-6.61
-8.49
-9.98
-11.28
-12.74
-14.67
-17.25
-20.31
-23.33
-25.53
-26.07
-24.32
-20.12
-13.83
-6.30
1.41
8.29
13.72
17.52
19.88
21.16
21.69
21.62
21.03
20.02
18.80
17.66
16.89
16.62
16.80
17.17
17.46
17.43
17.00
16.21
15.17
13.99
12.71
11.37
9.96
8.47
6.91
5.29
3.60
1.90
0.24
-1.28
-2.58
-3.65
-4.55
-5.44
-6.48
-7.77
-9.31
-11.00
-12.69
-14.26
-15.61
-16.77
-17.81
-18.84
-20.07
-21.68
-23.82
-26.50
-29.46
-32.14
-33.73
-33.44
-30.72
-25.54
-18.41
-10.31
-2.38
4.42
9.51
12.82
14.63
15.42
15.63
15.56
15.36
15.06
14.74
14.49
14.47
14.74
15.27
15.87
16.25
16.21
15.64
14.65
13.42
12.17
11.01
9.94
8.83
7.54
5.97
4.15
2.19
0.31
-1.28
-2.45
-3.21
-3.73
-4.28
-5.10
-6.32
-7.91
-9.68
-11.41
-12.97
-14.29
-15.48
-16.69
-18.12
-19.97
-22.32
-25.14
-28.13
-30.76
-32.35
-32.22
-29.93
-25.49
-19.36
-12.38
-5.47
0.62
5.46
8.95
11.25
12.61
13.21
13.21
12.77
12.09
11.45
11.12
11.31
12.00
13.02
14.06
14.81
15.07
14.72
13.81
12.44
10.77
8.96
7.17
5.49
3.99
2.68
1.56
0.64
-0.13
-0.81
-1.55
-2.52
-3.86
-5.64
-7.79
-10.18
-12.61
-14.91
-16.89
-18.47
-19.64
-20.55
-21.49
-22.81
-24.80
-27.51
-30.70
-33.77
-35.96
-36.50
-34.81
-30.72
-24.54
-17.00
-9.12
-1.90
3.91
8.06
10.70
12.26
13.18
13.81
14.30
14.70
15.05
15.38
15.73
16.10
16.51
16.89
17.19
17.32
17.17
16.67
15.81
14.66
13.37
11.99
10.45
8.56
6.17
3.24
0.02
-3.14
-5.85
-7.98
-9.63
-11.10
-12.73
-14.74
-17.13
-19.78
-22.43
-24.86
-26.86
-28.33
-29.25
-29.70
-29.84
-29.91
-30.10
-30.54
-31.09
-31.36
-30.68
-28.28
-23.60
-16.53
-7.57
2.26
11.79
19.94
26.09
30.04
32.00
32.33
31.47
29.86
27.94
26.13
24.79
24.14
24.19
24.78
25.68
26.55
27.12
27.15
26.52
25.22
23.38
21.23
19.03
16.97
15.10
13.33
11.55
9.64
7.61
5.57
3.69
2.09
0.77
-0.41
-1.68
-3.24
-5.21
-7.49
-9.90
-12.17
-14.12
-15.69
-16.95
-18.08
-19.34
-20.95
-23.09
-25.83
-29.04
-32.33
-35.01
-36.28
-35.36
-31.78
-25.58
-17.37
-8.15
0.88
8.70
14.67
18.56
20.56
21.03
20.40
19.06
17.39
15.76
14.56
14.11
14.53
15.70
17.28
18.84
20.01
20.59
20.54
19.92
18.84
17.39
15.67
13.80
11.93
10.16
8.56
7.10
5.72
4.34
2.92
1.44
-0.13
-1.80
-3.62
-5.61
-7.74
-9.94
-12.10
-14.10
-15.83
-17.26
-18.46
-19.64
-21.08
-23.06
-25.68
-28.80
-31.87
-34.13
-34.69
-32.85
-28.34
-21.39
-12.75
-3.49
5.33
12.81
18.40
21.92
23.45
23.27
21.82
19.61
17.24
15.28
14.21
14.27
15.42
17.30
19.43
21.32
22.65
23.32
23.42
23.12
22.58
21.87
20.96
19.76
18.21
16.33
14.22
12.09
10.14
8.55
7.38
6.56
5.91
5.20
4.25
2.96
1.42
-0.20
-1.68
-2.89
-3.86
-4.83
-6.16
-8.30
-11.54
-15.95
-21.22
-26.65
-31.25
-33.98
-34.12
-31.44
-26.41
-19.93
-13.16
-7.10
-2.41
0.66
2.10
2.04
0.71
-1.54
-4.21
-6.68
-8.30
-8.63
-7.59
-5.42
-2.63
0.20
2.55
4.09
4.67
4.31
3.10
1.24
-1.07
-3.60
-6.16
-8.57
-10.68
-12.38
-13.65
-14.49
-14.97
-15.19
-15.22
-15.10
-14.81
-14.31
-13.58
-12.60
-11.50
-10.43
-9.69
-9.56
-10.31
-12.04
-14.52
-17.19
-19.19
-19.59
-17.65
-13.09
-6.17
2.36
11.46
20.07
27.31
32.62
35.77
36.85
36.16
34.18
31.42
28.44
25.70
23.53
22.08
21.31
21.08
21.18
21.38
21.49
21.38
20.94
20.06
18.71
16.89
14.66
12.06
9.19
6.09
2.87
-0.36
-3.39
-6.04
-8.17
-9.78
-10.99
-11.92
-12.68
-13.31
-13.81
-14.28
-14.92
-16.03
-17.86
-20.41
-23.32
-25.88
-27.19
-26.46
-23.27
-17.76
-10.62
-2.84
4.56
10.78
15.32
17.99
18.80
17.85
15.39
11.76
7.51
3.25
-0.36
-2.79
-3.74
-3.20
-1.44
1.09
3.79
6.13
7.73
8.44
8.33
7.62
6.53
5.19
3.65
1.93
0.05
-1.86
-3.61
-5.01
-5.97
-6.51
-6.81
-7.14
-7.80
-9.04
-11.02
-13.82
-17.34
-21.28
-25.12
-28.10
-29.42
-28.35
-24.53
-18.13
-9.84
-0.74
7.99
15.35
20.72
23.83
24.80
23.92
21.67
18.64
15.47
12.74
10.88
10.02
10.04
10.60
11.31
11.87
12.16
12.20
12.07
11.81
11.39
10.66
9.48
7.76
5.57
3.08
0.61
-1.59
-3.37
-4.73
-5.84
-6.93
-8.27
-10.10
-12.56
-15.63
-19.00
-22.04
-23.84
-23.52
-20.52
-14.87
-7.22
1.32
9.56
16.51
21.62
24.73
25.97
25.64
24.17
21.98
19.58
17.42
15.86
15.13
15.28
16.24
17.79
19.73
21.82
23.85
25.60
26.75
26.93
25.75
22.91
18.35
12.34
5.34
-2.04
-9.29
-16.03
-22.15
-27.66
-32.72
-37.49
-42.00
-46.14
-49.52
-51.55
-51.67
-49.49
-45.02
-38.72
-31.42
-24.04
-17.42
-12.15
-8.53
-6.65
-6.38
-7.44
-9.45
-11.89
-14.23
-15.90
-16.49
-15.70
-13.54
-10.23
-6.19
-1.99
1.80
4.71
6.43
6.85
6.07
4.40
2.23
-0.06
-2.17
-3.96
-5.47
-6.86
-8.38
-10.26
-12.67
-15.59
-18.70
-21.41
-22.87
-22.24
-18.96
-12.96
-4.82
4.46
13.64
21.63
27.67
31.42
32.87
32.23
29.88
26.30
22.11
17.98
14.57
12.37
11.59
12.07
13.42
15.04
16.41
17.10
16.90
15.81
14.01
11.74
9.30
6.89
4.59
2.36
0.08
-2.38
-5.14
-8.26
-11.77
-15.61
-19.53
-23.03
-25.32
-25.55
-23.02
-17.57
-9.69
-0.44
8.82
16.86
22.85
26.45
27.74
27.02
24.69
21.20
17.12
13.07
9.65
7.32
6.26
6.35
7.25
8.54
9.85
10.86
11.30
10.97
9.72
7.57
4.72
1.50
-1.70
-4.58
-7.01
-9.02
-10.81
-12.63
-14.78
-17.43
-20.53
-23.69
-26.18
-27.07
-25.48
-20.98
-13.77
-4.70
4.97
13.89
20.97
25.57
27.49
26.88
24.19
20.04
15.18
10.45
6.57
4.07
3.17
3.74
5.36
7.47
9.46
10.85
11.34
10.86
9.49
7.47
5.03
2.41
-0.24
-2.80
-5.24
-7.58
-9.91
-12.37
-15.11
-18.17
-21.31
-24.02
-25.52
-25.05
-22.09
-16.63
-9.22
-0.82
7.42
14.50
19.72
22.78
23.64
22.50
19.65
15.58
10.92
6.40
2.76
0.53
-0.10
0.69
2.39
4.35
5.95
6.74
6.53
5.36
3.42
0.99
-1.66
-4.30
-6.85
-9.31
-11.79
-14.46
-17.51
-20.99
-24.73
-28.28
-30.90
-31.78
-30.26
-26.08
-19.55
-11.51
-3.08
4.60
10.64
14.53
16.12
15.56
13.20
9.49
4.97
0.26
-3.98
-7.18
-8.91
-9.10
-8.06
-6.39
-4.83
-4.00
-4.18
-5.31
-7.07
-9.07
-11.08
-13.07
-15.18
-17.61
-20.44
-23.68
-27.18
-30.61
-33.53
-35.30
-35.21
-32.65
-27.31
-19.32
-9.31
1.73
12.71
22.59
30.59
36.24
39.35
40.02
38.51
35.28
30.94
26.20
21.77
18.24
15.97
14.95
14.88
15.24
15.51
15.30
14.48
13.16
11.56
9.88
8.18
6.38
4.27
1.63
-1.67
-5.57
-9.76
-13.73
-16.78
-18.19
-17.40
-14.17
-8.70
-1.60
6.24
13.90
20.54
25.61
28.81
30.06
29.50
27.41
24.24
20.55
16.98
14.06
12.13
11.27
11.28
11.78
12.37
12.70
12.57
11.96
10.93
9.62
8.12
6.45
4.56
2.28
-0.53
-3.95
-7.83
-11.76
-15.05
-16.92
-16.71
-14.05
-9.07
-2.39
5.07
12.29
18.38
22.73
25.07
25.39
23.87
20.86
16.78
12.18
7.66
3.79
0.99
-0.57
-1.06
-0.86
-0.51
-0.51
-1.08
-2.20
-3.62
-5.03
-6.24
-7.29
-8.37
-9.76
-11.68
-14.19
-17.16
-20.25
-22.99
-24.74
-24.79
-22.56
-17.77
-10.64
-1.89
7.45
16.24
23.64
29.20
32.86
34.83
35.39
34.81
33.37
31.36
29.18
27.27
26.02
25.67
26.26
27.57
29.21
30.66
31.43
31.14
29.57
26.74
22.74
17.78
12.05
5.75
-0.91
-7.63
-14.16
-20.27
-25.89
-31.00
-35.53
-39.17
-41.42
-41.73
-39.79
-35.78
-30.42
-24.85
-20.25
-17.37
-16.42
-17.09
-18.84
-21.10
-23.46
-25.66
-27.67
-29.41
-30.62
-30.93
-30.00
-27.72
-24.28
-20.09
-15.69
-11.77
-8.83
-7.13
-6.70
-7.44
-9.26
-11.99
-15.34
-18.90
-22.47
-25.89
-28.99
-31.55
-33.42
-34.61
-35.28
-35.72
-34.29
-29.84
-22.10
-11.68
0.42
13.27
25.92
37.23
46.15
52.03
54.67
54.49
52.32
49.05
45.38
41.71
38.34
35.73
33.83
32.44
31.28
30.08
28.69
27.09
25.42
23.90
22.70
21.95
21.60
21.46
21.32
20.94
20.09
18.49
16.46
14.15
11.69
9.19
6.72
4.31
2.01
-0.13
-2.07
-3.76
-5.29
-6.78
-8.39
-10.29
-12.60
-15.29
-18.20
-20.92
-22.85
-23.35
-21.87
-18.16
-12.46
-5.50
1.71
8.15
13.18
16.62
18.65
19.63
19.85
19.46
18.46
16.88
14.92
12.95
11.42
10.61
10.51
10.79
10.90
10.30
8.68
6.03
2.62
-1.22
-5.27
-9.44
-13.78
-18.30
-22.84
-27.08
-30.64
-33.25
-34.96
-36.07
-36.99
-38.02
-39.18
-40.17
-40.52
-39.90
-38.25
-35.88
-33.38
-31.34
-30.26
-30.35
-31.49
-33.31
-35.21
-36.44
-36.18
-33.80
-28.97
-21.92
-13.41
-4.60
3.31
9.44
13.41
15.40
15.86
15.31
14.11
12.47
10.55
8.56
6.84
5.72
5.45
6.00
7.12
8.41
9.51
10.20
10.45
10.39
10.21
10.03
9.87
9.58
8.96
7.82
6.11
3.93
1.55
-0.73
-2.62
-3.97
-4.83
-5.40
-6.03
-7.08
-8.85
-11.45
-14.68
-18.07
-20.93
-22.50
-22.18
-19.70
-15.18
-9.13
-2.31
4.53
10.78
16.03
20.08
22.81
24.08
23.79
22.00
19.00
15.37
11.81
8.96
7.10
6.13
5.63
5.06
3.97
2.17
-0.31
-3.24
-6.35
-9.46
-12.52
-15.64
-19.00
-22.80
-27.08
-31.74
-36.52
-41.09
-45.14
-48.42
-50.79
-52.18
-52.72
-52.67
-52.44
-52.38
-52.58
-52.64
-51.74
-48.90
-43.35
-34.90
-24.07
-11.99
0.00
10.67
19.18
25.20
28.84
30.60
31.19
31.36
31.75
32.72
34.25
35.96
37.28
37.63
36.67
34.43
31.29
27.91
24.92
22.76
21.53
20.97
20.64
20.13
19.24
18.05
16.88
16.04
15.72
15.85
16.15
16.16
15.41
13.61
10.72
7.09
3.39
0.50
-0.73
0.21
3.41
8.38
14.24
19.97
24.60
27.46
28.28
27.15
24.41
20.60
16.26
11.87
7.82
4.30
1.42
-0.87
-2.68
-4.17
-5.49
-6.77
-8.10
-9.49
-10.94
-12.41
-13.87
-15.30
-16.74
-18.23
-19.82
-21.60
-23.62
-25.97
-28.75
-32.07
-35.94
-40.12
-44.05
-46.84
-47.49
-45.17
-39.59
-31.14
-20.82
-10.00
0.01
8.30
14.46
18.52
20.74
21.40
20.74
19.02
16.52
13.65
10.85
8.42
6.41
4.63
2.79
0.73
-1.44
-3.31
-4.43
-4.47
-3.45
-1.69
0.32
2.18
3.62
4.56
4.92
4.55
3.25
0.82
-2.80
-7.40
-12.49
-17.39
-21.39
-23.88
-24.54
-23.44
-21.00
-17.88
-14.78
-12.25
-10.59
-9.81
-9.72
-9.98
-10.19
-9.88
-8.58
-5.86
-1.46
4.62
12.03
20.15
28.21
35.41
41.14
45.05
47.04
47.28
46.03
43.62
40.31
36.26
31.45
25.72
18.78
10.37
0.51
-10.34
-21.13
-30.38
-36.63
-38.91
-37.09
-31.92
-24.73
-16.91
-9.52
-3.08
2.33
6.77
10.22
12.57
13.71
13.64
12.60
11.08
9.71
9.11
9.75
11.78
14.98
18.79
22.44
25.17
26.42
25.92
23.63
19.65
14.13
7.24
-0.79
-9.65
-19.05
-28.75
-38.52
-48.03
-56.70
-63.61
-67.77
-68.41
-65.36
-59.14
-50.80
-41.57
-32.44
-23.95
-16.28
-9.34
-3.03
2.70
7.78
12.11
15.69
18.59
21.05
23.36
25.77
28.36
30.96
33.08
34.16
33.70
31.54
27.92
23.40
18.60
14.08
10.07
6.45
2.89
-0.97
-5.29
-10.01
-14.85
-19.38
-22.86
-24.52
-23.81
-20.45
-14.50
-6.32
3.45
13.96
24.26
33.96
42.80
50.35
56.02
59.28
59.91
58.18
54.80
50.68
47.52
46.51
47.79
50.40
52.90
54.08
53.35
50.80
46.89
43.37
41.71
42.47
45.11
48.67
52.31
55.63
58.69
56.18
45.73
29.07
11.25
-3.09
-12.22
-16.84
-18.67
-18.15
-16.96
-15.30
-13.26
-11.32
-10.36
-11.07
-13.49
-17.67
-22.72
-27.87
-31.63
-32.92
-31.43
-27.66
-22.50
-16.96
-12.01
-8.39
-6.75
-6.69
-7.46
-8.38
-9.22
-10.15
-11.62
-14.13
-18.07
-23.71
-30.69
-38.34
-45.86
-52.43
-57.18
-59.32
-58.27
-53.85
-46.53
-37.19
-27.06
-17.40
-9.31
-3.45
-0.06
1.04
0.26
-1.88
-4.84
-8.10
-11.21
-13.85
-15.84
-17.18
-17.99
-18.46
-18.76
-18.98
-19.12
-19.08
-18.74
-18.05
-17.12
-16.16
-15.56
-15.65
-16.69
-18.68
-21.36
-24.18
-26.36
-26.99
-25.21
-20.45
-12.59
-2.08
10.12
22.72
34.44
44.28
51.67
56.50
59.01
59.55
58.51
56.32
53.42
50.35
47.70
46.02
45.66
46.63
48.57
50.89
52.91
54.06
53.99
52.53
49.65
45.35
39.67
32.66
24.44
15.18
5.08
-5.67
-16.80
-27.86
-38.09
-46.42
-51.63
-52.66
-48.99
-40.86
-29.25
-15.61
-1.47
11.91
23.78
33.84
42.06
48.51
53.24
56.34
58.01
58.57
58.44
57.95
57.16
55.90
53.82
50.55
45.96
40.11
33.23
25.60
17.44
8.83
-0.22
-9.81
-20.06
-31.15
-43.32
-56.76
-71.48
-87.14
-102.94
-117.69
-130.12
-139.15
-144.32
-145.80
-144.28
-140.62
-135.51
-129.32
-122.20
-114.29
-105.86
-97.30
-88.95
-80.96
-73.12
-65.03
-56.27
-46.66
-36.36
-25.78
-15.43
-5.67
3.40
11.92
20.09
27.92
35.17
41.30
45.70
47.95
47.97
46.12
43.09
39.74
36.97
35.61
36.28
39.32
44.62
51.68
59.61
67.33
73.86
78.40
80.47
79.80
76.34
70.19
61.69
51.43
40.25
29.06
18.69
9.72
2.41
-3.30
-7.66
-11.05
-13.79
-16.16
-18.34
-20.45
-22.59
-24.93
-27.72
-31.31
-36.17
-42.60
-50.61
-59.66
-68.61
-75.93
-80.05
-79.87
-75.06
-66.18
-54.46
-41.41
-28.49
-16.85
-7.34
-0.50
3.35
4.20
2.36
-1.42
-6.10
-10.53
-13.75
-15.21
-14.86
-13.07
-10.42
-7.47
-4.57
-1.82
0.81
3.33
5.54
7.03
7.26
5.74
2.24
-3.17
-9.97
-17.25
-23.66
-27.72
-28.03
-23.77
-14.98
-2.63
11.62
25.87
38.49
48.41
55.13
58.57
58.89
56.37
51.41
44.64
36.94
29.33
22.81
18.07
15.32
14.25
14.10
14.05
13.46
12.12
10.21
8.11
6.13
4.28
2.26
-0.45
-4.32
-9.54
-15.85
-22.52
-28.40
-32.21
-32.73
-29.20
-21.54
-10.42
2.80
16.44
28.86
38.81
45.64
49.21
49.78
47.73
43.54
37.75
31.09
24.46
18.78
14.76
12.63
12.10
12.46
12.86
12.70
11.73
10.11
8.16
6.23
4.40
2.54
0.27
-2.84
-7.11
-12.65
-19.20
-26.01
-31.98
-35.74
-36.09
-32.28
-24.37
-13.23
-0.28
12.81
24.59
34.01
40.51
43.89
44.21
41.74
36.97
30.66
23.75
17.30
12.19
8.99
7.80
8.24
9.59
10.99
11.71
11.33
9.85
7.56
4.91
2.25
-0.27
-2.76
-5.53
-8.90
-13.15
-18.31
-24.11
-29.91
-34.72
-37.38
-36.81
-32.39
-24.20
-13.09
-0.49
11.95
22.76
30.95
36.10
38.23
37.59
34.62
29.79
23.77
17.35
11.43
6.77
3.86
2.80
3.22
4.51
5.92
6.84
6.87
5.98
4.34
2.29
0.15
-1.97
-4.16
-6.62
-9.60
-13.24
-17.51
-22.28
-27.22
-31.74
-35.02
-36.00
-33.73
-27.71
-18.24
-6.47
5.89
17.05
25.66
31.08
33.36
32.98
30.52
26.52
21.51
16.09
10.99
6.97
4.59
4.02
4.95
6.69
8.39
9.35
9.17
7.85
5.65
2.95
0.12
-2.61
-5.16
-7.63
-10.19
-13.13
-16.70
-21.01
-25.84
-30.61
-34.35
-35.92
-34.35
-29.22
-20.80
-10.08
1.51
12.48
21.64
28.24
31.99
32.97
31.45
27.92
22.98
17.36
11.88
7.29
4.11
2.57
2.48
3.31
4.37
5.00
4.76
3.53
1.49
-1.07
-3.84
-6.69
-9.62
-12.77
-16.29
-20.33
-24.98
-30.19
-35.63
-40.60
-44.04
-44.71
-41.71
-34.79
-24.66
-12.78
-0.90
9.42
17.26
22.40
25.04
25.55
24.25
21.39
17.30
12.52
7.85
4.13
2.00
1.68
2.86
4.82
6.66
7.64
7.36
5.84
3.42
0.58
-2.25
-4.83
-7.17
-9.40
-11.80
-14.68
-18.31
-22.92
-28.45
-34.45
-39.96
-43.62
-44.02
-40.23
-32.15
-20.68
-7.49
5.52
16.74
25.21
30.65
33.32
33.65
32.13
29.21
25.38
21.23
17.38
14.42
12.72
12.34
12.98
14.09
15.02
15.22
14.35
12.37
9.45
5.86
1.90
-2.23
-6.39
-10.51
-14.58
-18.62
-22.74
-27.09
-31.75
-36.52
-40.74
-43.36
-43.16
-39.18
-31.16
-19.78
-6.52
6.69
18.11
26.60
31.82
34.05
33.92
32.03
28.89
24.94
20.62
16.49
13.14
11.01
10.27
10.71
11.80
12.91
13.46
13.04
11.51
8.94
5.58
1.76
-2.19
-5.99
-9.47
-12.59
-15.44
-18.23
-21.24
-24.80
-29.10
-34.04
-39.03
-43.01
-44.57
-42.46
-36.06
-25.74
-12.83
0.79
13.24
23.18
29.99
33.72
34.81
33.82
31.38
28.09
24.63
21.62
19.57
18.68
18.82
19.60
20.48
20.99
20.83
19.87
18.10
15.60
12.50
8.96
5.24
1.58
-1.81
-4.84
-7.56
-10.14
-12.87
-16.01
-19.81
-24.26
-29.04
-33.41
-36.27
-36.43
-32.98
-25.68
-15.16
-2.82
9.53
20.24
28.16
32.83
34.38
33.25
30.02
25.36
19.95
14.58
9.99
6.73
5.06
4.82
5.53
6.60
7.49
7.86
7.55
6.55
4.92
2.73
0.09
-2.89
-6.05
-9.21
-12.23
-15.01
-17.58
-20.08
-22.79
-25.96
-29.66
-33.55
-36.81
-38.28
-36.78
-31.57
-22.71
-11.18
1.43
13.36
23.20
30.18
34.20
35.56
34.71
32.11
28.21
23.57
18.86
14.76
11.84
10.34
10.16
10.90
12.00
12.89
13.15
12.50
10.87
8.37
5.24
1.83
-1.57
-4.77
-7.72
-10.48
-13.20
-16.08
-19.36
-23.25
-27.75
-32.48
-36.57
-38.84
-38.08
-33.60
-25.55
-14.94
-3.40
7.38
16.08
21.98
24.95
25.23
23.25
19.53
14.69
9.43
4.57
0.82
-1.32
-1.71
-0.59
1.50
3.82
5.67
6.48
5.94
4.12
1.34
-1.93
-5.27
-8.40
-11.30
-14.07
-16.93
-20.13
-23.84
-28.10
-32.67
-36.95
-39.92
-40.40
-37.35
-30.41
-20.08
-7.70
4.94
16.12
24.64
29.96
32.14
31.52
28.59
23.86
17.99
11.81
6.25
2.17
0.08
-0.03
1.32
3.28
4.97
5.71
5.14
3.26
0.32
-3.25
-7.08
-10.85
-14.45
-17.95
-21.59
-25.68
-30.46
-35.97
-41.88
-47.38
-51.23
-52.05
-48.65
-40.54
-28.26
-13.29
2.27
16.32
27.29
34.47
37.89
38.04
35.61
31.28
25.73
19.76
14.26
10.09
7.84
7.64
9.06
11.26
13.22
14.07
13.31
10.94
7.39
3.29
-0.76
-4.39
-7.59
-10.62
-13.87
-17.73
-22.46
-28.13
-34.55
-41.19
-47.06
-50.80
-50.90
-46.22
-36.51
-22.67
-6.63
9.21
22.71
32.54
38.40
40.75
40.40
38.13
34.53
30.11
25.41
21.08
17.77
15.93
15.64
16.54
17.98
19.18
19.53
18.66
16.53
13.32
9.34
4.95
0.42
-4.05
-8.37
-12.55
-16.66
-20.88
-25.47
-30.66
-36.45
-42.39
-47.45
-50.10
-48.79
-42.51
-31.30
-16.44
-0.09
15.35
27.97
36.76
41.67
43.30
42.44
39.86
36.15
31.90
27.72
24.21
21.82
20.70
20.63
21.17
21.79
22.09
21.82
20.91
19.30
16.91
13.64
9.48
4.55
-0.82
-6.15
-10.98
-15.01
-18.22
-20.91
-23.62
-26.99
-31.45
-36.94
-42.70
-47.30
-48.97
-46.20
-38.32
-25.85
-10.42
5.74
20.40
31.97
39.69
43.53
43.94
41.58
37.24
31.84
26.44
22.04
19.40
18.78
19.85
21.86
23.85
25.03
24.96
23.69
21.59
19.16
16.78
14.54
12.22
9.44
5.87
1.44
-3.58
-8.72
-13.43
-17.37
-20.44
-22.84
-24.94
-27.21
-30.08
-33.85
-38.50
-43.55
-47.94
-50.23
-48.92
-43.05
-32.60
-18.67
-3.19
11.66
24.08
33.05
38.33
40.27
39.45
36.44
31.87
26.46
21.14
16.89
14.54
14.42
16.24
19.19
22.22
24.41
25.19
24.51
22.64
20.05
17.12
14.11
11.06
7.91
4.58
1.00
-2.80
-6.69
-10.48
-13.96
-16.96
-19.43
-21.45
-23.24
-25.11
-27.44
-30.57
-34.64
-39.43
-44.15
-47.52
-48.03
-44.45
-36.30
-24.21
-9.75
5.03
18.16
28.33
34.99
38.19
38.30
35.80
31.24
25.35
19.09
13.61
9.92
8.64
9.70
12.40
15.68
18.46
20.03
20.19
19.14
17.29
15.03
12.52
9.74
6.57
2.93
-1.11
-5.33
-9.41
-13.04
-16.04
-18.42
-20.35
-22.13
-24.09
-26.56
-29.76
-33.73
-38.13
-42.20
-44.79
-44.63
-40.72
-32.78
-21.43
-8.08
5.49
17.59
26.99
33.12
35.89
35.56
32.61
27.72
21.77
15.80
10.84
7.70
6.77
7.85
10.28
13.14
15.57
17.02
17.31
16.60
15.17
13.20
10.70
7.52
3.57
-1.07
-6.01
-10.72
-14.70
-17.69
-19.78
-21.37
-22.97
-25.12
-28.19
-32.30
-37.19
-42.14
-45.96
-47.26
-44.83
-38.09
-27.40
-14.03
0.19
13.40
24.15
31.61
35.57
36.27
34.22
30.14
24.89
19.46
14.80
11.68
10.46
11.00
12.69
14.69
16.23
16.87
16.60
15.69
14.47
13.05
11.26
8.73
5.18
0.64
-4.50
-9.61
-14.06
-17.51
-19.97
-21.83
-23.71
-26.22
-29.81
-34.49
-39.76
-44.52
-47.34
-46.82
-42.10
-33.21
-21.11
-7.47
5.87
17.41
26.26
32.17
35.30
35.95
34.46
31.24
26.88
22.23
18.24
15.75
15.15
16.22
18.20
20.12
21.18
20.99
19.69
17.73
15.58
13.54
11.58
9.44
6.75
3.28
-0.96
-5.68
-10.40
-14.64
-18.06
-20.64
-22.68
-24.72
-27.36
-31.09
-36.03
-41.80
-47.48
-51.73
-53.13
-50.55
-43.57
-32.68
-19.19
-4.87
8.52
19.66
27.84
32.98
35.36
35.51
34.04
31.56
28.70
26.05
24.07
23.06
23.07
23.93
25.24
26.55
27.42
27.64
27.22
26.33
25.17
23.80
22.08
19.74
16.59
12.66
8.29
4.02
0.30
-2.68
-5.09
-7.36
-9.92
-13.00
-16.57
-20.33
-23.94
-27.08
-29.63
-31.64
-33.36
-35.15
-37.47
-40.76
-45.20
-50.47
-55.64
-59.22
-59.62
-55.62
-46.97
-34.44
-19.73
-4.83
8.49
19.11
26.68
31.42
33.84
34.45
33.72
32.05
29.92
27.85
26.38
25.91
26.57
28.12
30.04
31.72
32.70
32.77
32.01
30.69
29.11
27.47
25.79
23.99
21.90
19.38
16.37
12.91
9.19
5.43
1.89
-1.27
-3.96
-6.28
-8.36
-10.42
-12.63
-15.11
-17.90
-20.93
-24.04
-27.06
-29.82
-32.26
-34.50
-36.80
-39.53
-43.05
-47.50
-52.60
-57.56
-61.11
-61.81
-58.50
-50.74
-39.09
-24.95
-10.19
3.40
14.61
22.91
28.36
31.34
32.33
31.81
30.22
28.09
25.97
24.38
23.74
24.19
25.63
27.68
29.81
31.49
32.33
32.20
31.23
29.75
28.07
26.35
24.51
22.31
19.56
16.21
12.46
8.61
5.03
1.93
-0.67
-2.89
-4.97
-7.16
-9.63
-12.41
-15.40
-18.38
-21.11
-23.43
-25.33
-26.98
-28.64
-30.67
-33.43
-37.19
-42.04
-47.68
-53.33
-57.73
-59.36
-56.92
-49.83
-38.53
-24.43
-9.48
4.40
15.86
24.28
29.73
32.60
33.36
32.41
30.17
27.14
24.01
21.55
20.40
20.81
22.60
25.14
27.63
29.44
30.26
30.19
29.57
28.76
27.86
26.72
24.96
22.26
18.58
14.21
9.72
5.70
2.53
0.23
-1.52
-3.24
-5.37
-8.14
-11.48
-15.09
-18.56
-21.58
-23.96
-25.71
-27.00
-28.16
-29.65
-31.94
-35.38
-39.98
-45.23
-50.03
-52.94
-52.60
-48.15
-39.60
-27.82
-14.29
-0.65
11.65
21.58
28.58
32.50
33.50
32.02
28.73
24.48
20.14
16.50
14.07
13.09
13.50
15.01
17.19
19.57
21.68
23.16
23.81
23.57
22.49
20.69
18.29
15.39
12.11
8.60
5.07
1.69
-1.41
-4.26
-6.94
-9.58
-12.24
-14.89
-17.40
-19.68
-21.71
-23.63
-25.73
-28.38
-31.90
-36.35
-41.35
-46.00
-49.00
-48.99
-45.05
-37.01
-25.61
-12.28
1.26
13.50
23.39
30.46
34.63
36.10
35.17
32.27
28.00
23.14
18.55
15.03
13.13
13.02
14.41
16.75
19.30
21.37
22.48
22.42
21.23
19.17
16.59
13.81
11.00
8.11
4.95
1.30
-2.93
-7.60
-12.37
-16.83
-20.66
-23.78
-26.37
-28.73
-31.22
-34.13
-37.71
-42.08
-47.14
-52.37
-56.73
-58.82
-57.19
-50.94
-40.11
-25.82
-9.95
5.44
18.68
28.87
35.75
39.55
40.57
39.18
35.76
30.94
25.63
20.89
17.74
16.76
17.98
20.75
24.06
26.82
28.24
28.05
26.47
24.01
21.19
18.28
15.26
11.88
7.93
3.31
-1.80
-7.08
-12.13
-16.67
-20.56
-23.82
-26.66
-29.37
-32.31
-35.87
-40.33
-45.71
-51.56
-56.82
-60.04
-59.64
-54.50
-44.40
-30.21
-13.67
3.10
18.15
30.17
38.57
43.38
44.99
43.95
40.90
36.59
31.86
27.60
24.60
23.31
23.75
25.46
27.68
29.61
30.62
30.44
29.16
27.09
24.59
21.86
18.89
15.52
11.51
6.77
1.41
-4.24
-9.73
-14.65
-18.70
-21.85
-24.27
-26.34
-28.56
-31.41
-35.27
-40.19
-45.64
-50.47
-53.10
-51.91
-45.86
-34.90
-20.15
-3.61
12.45
26.06
36.05
42.12
44.62
44.19
41.53
37.25
31.99
26.44
21.39
17.57
15.42
14.99
15.90
17.44
18.87
19.63
19.42
18.27
16.39
14.06
11.52
8.89
6.11
3.08
-0.30
-3.98
-7.74
-11.29
-14.36
-16.89
-19.02
-21.07
-23.42
-26.37
-30.13
-34.75
-40.06
-45.55
-50.28
-52.97
-52.28
-47.27
-37.80
-24.70
-9.55
5.70
19.35
30.19
37.69
41.75
42.57
40.52
36.20
30.47
24.43
19.20
15.65
14.14
14.39
15.67
17.05
17.79
17.52
16.28
14.37
12.18
9.94
7.68
5.23
2.34
-1.17
-5.29
-9.73
-14.01
-17.60
-20.15
-21.61
-22.32
-22.83
-23.85
-25.95
-29.44
-34.17
-39.52
-44.36
-47.30
-47.04
-42.76
-34.53
-23.34
-10.89
0.96
10.66
17.27
20.53
20.60
17.87
12.89
6.39
-0.62
-6.91
-11.31
-12.93
-11.55
-7.57
-1.92
4.36
10.40
15.73
20.29
24.23
27.75
30.89
33.52
35.41
36.44
36.70
36.61
36.76
37.68
39.56
42.06
44.39
45.50
44.51
40.98
35.12
27.80
20.32
14.19
10.78
10.98
15.06
22.52
32.24
42.71
52.40
60.03
64.77
66.20
64.33
59.46
52.20
43.40
34.10
25.41
18.26
13.25
10.47
9.55
9.80
10.44
10.84
10.63
9.69
8.04
5.73
2.71
-1.03
-5.43
-10.24
-15.02
-19.24
-22.51
-24.68
-26.00
-27.02
-28.52
-31.21
-35.53
-41.42
-48.18
-54.62
-59.21
-60.55
-57.78
-50.82
-40.39
-27.82
-14.66
-2.30
8.15
15.95
20.66
22.11
20.48
16.36
10.74
4.87
-0.07
-3.25
-4.34
-3.51
-1.29
1.68
4.81
7.62
9.80
11.10
11.42
10.70
8.97
6.30
2.82
-1.31
-5.87
-10.61
-15.27
-19.64
-23.77
-27.88
-32.33
-37.34
-42.72
-47.71
-51.11
-51.63
-48.38
-41.24
-31.01
-19.12
-7.28
3.03
10.80
15.56
17.28
16.28
13.09
8.47
3.29
-1.55
-5.30
-7.49
-8.03
-7.19
-5.49
-3.56
-1.95
-1.09
-1.25
-2.48
-4.69
-7.66
-11.12
-14.80
-18.51
-22.19
-25.89
-29.78
-34.09
-38.99
-44.46
-50.10
-55.17
-58.64
-59.52
-57.09
-51.23
-42.41
-31.55
-19.78
-8.16
2.43
11.34
18.13
22.52
24.46
24.17
22.10
18.92
15.35
12.05
9.51
7.99
7.54
7.99
9.00
10.15
11.04
11.34
10.89
9.65
7.75
5.33
2.50
-0.74
-4.49
-8.96
-14.38
-20.89
-28.38
-36.37
-43.98
-50.03
-53.30
-52.84
-48.33
-40.23
-29.65
-18.04
-6.79
3.11
11.12
17.08
21.01
22.96
22.99
21.32
18.36
14.79
11.43
9.06
8.19
8.92
10.90
13.40
15.55
16.59
16.04
13.92
10.54
6.43
2.04
-2.38
-6.81
-11.34
-16.11
-21.26
-26.92
-33.18
-39.97
-46.80
-52.68
-56.22
-55.97
-51.02
-41.38
-28.07
-12.86
2.30
15.83
26.76
34.80
40.07
42.92
43.71
42.87
40.89
38.38
36.01
34.37
33.84
34.47
36.01
37.95
39.70
40.73
40.70
39.52
37.28
34.19
30.54
26.64
22.76
19.09
15.71
12.52
9.28
5.66
1.49
-3.08
-7.47
-10.66
-11.52
-9.14
-3.19
5.92
17.14
29.09
40.48
50.38
58.35
64.24
68.01
69.54
68.69
65.38
59.82
52.53
44.26
35.80
27.83
20.73
14.60
9.37
4.79
0.63
-3.34
-7.28
-11.25
-15.26
-19.24
-23.13
-26.89
-30.45
-33.71
-36.52
-38.69
-40.10
-40.75
-40.71
-39.97
-38.22
-34.82
-28.86
-19.56
-6.60
9.56
27.74
46.33
63.75
78.72
90.44
98.47
102.69
103.22
100.47
95.16
88.24
80.65
73.12
66.03
59.45
53.29
47.44
41.84
36.40
30.92
25.14
18.75
11.52
3.45
-5.21
-14.03
-22.51
-30.25
-37.07
-43.04
-48.42
-53.57
-58.84
-64.53
-70.92
-78.22
-86.41
-95.07
-103.25
-109.52
-112.45
-111.05
-105.25
-95.90
-84.51
-72.71
-61.86
-52.87
-46.24
-42.28
-41.06
-42.34
-45.41
-49.08
-51.96
-52.82
-51.00
-46.57
-40.22
-32.97
-25.77
-19.33
-14.00
-9.89
-6.95
-5.09
-4.16
-3.91
-4.00
-4.05
-3.78
-3.14
-2.41
-2.06
-2.68
-4.78
-8.55
-13.78
-19.68
-24.98
-28.11
-27.61
-22.58
-13.01
0.14
15.22
30.33
43.78
54.39
61.54
65.07
65.17
62.32
57.32
51.21
45.19
40.31
37.23
36.08
36.46
37.57
38.53
38.67
37.69
35.62
32.73
29.24
25.24
20.65
15.39
9.54
3.41
-2.54
-7.86
-12.32
-16.03
-19.36
-22.82
-26.91
-31.91
-37.78
-44.02
-49.67
-53.38
-53.75
-49.77
-41.18
-28.67
-13.73
1.75
15.96
27.55
35.79
40.49
41.87
40.44
36.93
32.28
27.51
23.61
21.28
20.75
21.76
23.65
25.62
26.95
27.26
26.53
25.01
23.03
20.76
18.15
14.98
11.03
6.33
1.15
-4.00
-8.62
-12.40
-15.34
-17.75
-20.13
-23.01
-26.82
-31.67
-37.24
-42.71
-46.84
-48.25
-45.82
-39.06
-28.40
-15.01
-0.55
13.31
25.23
34.38
40.34
43.07
42.80
40.05
35.64
30.67
26.29
23.40
22.40
23.09
24.78
26.60
27.80
28.00
27.14
25.39
22.95
19.94
16.39
12.30
7.75
2.88
-2.05
-6.82
-11.25
-15.26
-18.94
-22.54
-26.38
-30.81
-36.00
-41.78
-47.51
-52.18
-54.59
-53.73
-49.10
-40.95
-30.28
-18.58
-7.40
1.98
8.76
12.69
13.91
12.74
9.66
5.27
0.32
-4.37
-8.03
-10.16
-10.64
-9.77
-8.02
-5.92
-3.91
-2.29
-1.31
-1.16
-1.98
-3.79
-6.49
-9.79
-13.38
-16.97
-20.39
-23.64
-26.89
-30.44
-34.59
-39.43
-44.69
-49.58
-52.93
-53.43
-50.07
-42.50
-31.19
-17.36
-2.60
11.56
23.92
33.75
40.76
44.86
46.16
44.88
41.48
36.75
31.75
27.58
25.03
24.42
25.44
27.32
29.12
29.98
29.30
26.89
22.89
17.68
11.76
5.58
-0.58
-6.60
-12.50
-18.33
-24.14
-30.00
-35.95
-41.92
-47.53
-51.93
-53.87
-51.99
-45.41
-34.11
-19.18
-2.50
13.78
27.84
38.53
45.47
48.75
48.76
46.03
41.20
35.08
28.69
23.04
19.05
17.18
17.38
19.08
21.36
23.22
23.93
23.18
21.02
17.80
13.93
9.76
5.47
1.17
-3.15
-7.55
-12.20
-17.39
-23.40
-30.28
-37.52
-43.99
-48.06
-48.05
-42.82
-32.30
-17.54
-0.49
16.53
31.48
43.00
50.49
54.00
53.92
50.88
45.61
39.00
32.08
25.90
21.32
18.78
18.24
19.14
20.62
21.81
21.99
20.81
18.21
14.46
9.94
5.06
0.14
-4.67
-9.34
-13.98
-18.76
-23.94
-29.82
-36.52
-43.81
-50.86
-56.19
-57.98
-54.64
-45.49
-31.15
-13.52
4.83
21.35
34.29
42.87
47.23
47.98
45.86
41.60
35.92
29.65
23.71
18.97
16.04
15.04
15.62
17.04
18.43
19.05
18.43
16.44
13.21
9.05
4.35
-0.55
-5.42
-10.11
-14.62
-19.05
-23.60
-28.58
-34.30
-40.89
-48.03
-54.79
-59.61
-60.66
-56.39
-46.23
-30.91
-12.40
6.65
23.67
36.80
45.23
49.03
48.83
45.51
40.01
33.33
26.55
20.71
16.62
14.62
14.53
15.74
17.43
18.87
19.55
19.22
17.82
15.39
12.00
7.79
3.01
-2.06
-7.07
-11.74
-15.92
-19.68
-23.27
-27.15
-31.74
-37.27
-43.52
-49.62
-54.13
-55.37
-51.89
-43.08
-29.44
-12.59
5.14
21.33
34.08
42.34
45.98
45.58
42.12
36.72
30.49
24.40
19.24
15.57
13.62
13.29
14.19
15.77
17.45
18.73
19.28
18.91
17.58
15.28
12.06
8.06
3.48
-1.38
-6.18
-10.61
-14.48
-17.78
-20.70
-23.60
-26.97
-31.18
-36.26
-41.68
-46.29
-48.49
-46.76
-40.17
-28.83
-13.94
2.51
18.32
31.66
41.41
47.16
49.06
47.58
43.42
37.47
30.82
24.63
19.98
17.52
17.36
19.05
21.74
24.53
26.69
27.87
28.01
27.28
25.84
23.77
21.09
17.81
14.07
10.16
6.48
3.45
1.31
0.03
-0.79
-1.77
-3.65
-6.92
-11.56
-16.94
-21.83
-24.71
-24.23
-19.58
-10.84
1.13
14.81
28.43
40.34
49.31
54.71
56.59
55.45
52.06
47.14
41.23
34.68
27.83
21.07
14.85
9.57
5.43
2.36
0.14
-1.52
-2.80
-3.79
-4.57
-5.33
-6.33
-7.80
-9.81
-12.21
-14.67
-16.90
-18.73
-20.25
-21.74
-23.53
-25.86
-28.68
-31.57
-33.75
-34.30
-32.37
-27.53
-19.94
-10.42
-0.31
8.86
15.72
19.38
19.58
16.64
11.32
4.60
-2.52
-9.14
-14.57
-18.39
-20.46
-20.95
-20.29
-18.99
-17.51
-16.17
-15.13
-14.57
-14.73
-15.93
-18.43
-22.19
-26.78
-31.50
-35.63
-38.76
-40.93
-42.60
-44.36
-46.71
-49.77
-53.27
-56.54
-58.65
-58.60
-55.59
-49.30
-40.06
-28.87
-17.14
-6.31
2.51
8.80
12.54
14.04
13.80
12.31
10.17
7.96
6.28
5.59
6.05
7.43
9.25
10.93
11.97
12.15
11.50
10.17
8.37
6.28
4.01
1.67
-0.69
-3.00
-5.29
-7.68
-10.34
-13.48
-17.32
-21.99
-27.47
-33.51
-39.62
-45.10
-49.20
-51.27
-50.90
-48.06
-43.02
-36.34
-28.78
-21.22
-14.54
-9.44
-6.35
-5.30
-5.96
-7.73
-9.97
-12.11
-13.78
-14.73
-14.86
-14.12
-12.59
-10.51
-8.29
-6.41
-5.32
-5.31
-6.45
-8.62
-11.54
-14.87
-18.35
-21.79
-25.11
-28.38
-31.78
-35.62
-40.17
-45.59
-51.70
-57.89
-63.15
-66.24
-66.04
-61.91
-53.92
-42.96
-30.48
-18.13
-7.36
0.94
6.46
9.42
10.37
10.02
9.08
8.19
7.87
8.45
10.00
12.37
15.20
18.07
20.59
22.42
23.35
23.22
21.95
19.62
16.41
12.67
8.75
4.97
1.51
-1.59
-4.46
-7.27
-10.28
-13.74
-17.82
-22.42
-27.06
-30.84
-32.59
-31.20
-26.01
-17.16
-5.58
7.22
19.58
30.09
37.88
42.62
44.46
43.84
41.39
37.82
33.92
30.49
28.16
27.31
27.93
29.68
31.97
34.16
35.71
36.25
35.65
33.95
31.33
28.08
24.50
20.92
17.63
14.78
12.44
10.49
8.71
6.83
4.55
1.69
-1.70
-5.24
-8.12
-9.29
-7.75
-2.97
4.84
14.63
24.81
33.73
40.22
43.80
44.65
43.33
40.44
36.51
32.01
27.46
23.43
20.51
19.11
19.29
20.76
22.94
25.14
26.67
26.93
25.47
22.11
17.04
10.90
4.70
-0.37
-3.31
-3.63
-1.56
1.86
4.99
5.92
3.04
-4.52
-16.39
-30.80
-44.84
-55.10
-58.74
-54.46
-43.04
-27.09
-10.17
4.50
15.04
21.31
24.46
26.09
27.48
29.14
31.06
33.12
35.55
39.05
44.39
52.05
61.87
73.01
84.23
94.29
102.29
107.98
111.81
114.76
118.14
123.16
130.56
140.23
151.35
162.52
172.27
179.58
184.05
186.11
187.21
190.04
198.17
214.98
241.79
276.30
312.29
341.26
355.57
351.54
330.77
299.06
263.37
228.75
196.81
166.38
135.55
103.63
71.75
41.92
15.37
-8.60
-32.57
-59.90
-93.15
-133.02
-177.81
-224.40
-269.48
-310.84
-348.19
-382.97
-417.63
-454.64
-495.98
-542.59
-594.03
-647.78
-698.76
-739.73
-762.86
-762.13
-735.64
-686.42
-621.32
-548.44
-474.37
-402.65
-333.85
-266.86
-200.56
-135.01
-71.91
-14.22
34.78
72.58
98.43
113.74
121.79
126.45
130.86
136.65
143.94
152.14
160.83
170.08
179.97
189.81
197.73
201.21
198.23
188.40
173.36
156.12
139.77
126.25
115.75
107.06
98.57
89.21
78.95
68.45
58.53
49.64
41.77
34.78
28.88
24.79
23.51
25.76
31.51
39.85
49.22
57.95
64.69
68.71
69.81
68.19
64.16
58.02
50.17
41.24
32.11
23.77
16.95
11.86
8.22
5.49
3.16
0.96
-1.14
-3.15
-5.29
-8.01
-11.90
-17.37
-24.47
-32.84
-41.90
-51.04
-59.85
-68.20
-76.24
-84.32
-92.89
-102.21
-112.10
-121.91
-130.66
-137.40
-141.60
-143.38
-143.50
-142.90
-142.10
-140.77
-137.59
-130.68
-118.09
-98.41
-71.27
-37.55
0.73
40.78
79.69
115.04
145.32
169.94
188.95
202.57
210.95
214.21
212.57
206.59
197.13
185.24
171.76
157.29
142.25
127.06
112.29
98.53
86.21
75.38
65.73
56.68
47.60
37.99
27.66
16.97
6.87
-1.17
-5.53
-5.01
0.65
10.55
22.79
35.05
45.27
52.14
55.27
55.00
52.05
47.20
41.19
34.77
28.73
23.85
20.73
19.53
19.92
21.16
22.38
22.88
22.34
20.77
18.29
15.04
11.02
6.28
1.03
-4.32
-9.23
-13.36
-16.66
-19.49
-22.42
-26.00
-30.59
-36.21
-42.49
-48.63
-53.41
-55.41
-53.31
-46.37
-34.79
-19.84
-3.59
11.66
23.98
32.26
36.27
36.47
33.70
28.87
22.89
16.60
10.83
6.31
3.61
2.92
4.04
6.32
8.86
10.78
11.42
10.53
8.21
4.77
0.59
-4.07
-9.00
-14.01
-18.86
-23.32
-27.26
-30.74
-34.06
-37.51
-41.20
-44.84
-47.63
-48.46
-46.23
-40.42
-31.31
-20.03
-8.11
2.87
11.66
17.55
20.32
20.11
17.26
12.26
5.76
-1.16
-7.34
-11.91
-14.48
-15.27
-14.95
-14.51
-14.88
-16.75
-19.90
-23.81
-28.20
-33.09
-38.57
-44.55
-50.83
-56.91
-62.39
-66.06
-67.29
-66.70
-65.72
-65.42
-65.66
-65.44
-62.85
-56.52
-44.42
-26.16
-3.58
20.04
41.84
60.50
75.57
87.83
97.82
107.98
120.20
134.70
150.42
166.25
182.00
197.33
212.68
213.08
189.16
143.53
89.30
39.20
-1.02
-27.36
-45.33
-58.55
-69.03
-75.46
-76.35
-73.01
-67.75
-63.04
-60.29
-60.27
-61.90
-63.67
-62.33
-55.45
-42.94
-26.95
-10.71
3.08
12.36
16.92
17.27
15.39
13.04
10.89
8.65
5.83
2.43
-1.30
-4.50
-6.69
-7.39
-6.72
-5.48
-4.72
-5.26
-7.26
-10.45
-14.10
-17.62
-20.59
-22.95
-25.03
-27.43
-30.74
-35.30
-41.15
-47.72
-53.94
-58.34
-59.35
-55.77
-47.17
-34.16
-18.24
-1.39
14.48
27.95
38.31
45.45
49.71
51.61
51.70
50.52
48.60
46.44
44.49
43.05
42.21
41.77
41.34
40.39
38.44
35.14
30.44
24.49
17.66
10.33
2.80
-4.79
-12.43
-20.14
-27.91
-35.69
-43.41
-51.01
-58.40
-65.24
-70.81
-73.99
-73.51
-68.46
-58.74
-45.28
-29.88
-14.63
-1.30
9.10
16.35
20.79
22.98
23.49
22.80
21.46
20.09
19.29
19.52
20.87
22.99
25.22
26.84
27.36
26.64
24.94
22.72
20.36
18.03
15.61
12.79
9.31
5.14
0.55
-3.97
-7.97
-11.17
-13.68
-15.89
-18.36
-21.62
-26.02
-31.62
-38.01
-44.27
-49.09
-50.95
-48.64
-41.66
-30.49
-16.53
-1.69
12.23
23.93
32.83
38.96
42.60
44.13
43.85
42.15
39.53
36.69
34.35
33.08
33.02
33.88
34.99
35.62
35.28
33.84
31.53
28.73
25.72
22.60
19.28
15.67
11.80
7.87
4.16
0.87
-1.98
-4.59
-7.27
-10.28
-13.71
-17.41
-21.06
-24.30
-26.86
-28.70
-30.11
-31.53
-33.58
-36.81
-41.50
-47.52
-54.11
-59.91
-63.22
-62.42
-56.54
-45.70
-31.08
-14.67
1.36
15.25
26.02
33.47
37.93
39.98
40.16
38.97
36.92
34.58
32.55
31.39
31.39
32.52
34.34
36.21
37.45
37.64
36.68
34.80
32.38
29.74
27.01
24.18
21.08
17.64
13.88
10.00
6.26
2.94
0.26
-1.72
-3.09
-4.14
-5.24
-6.80
-9.12
-12.24
-15.96
-19.87
-23.51
-26.57
-28.95
-30.82
-32.57
-34.67
-37.58
-41.55
-46.51
-51.93
-56.77
-59.64
-59.09
-54.10
-44.47
-31.02
-15.45
0.17
13.95
24.67
31.89
35.81
37.00
36.16
33.94
31.03
28.14
25.91
24.82
25.01
26.30
28.17
30.05
31.42
31.98
31.66
30.61
29.03
27.10
24.90
22.45
19.71
16.70
13.47
10.15
6.86
3.72
0.85
-1.68
-3.77
-5.40
-6.69
-7.89
-9.32
-11.22
-13.68
-16.55
-19.58
-22.49
-25.12
-27.47
-29.64
-31.81
-34.25
-37.22
-40.95
-45.39
-50.07
-53.99
-55.79
-54.19
-48.42
-38.60
-25.78
-11.64
1.98
13.59
22.28
27.74
30.17
29.99
27.82
24.36
20.42
16.83
14.31
13.34
14.04
16.08
18.85
21.58
23.63
24.61
24.45
23.35
21.63
19.61
17.49
15.36
13.19
10.92
8.51
5.97
3.41
0.99
-1.13
-2.90
-4.42
-5.90
-7.56
-9.55
-11.82
-14.23
-16.56
-18.71
-20.68
-22.58
-24.59
-26.90
-29.71
-33.17
-37.29
-41.82
-46.05
-48.96
-49.36
-46.37
-39.75
-30.08
-18.60
-6.88
3.65
12.00
17.72
20.76
21.34
19.85
16.83
13.00
9.18
6.19
4.61
4.64
6.08
8.41
11.00
13.26
14.86
15.65
15.69
15.11
13.98
12.33
10.13
7.40
4.31
1.13
-1.82
-4.31
-6.32
-8.07
-9.91
-12.07
-14.61
-17.31
-19.83
-21.88
-23.36
-24.44
-25.46
-26.82
-28.91
-31.98
-36.01
-40.69
-45.30
-48.79
-49.99
-47.90
-42.06
-32.78
-21.06
-8.40
3.64
13.81
21.33
25.93
27.72
27.11
24.63
20.99
16.97
13.36
10.84
9.87
10.52
12.52
15.31
18.19
20.54
21.94
22.17
21.25
19.33
16.66
13.51
10.12
6.71
3.42
0.30
-2.69
-5.66
-8.75
-12.02
-15.46
-18.94
-22.25
-25.19
-27.64
-29.61
-31.35
-33.23
-35.75
-39.31
-44.01
-49.49
-54.80
-58.59
-59.37
-56.04
-48.27
-36.72
-22.88
-8.60
4.38
14.92
22.47
27.05
28.95
28.58
26.45
23.17
19.51
16.28
14.18
13.62
14.59
16.75
19.58
22.55
25.21
27.23
28.44
28.75
28.22
27.05
25.55
24.05
22.81
21.89
21.20
20.52
19.55
18.10
16.06
13.45
10.40
7.03
3.37
-0.70
-5.46
-11.38
-18.87
-28.17
-39.12
-51.00
-62.53
-72.05
-77.86
-78.67
-74.08
-64.67
-51.95
-37.91
-24.51
-13.20
-4.76
0.70
3.50
4.22
3.51
2.08
0.69
0.06
0.82
3.33
7.56
13.13
19.39
25.63
31.22
35.75
38.98
40.88
41.47
40.82
39.02
36.22
32.60
28.38
23.77
18.99
14.26
9.75
5.63
1.97
-1.26
-4.16
-6.90
-9.67
-12.67
-16.14
-20.30
-25.16
-30.37
-35.06
-37.96
-37.72
-33.43
-24.95
-13.14
0.43
13.92
25.76
34.95
41.15
44.52
45.43
44.31
41.57
37.71
33.35
29.19
25.99
24.27
24.22
25.61
27.87
30.25
32.07
32.82
32.30
30.63
28.13
25.17
22.05
18.84
15.46
11.73
7.55
3.03
-1.56
-5.89
-9.71
-12.98
-15.88
-18.72
-21.88
-25.68
-30.34
-35.82
-41.77
-47.40
-51.54
-52.89
-50.39
-43.63
-33.06
-19.92
-5.92
7.19
18.00
25.70
30.00
31.10
29.51
25.98
21.42
16.79
13.02
10.77
10.35
11.61
14.00
16.79
19.27
20.97
21.74
21.68
21.03
20.02
18.70
17.04
14.91
12.21
8.98
5.38
1.69
-1.85
-5.04
-7.86
-10.46
-13.16
-16.34
-20.41
-25.65
-32.03
-39.14
-46.05
-51.53
-54.22
-53.14
-47.96
-39.22
-28.12
-16.17
-4.79
4.95
12.43
17.31
19.51
19.15
16.61
12.62
8.17
4.25
1.61
0.57
0.99
2.43
4.36
6.35
8.05
9.14
9.28
8.08
5.29
0.88
-4.85
-11.33
-17.89
-23.92
-28.94
-32.74
-35.34
-37.01
-38.27
-39.72
-41.77
-44.39
-46.87
-47.94
-46.15
-40.38
-30.34
-16.70
-0.92
15.17
29.81
41.70
50.07
54.72
55.89
54.21
50.56
45.99
41.56
38.13
36.29
36.18
37.60
40.04
42.87
45.44
47.23
47.82
46.95
44.49
40.47
35.12
28.77
21.86
14.81
7.97
1.50
-4.65
-10.85
-17.66
-25.66
-35.08
-45.46
-55.52
-63.38
-67.13
-65.49
-58.26
-46.44
-31.82
-16.48
-2.20
9.81
18.94
25.04
28.26
28.94
27.58
24.83
21.41
18.02
15.25
13.49
13.00
13.80
15.78
18.69
22.17
25.82
29.23
32.02
33.89
34.57
33.87
31.77
28.41
24.12
19.28
14.11
8.58
2.32
-5.18
-14.27
-24.80
-35.93
-46.17
-53.75
-57.15
-55.50
-48.95
-38.55
-26.06
-13.41
-2.22
6.45
12.20
15.20
15.94
15.01
13.02
10.54
8.07
6.08
4.90
4.70
5.46
6.94
8.82
10.73
12.31
13.27
13.34
12.35
10.22
7.08
3.19
-1.07
-5.41
-9.72
-14.11
-18.89
-24.43
-31.00
-38.62
-46.93
-55.11
-61.93
-65.96
-65.91
-60.95
-50.99
-36.78
-19.79
-1.92
14.83
28.66
38.32
43.27
43.85
41.23
37.12
33.26
30.86
30.27
31.01
32.09
32.53
31.74
29.71
26.83
23.61
20.48
17.63
15.06
12.62
10.09
7.15
3.47
-1.22
-6.95
-13.47
-20.23
-26.66
-32.44
-37.78
-43.30
-49.66
-56.99
-64.43
-70.17
-72.03
-68.33
-58.74
-44.52
-28.13
-12.32
0.79
10.31
16.51
20.36
22.92
24.87
26.44
27.58
28.25
28.70
29.39
30.94
33.68
37.44
41.49
44.81
46.41
45.71
42.69
37.81
31.73
25.08
18.32
11.75
5.60
0.06
-4.76
-8.93
-12.78
-16.91
-21.98
-28.32
-35.64
-42.84
-48.24
-50.07
-47.13
-39.27
-27.46
-13.45
0.82
13.86
24.84
33.53
39.98
44.29
46.54
46.92
45.90
44.21
42.71
42.00
42.25
43.10
43.89
43.98
42.99
40.91
37.98
34.42
30.32
25.49
19.67
12.70
4.68
-4.05
-12.98
-21.61
-29.62
-36.89
-43.57
-49.94
-56.31
-62.87
-69.42
-75.24
-79.12
-79.61
-75.52
-66.41
-52.84
-36.34
-18.90
-2.46
11.71
23.10
31.86
38.41
43.10
46.12
47.58
47.80
47.34
46.92
47.12
48.07
49.38
50.35
50.28
48.85
46.18
42.63
38.48
33.62
27.59
19.82
10.06
-1.38
-13.67
-25.70
-36.54
-45.71
-53.27
-59.62
-65.31
-70.77
-76.21
-81.65
-86.79
-90.97
-93.09
-91.78
-85.80
-74.53
-58.38
-38.80
-17.90
2.20
20.00
34.88
47.08
57.31
66.33
74.54
81.79
87.41
90.47
90.08
85.87
78.12
67.83
56.35
44.95
34.58
25.72
18.47
12.73
8.21
4.38
0.49
-4.31
-10.67
-18.70
-27.81
-36.77
-44.04
-48.21
-48.34
-44.28
-36.69
-27.04
-17.31
-9.67
-5.94
-7.14
-13.06
-22.26
-32.34
-40.52
-44.42
-42.65
-35.23
-23.44
-9.33
4.92
17.75
28.45
37.08
44.15
50.10
55.08
59.00
61.82
63.77
65.37
67.23
69.72
72.77
75.94
78.63
80.39
80.99
80.26
77.93
73.57
66.74
57.26
45.43
31.92
17.58
3.18
-10.68
-23.47
-34.62
-43.60
-50.13
-54.50
-57.58
-60.63
-64.74
-70.41
-77.35
-84.59
-90.90
-95.06
-96.08
-93.27
-86.26
-75.06
-60.18
-42.66
-23.95
-5.60
11.01
24.96
35.89
43.85
49.13
52.10
53.11
52.49
50.66
48.13
45.47
43.09
41.08
39.06
36.19
31.43
23.85
13.02
-0.83
-16.94
-34.28
-51.92
-69.21
-85.77
-101.30
-115.37
-127.44
-136.95
-143.64
-147.61
-149.27
-149.13
-147.53
-144.49
-139.87
-133.53
-125.43
-115.66
-104.27
-91.18
-76.15
-59.00
-39.89
-19.43
1.30
21.00
38.45
52.76
63.55
70.97
75.61
78.22
79.58
80.28
80.73
81.25
82.16
83.74
86.04
88.73
91.10
92.37
92.02
90.10
87.13
83.70
80.09
76.05
71.05
64.77
57.35
49.43
41.73
34.63
27.99
21.24
13.76
5.18
-4.50
-14.97
-25.72
-36.09
-45.32
-52.54
-56.96
-58.05
-55.79
-50.68
-43.63
-35.77
-28.17
-21.62
-16.57
-13.17
-11.32
-10.72
-10.97
-11.54
-11.91
-11.55
-10.14
-7.58
-4.07
-0.06
3.90
7.34
9.92
11.55
12.34
12.48
12.18
11.55
10.60
9.23
7.35
4.94
2.12
-0.85
-3.66
-6.06
-8.00
-9.65
-11.40
-13.73
-17.04
-21.51
-26.95
-32.68
-37.61
-40.41
-39.86
-35.26
-26.71
-15.11
-1.97
11.09
22.68
31.97
38.63
42.71
44.48
44.32
42.69
40.15
37.35
34.93
33.38
32.96
33.60
34.89
36.28
37.16
37.15
36.11
34.20
31.73
28.99
26.09
22.97
19.43
15.31
10.65
5.67
0.72
-3.84
-7.77
-11.01
-13.69
-16.07
-18.50
-21.34
-24.90
-29.34
-34.58
-40.12
-45.07
-48.18
-48.19
-44.24
-36.17
-24.72
-11.27
2.50
15.04
25.28
32.65
37.04
38.66
37.93
35.46
32.00
28.37
25.29
23.29
22.56
22.99
24.21
25.71
26.97
27.56
27.22
25.93
23.80
21.09
17.99
14.61
10.98
7.06
2.82
-1.62
-6.07
-10.24
-13.86
-16.76
-18.96
-20.64
-22.14
-23.89
-26.30
-29.68
-34.14
-39.39
-44.70
-48.90
-50.59
-48.58
-42.26
-31.94
-18.81
-4.59
8.88
20.17
28.42
33.38
35.17
34.18
31.00
26.35
21.18
16.53
13.32
12.13
12.95
15.25
18.11
20.55
21.87
21.83
20.63
18.71
16.45
14.00
11.24
7.93
3.91
-0.74
-5.67
-10.42
-14.55
-17.83
-20.26
-22.03
-23.50
-25.12
-27.37
-30.63
-35.07
-40.33
-45.51
-49.26
-50.12
-47.01
-39.64
-28.66
-15.47
-1.78
10.80
21.09
28.44
32.62
33.69
31.99
28.09
22.88
17.49
13.02
10.32
9.70
10.87
13.11
15.49
17.22
17.86
17.37
16.02
14.22
12.28
10.30
8.13
5.49
2.16
-1.83
-6.16
-10.30
-13.71
-16.11
-17.55
-18.39
-19.20
-20.54
-22.87
-26.40
-31.01
-36.10
-40.60
-43.11
-42.23
-37.06
-27.54
-14.59
0.14
14.69
27.30
36.85
42.85
45.41
44.95
42.08
37.52
32.12
26.81
22.47
19.76
18.91
19.60
21.15
22.71
23.54
23.26
21.85
19.57
16.79
13.79
10.65
7.26
3.38
-1.13
-6.21
-11.56
-16.69
-21.09
-24.46
-26.81
-28.45
-29.94
-31.86
-34.72
-38.78
-43.90
-49.41
-54.16
-56.69
-55.58
-49.98
-39.87
-26.21
-10.76
4.45
17.58
27.43
33.58
36.35
36.46
34.81
32.19
29.25
26.53
24.45
23.33
23.31
24.24
25.71
27.17
28.11
28.21
27.40
25.78
23.54
20.79
17.66
14.20
10.53
6.78
3.03
-0.68
-4.40
-8.14
-11.89
-15.54
-18.93
-21.96
-24.58
-26.87
-29.01
-31.31
-34.18
-38.00
-42.96
-48.79
-54.62
-59.01
-60.28
-57.05
-48.79
-36.11
-20.60
-4.41
10.40
22.38
30.90
36.02
38.24
38.15
36.34
33.42
30.07
27.03
24.96
24.27
24.94
26.53
28.39
29.89
30.63
30.51
29.65
28.21
26.30
23.88
20.89
17.26
13.08
8.59
4.14
0.12
-3.18
-5.75
-7.79
-9.75
-12.02
-14.85
-18.14
-21.62
-24.90
-27.73
-30.07
-32.13
-34.29
-37.00
-40.65
-45.44
-51.13
-56.92
-61.46
-63.10
-60.42
-52.73
-40.45
-25.05
-8.59
6.81
19.60
28.97
34.86
37.66
37.98
36.47
33.78
30.61
27.72
25.79
25.28
26.26
28.38
30.94
33.16
34.43
34.47
33.36
31.42
29.01
26.39
23.65
20.78
17.72
14.47
11.09
7.69
4.37
1.22
-1.69
-4.33
-6.75
-9.04
-11.37
-13.85
-16.56
-19.41
-22.24
-24.83
-27.06
-28.93
-30.67
-32.65
-35.30
-39.03
-44.01
-49.97
-56.10
-61.04
-63.14
-60.96
-53.72
-41.69
-26.25
-9.44
6.52
19.90
29.75
35.92
38.81
39.08
37.39
34.43
30.87
27.46
24.92
23.78
24.24
26.06
28.64
31.23
33.12
33.91
33.50
32.11
30.09
27.78
25.34
22.75
19.85
16.53
12.82
8.98
5.34
2.19
-0.38
-2.51
-4.52
-6.78
-9.50
-12.72
-16.25
-19.74
-22.86
-25.37
-27.19
-28.55
-29.82
-31.51
-34.12
-37.98
-43.10
-49.01
-54.69
-58.69
-59.42
-55.66
-46.97
-34.02
-18.41
-2.29
12.29
23.82
31.59
35.58
36.23
34.22
30.32
25.44
20.52
16.51
14.15
13.80
15.31
18.10
21.34
24.19
26.06
26.73
26.25
24.85
22.75
20.06
16.78
12.91
8.57
4.08
-0.16
-3.83
-6.81
-9.25
-11.45
-13.74
-16.30
-19.08
-21.84
-24.26
-26.14
-27.44
-28.41
-29.46
-31.12
-33.89
-38.07
-43.51
-49.59
-55.11
-58.53
-58.34
-53.51
-43.87
-30.28
-14.44
1.58
15.87
27.07
34.59
38.43
39.06
37.16
33.55
29.09
24.70
21.20
19.23
19.05
20.53
23.20
26.34
29.23
31.28
32.15
31.74
30.12
27.52
24.10
20.05
15.52
10.73
5.94
1.45
-2.50
-5.84
-8.68
-11.26
-13.84
-16.57
-19.44
-22.33
-25.11
-27.73
-30.36
-33.35
-37.11
-41.97
-47.88
-54.23
-59.78
-62.92
-62.05
-56.10
-45.03
-29.88
-12.61
4.49
19.40
30.77
38.16
41.80
42.34
40.56
37.23
33.05
28.78
25.16
22.86
22.29
23.47
25.97
29.04
31.85
33.73
34.25
33.28
30.93
27.42
23.08
18.30
13.46
8.88
4.75
1.10
-2.22
-5.36
-8.45
-11.55
-14.63
-17.59
-20.38
-22.96
-25.40
-27.92
-30.85
-34.60
-39.45
-45.29
-51.43
-56.56
-59.04
-57.32
-50.49
-38.67
-23.09
-5.77
10.96
25.09
35.33
41.28
43.32
42.24
39.03
34.66
30.04
25.95
23.07
21.89
22.53
24.75
27.91
31.18
33.75
34.99
34.65
32.81
29.78
25.96
21.75
17.43
13.19
9.06
5.02
0.99
-3.14
-7.40
-11.74
-15.96
-19.78
-22.97
-25.40
-27.21
-28.69
-30.35
-32.71
-36.23
-41.08
-46.98
-53.08
-57.92
-59.77
-57.08
-49.07
-36.15
-19.87
-2.58
13.36
26.14
34.95
39.81
41.29
40.11
36.97
32.53
27.59
23.10
19.97
18.90
20.02
22.89
26.55
29.91
32.04
32.48
31.24
28.72
25.46
21.91
18.28
14.54
10.54
6.12
1.27
-3.81
-8.78
-13.26
-16.96
-19.72
-21.61
-22.88
-23.97
-25.43
-27.77
-31.37
-36.15
-41.50
-46.26
-48.87
-47.86
-42.30
-32.24
-18.77
-3.75
10.67
22.69
31.20
35.85
36.87
34.85
30.57
24.93
18.97
13.78
10.28
8.99
9.88
12.36
15.56
18.54
20.55
21.18
20.33
18.20
15.11
11.43
7.42
3.21
-1.18
-5.77
-10.41
-14.78
-18.45
-21.13
-22.76
-23.66
-24.34
-25.34
-27.11
-29.85
-33.46
-37.49
-41.13
-43.25
-42.65
-38.41
-30.24
-18.71
-5.12
8.79
21.35
31.30
37.99
41.32
41.55
39.16
34.81
29.36
23.81
19.22
16.48
16.04
17.75
20.83
24.21
26.80
27.95
27.50
25.74
23.11
19.97
16.48
12.58
8.24
3.58
-1.11
-5.42
-9.00
-11.71
-13.71
-15.39
-17.31
-19.99
-23.80
-28.79
-34.58
-40.33
-44.78
-46.58
-44.61
-38.41
-28.41
-15.91
-2.73
9.24
18.54
24.37
26.65
25.81
22.60
17.94
12.75
7.93
4.28
2.34
2.32
4.02
6.89
10.26
13.44
15.92
17.43
17.87
17.21
15.53
12.89
9.48
5.53
1.41
-2.53
-6.02
-8.96
-11.50
-14.00
-16.94
-20.72
-25.46
-30.78
-35.77
-39.13
-39.48
-35.85
-28.02
-16.66
-3.27
10.24
21.99
30.57
35.32
36.26
33.98
29.32
23.28
16.81
10.84
6.18
3.44
2.90
4.38
7.24
10.54
13.29
14.71
14.39
12.32
8.85
4.48
-0.22
-4.77
-8.84
-12.36
-15.49
-18.59
-22.11
-26.46
-31.76
-37.69
-43.35
-47.40
-48.38
-45.14
-37.29
-25.45
-11.14
3.62
16.84
27.04
33.47
36.07
35.27
31.76
26.38
20.03
13.65
8.19
4.48
3.03
3.91
6.62
10.21
13.49
15.38
15.22
12.93
9.00
4.21
-0.63
-5.01
-8.76
-12.03
-15.17
-18.63
-22.78
-27.86
-33.80
-40.08
-45.62
-48.92
-48.44
-43.17
-33.06
-19.21
-3.65
11.29
23.64
32.30
37.08
38.49
37.29
34.18
29.71
24.42
18.99
14.23
10.94
9.65
10.34
12.47
15.06
17.05
17.56
16.16
12.92
8.32
3.10
-2.04
-6.65
-10.57
-14.01
-17.37
-21.12
-25.64
-31.11
-37.38
-43.80
-49.24
-52.15
-51.02
-44.86
-33.71
-18.77
-2.16
13.69
26.74
35.79
40.62
41.77
40.17
36.82
32.62
28.29
24.45
21.51
19.73
19.14
19.56
20.60
21.77
22.53
22.39
21.01
18.24
14.16
9.07
3.41
-2.33
-7.73
-12.48
-16.49
-19.85
-22.89
-26.08
-29.99
-35.03
-41.22
-47.89
-53.65
-56.65
-55.11
-48.00
-35.55
-19.35
-1.83
14.45
27.58
36.74
42.07
44.36
44.49
43.18
40.88
37.98
34.90
32.21
30.44
29.93
30.61
32.01
33.36
33.84
32.92
30.49
26.84
22.53
18.12
13.96
10.10
6.31
2.30
-2.13
-6.96
-11.88
-16.46
-20.31
-23.25
-25.41
-27.19
-29.11
-31.68
-35.26
-40.08
-46.09
-52.86
-59.41
-64.23
-65.52
-61.76
-52.33
-37.90
-20.34
-2.19
14.18
27.21
36.39
42.08
45.02
45.92
45.30
43.53
41.05
38.42
36.29
35.15
35.22
36.28
37.76
38.95
39.26
38.36
36.32
33.48
30.31
27.14
24.12
21.09
17.80
14.04
9.84
5.48
1.36
-2.18
-5.01
-7.29
-9.36
-11.62
-14.39
-17.76
-21.58
-25.49
-29.08
-32.07
-34.44
-36.44
-38.57
-41.41
-45.43
-50.83
-57.31
-64.01
-69.49
-71.94
-69.72
-61.87
-48.60
-31.39
-12.58
5.31
20.35
31.60
39.09
43.44
45.45
45.73
44.68
42.67
40.18
37.83
36.21
35.76
36.49
38.03
39.72
40.87
40.99
39.94
37.88
35.18
32.20
29.16
26.12
22.94
19.46
15.62
11.51
7.35
3.45
0.08
-2.61
-4.66
-6.28
-7.81
-9.62
-11.99
-15.04
-18.68
-22.60
-26.41
-29.79
-32.56
-34.83
-36.92
-39.34
-42.58
-46.98
-52.46
-58.42
-63.66
-66.57
-65.54
-59.47
-48.24
-32.88
-15.37
1.94
16.99
28.51
36.12
40.20
41.51
40.83
38.90
36.33
33.69
31.53
30.27
30.11
30.98
32.51
34.20
35.50
36.03
35.58
34.18
32.03
29.40
26.54
23.56
20.39
16.90
13.02
8.84
4.67
0.94
-2.01
-4.11
-5.56
-6.83
-8.41
-10.64
-13.61
-17.11
-20.78
-24.23
-27.15
-29.46
-31.29
-32.99
-35.04
-37.93
-41.98
-47.21
-53.17
-58.90
-63.02
-64.04
-60.72
-52.56
-40.03
-24.58
-8.27
6.76
18.85
27.15
31.64
32.88
31.72
29.01
25.51
21.90
18.75
16.56
15.59
15.80
16.86
18.21
19.28
19.62
19.05
17.60
15.44
12.76
9.67
6.21
2.35
-1.93
-6.56
-11.37
-16.05
-20.15
-23.21
-24.81
-24.74
-23.13
-20.40
-17.17
-14.02
-11.29
-8.93
-6.66
-4.11
-1.07
2.38
5.89
8.93
10.91
11.28
9.67
6.02
0.82
-4.87
-9.49
-11.40
-9.41
-3.26
6.12
16.94
26.97
34.27
37.60
36.61
31.64
23.52
13.26
1.95
-9.33
-19.52
-27.71
-33.27
-35.99
-36.12
-34.32
-31.43
-28.25
-25.32
-22.80
-20.53
-18.13
-15.25
-11.70
-7.50
-2.84
2.02
6.87
11.64
16.30
20.86
25.23
29.21
32.51
34.92
36.34
36.84
36.61
35.85
34.59
32.64
29.67
25.32
19.35
11.73
2.72
-7.19
-17.25
-26.50
-33.77
-37.95
-38.19
-34.26
-26.73
-16.87
-6.29
3.43
11.21
16.54
19.43
20.23
19.35
17.27
14.43
11.37
8.64
6.76
6.10
6.83
8.86
11.96
15.68
19.49
22.82
25.17
26.23
25.91
24.35
21.83
18.62
14.88
10.68
6.07
1.17
-3.77
-8.42
-12.60
-16.34
-19.97
-23.93
-28.55
-33.92
-39.79
-45.80
-51.63
-57.21
-62.66
-68.06
-73.13
-77.15
-79.03
-77.71
-72.55
-63.61
-51.72
-38.13
-24.26
-11.32
-0.19
8.58
14.70
18.10
18.93
17.70
15.20
12.47
10.52
10.12
11.55
14.62
18.81
23.49
28.21
32.78
37.17
41.36
45.16
48.23
50.23
51.03
50.82
50.00
48.98
47.99
46.97
45.71
43.92
41.37
37.90
33.37
27.62
20.49
11.88
1.79
-9.56
-21.71
-33.92
-45.19
-54.36
-60.36
-62.48
-60.61
-55.28
-47.51
-38.50
-29.40
-21.11
-14.32
-9.52
-7.05
-7.00
-9.09
-12.64
-16.65
-20.11
-22.22
-22.64
-21.52
-19.34
-16.65
-13.95
-11.61
-9.87
-8.94
-8.98
-10.10
-12.28
-15.35
-19.04
-22.99
-26.86
-30.33
-33.21
-35.37
-36.84
-37.80
-38.52
-39.38
-40.64
-42.32
-44.04
-45.05
-44.38
-41.14
-34.83
-25.54
-13.92
-1.05
11.80
23.43
32.89
39.56
43.19
43.89
42.10
38.47
33.76
28.73
24.08
20.32
17.81
16.65
16.69
17.54
18.69
19.58
19.78
19.05
17.37
14.89
11.90
8.69
5.51
2.51
-0.34
-3.16
-6.21
-9.68
-13.59
-17.67
-21.31
-23.64
-23.74
-20.92
-14.93
-6.03
5.03
17.21
29.42
40.69
50.28
57.70
62.67
65.13
65.21
63.29
60.00
56.08
52.29
49.14
46.84
45.26
44.02
42.71
40.98
38.62
35.58
31.85
27.42
22.29
16.42
9.82
2.57
-5.20
-13.35
-21.78
-30.38
-39.02
-47.33
-54.63
-59.96
-62.29
-60.86
-55.50
-46.81
-35.95
-24.37
-13.47
-4.32
2.35
6.15
6.94
4.87
0.43
-5.51
-11.82
-17.35
-21.17
-22.80
-22.27
-20.08
-17.06
-14.11
-12.03
-11.27
-11.90
-13.60
-15.85
-18.13
-20.20
-22.15
-24.42
-27.61
-32.12
-37.90
-44.24
-49.82
-52.98
-52.25
-46.83
-36.91
-23.63
-8.76
5.82
18.55
28.39
34.78
37.46
36.48
32.16
25.27
16.97
8.69
1.77
-2.90
-5.08
-5.23
-4.23
-3.08
-2.56
-3.04
-4.43
-6.38
-8.39
-10.08
-11.29
-12.19
-13.21
-14.84
-17.54
-21.48
-26.36
-31.28
-34.85
-35.42
-31.47
-22.15
-7.53
11.36
32.78
54.77
75.55
93.83
108.81
120.05
127.32
130.49
129.70
125.47
118.91
111.64
105.45
101.91
101.80
105.00
110.54
117.12
123.63
129.68
135.55
141.96
149.56
158.46
168.15
177.70
186.15
192.79
197.26
199.41
199.22
196.98
193.74
191.54
192.92
199.57
210.87
223.36
231.73
231.07
219.13
197.23
169.28
139.41
109.79
79.83
47.26
10.03
-32.09
-77.31
-122.81
-166.41
-207.44
-246.72
-285.81
-326.04
-368.20
-412.92
-461.18
-514.46
-573.74
-637.76
-701.69
-757.18
-794.54
-806.09
-789.21
-747.39
-688.76
-622.76
-556.89
-494.93
-437.25
-382.41
-328.99
-276.29
-224.21
-172.64
-121.10
-68.99
-16.08
37.19
89.89
141.02
190.38
238.94
288.50
340.53
394.67
447.82
494.39
528.00
543.93
541.14
522.92
495.64
466.47
440.74
420.22
402.88
383.93
357.55
318.79
265.17
197.61
120.46
40.74
-33.70
-96.30
-143.46
-175.01
-193.54
-203.12
-207.89
-211.34
-215.92
-222.79
-231.58
-240.33
-245.98
-245.57
-237.39
-221.81
-200.97
-177.57
-153.40
-128.58
-102.07
-72.86
-41.20
-8.96
21.18
47.08
68.12
85.14
99.82
113.62
127.10
139.93
151.45
161.27
169.53
176.88
183.91
190.78
196.97
201.54
203.57
202.67
199.19
194.16
189.00
184.97
182.79
182.33
182.55
181.88
178.87
172.73
163.79
153.58
144.33
138.06
135.40
134.71
131.89
121.30
97.43
56.55
-2.08
-75.58
-157.68
-239.44
-310.75
-362.31
-388.00
-386.71
-362.84
-324.92
-282.79
-244.37
-213.48
-189.64
-169.57
-149.62
-127.68
-103.79
-79.59
-57.08
-37.47
-20.72
-5.79
8.74
23.84
39.40
54.39
67.42
77.36
83.80
87.04
87.55
85.57
81.07
74.15
65.69
57.47
51.94
51.26
56.39
66.56
79.42
91.77
100.65
104.23
102.17
95.54
86.18
76.01
66.50
58.33
51.45
45.31
39.23
32.63
25.18
16.85
7.84
-1.38
-10.11
-17.55
-22.99
-26.05
-26.80
-25.74
-23.50
-20.69
-17.77
-15.19
-13.62
-13.89
-16.83
-22.76
-31.14
-40.53
-48.94
-54.56
-56.33
-54.18
-48.86
-41.53
-33.27
-24.95
-17.17
-10.44
-5.18
-1.76
-0.40
-1.04
-3.32
-6.65
-10.27
-13.43
-15.54
-16.36
-16.02
-14.91
-13.42
-11.68
-9.56
-6.77
-3.29
0.49
3.79
5.75
5.92
4.47
2.13
-0.20
-1.87
-2.82
-3.47
-4.59
-6.87
-10.67
-15.86
-21.74
-27.20
-30.84
-31.30
-27.68
-19.81
-8.32
5.49
20.01
33.73
45.50
54.67
61.03
64.71
66.09
65.73
64.21
62.06
59.66
57.30
55.34
54.25
54.46
56.07
58.54
60.66
61.03
58.61
53.17
45.17
35.29
23.77
10.26
-5.80
-24.49
-44.85
-65.09
-83.30
-98.43
-110.63
-120.95
-130.35
-138.83
-145.17
-147.34
-143.43
-132.46
-114.69
-91.46
-64.72
-36.56
-9.07
15.84
36.45
51.61
61.07
65.74
67.43
68.17
69.42
71.56
73.97
75.60
75.67
74.02
71.02
67.06
62.23
56.28
49.02
40.65
31.91
23.67
16.50
10.29
4.37
-2.08
-9.60
-18.19
-27.44
-36.75
-45.62
-53.54
-59.93
-63.99
-64.85
-61.82
-54.80
-44.43
-32.04
-19.28
-7.64
1.86
8.84
13.43
15.97
16.88
16.56
15.48
14.19
13.23
13.00
13.58
14.75
16.14
17.42
18.51
19.47
20.46
21.46
22.30
22.69
22.41
21.38
19.81
18.01
16.30
14.88
13.68
12.44
10.76
8.19
4.41
-0.55
-6.27
-11.82
-15.87
-17.01
-14.17
-7.02
3.75
16.61
29.57
40.79
49.11
54.15
56.23
55.96
53.93
50.55
46.21
41.32
36.45
32.18
28.88
26.65
25.27
24.38
23.63
22.74
21.46
19.48
16.53
12.40
7.13
1.05
-5.31
-11.45
-17.02
-22.00
-26.61
-31.26
-36.39
-42.36
-49.36
-57.13
-64.88
-71.29
-74.80
-74.10
-68.65
-59.01
-46.66
-33.64
-21.87
-12.73
-6.79
-3.82
-3.01
-3.18
-3.04
-1.52
1.96
7.33
13.95
20.90
27.42
33.16
38.14
42.46
46.02
48.33
48.67
46.47
41.63
34.62
26.20
17.12
7.83
-1.60
-11.21
-20.96
-30.56
-39.65
-47.87
-55.00
-60.83
-64.95
-66.65
-65.09
-59.61
-50.12
-37.29
-22.46
-7.38
6.20
16.86
23.77
26.83
26.67
24.55
22.07
20.77
21.78
25.51
31.58
38.96
46.25
52.09
55.63
56.82
56.46
55.85
56.34
58.79
63.17
68.24
71.59
69.93
59.93
39.63
9.63
-26.57
-63.67
-96.50
-121.74
-138.68
-148.37
-151.87
-149.04
-138.48
-118.84
-90.66
-57.14
-23.33
6.01
28.28
43.48
53.14
58.32
58.31
50.95
34.53
9.81
-19.30
-46.97
-67.93
-79.97
-84.69
-86.22
-88.66
-93.99
-101.52
-108.83
-113.37
-113.72
-109.82
-102.51
-92.97
-82.33
-71.37
-60.55
-50.07
-40.05
-30.80
-22.97
-17.36
-14.20
-12.55
-10.27
-4.83
5.18
19.16
34.44
47.47
55.52
57.75
55.26
49.99
43.53
36.41
28.36
19.04
8.88
-0.76
-8.00
-11.38
-10.58
-6.62
-1.44
2.78
4.45
3.01
-0.94
-5.97
-10.36
-12.70
-12.30
-9.34
-4.69
0.57
5.54
9.81
13.32
16.10
18.01
18.73
17.99
16.03
13.77
12.55
13.52
17.06
22.59
28.83
34.48
38.80
41.78
43.91
45.65
47.09
47.95
47.83
46.56
44.40
41.98
40.07
39.22
39.62
41.04
42.93
44.55
45.19
44.38
41.96
38.18
33.54
28.52
23.49
18.55
13.62
8.68
3.81
-0.73
-4.69
-7.99
-10.83
-13.48
-16.16
-18.82
-21.13
-22.66
-23.14
-22.63
-21.52
-20.30
-19.32
-18.65
-18.10
-17.43
-16.56
-15.65
-15.03
-15.01
-15.67
-16.73
-17.68
-17.91
-17.03
-15.04
-12.25
-9.16
-6.19
-3.53
-1.17
1.03
3.12
5.06
6.68
7.81
8.30
8.07
7.07
5.20
2.35
-1.53
-6.31
-11.64
-16.85
-21.08
-23.49
-23.45
-20.79
-15.81
-9.23
-1.92
5.30
11.84
17.40
21.83
25.07
27.05
27.80
27.46
26.38
25.03
23.88
23.26
23.27
23.70
24.22
24.44
24.09
22.97
21.04
18.26
14.66
10.30
5.44
0.40
-4.43
-8.74
-12.46
-15.70
-18.79
-22.06
-25.77
-29.91
-34.12
-37.68
-39.64
-39.07
-35.41
-28.69
-19.60
-9.31
0.90
9.92
17.03
21.87
24.40
24.78
23.42
20.90
17.94
15.24
13.23
11.98
11.25
10.66
9.95
9.02
7.96
6.85
5.69
4.40
2.87
1.09
-0.85
-2.80
-4.73
-6.77
-9.14
-12.07
-15.64
-19.76
-24.28
-28.99
-33.68
-38.01
-41.36
-42.93
-41.83
-37.50
-29.88
-19.61
-7.79
4.27
15.36
24.65
31.61
36.10
38.22
38.35
37.04
34.96
32.71
30.73
29.22
28.24
27.77
27.81
28.31
29.14
29.95
30.23
29.47
27.31
23.79
19.32
14.57
10.22
6.73
4.15
2.21
0.37
-1.95
-5.16
-9.38
-14.36
-19.46
-23.69
-25.94
-25.23
-21.02
-13.44
-3.32
8.00
19.16
29.12
37.38
43.85
48.54
51.28
51.54
48.65
42.12
32.04
19.14
4.81
-9.22
-21.25
-30.03
-35.04
-36.74
-36.38
-35.64
-35.97
-38.06
-41.63
-45.66
-49.06
-51.26
-52.46
-53.37
-54.64
-56.32
-57.73
-57.81
-55.77
-51.63
-46.31
-41.20
-37.42
-35.22
-33.79
-31.62
-27.30
-20.24
-11.04
-1.28
7.09
12.50
14.33
12.91
9.21
4.40
-0.52
-4.83
-7.99
-9.65
-9.51
-7.49
-3.73
1.35
7.08
12.83
18.10
22.61
26.30
29.19
31.27
32.57
33.17
33.37
33.58
34.30
35.86
38.32
41.40
44.59
47.37
49.39
50.64
51.48
52.53
54.57
58.36
64.43
72.90
83.36
94.79
105.67
114.16
118.40
116.97
109.24
95.62
77.55
57.13
36.53
17.53
1.09
-12.89
-25.57
-38.92
-55.03
-75.22
-99.17
-124.42
-146.86
-161.91
-166.23
-159.08
-142.67
-121.30
-99.72
-81.43
-67.74
-57.98
-50.59
-44.23
-38.58
-34.11
-31.51
-30.90
-31.60
-32.38
-32.21
-30.82
-28.80
-27.08
-26.28
-26.16
-25.67
-23.50
-18.81
-11.77
-3.47
4.50
10.86
15.12
17.66
19.42
21.28
23.59
25.94
27.45
27.28
25.16
21.52
17.34
13.65
11.10
9.74
9.22
9.10
9.14
9.32
9.66
9.88
9.35
7.30
3.31
-2.21
-7.90
-11.90
-12.45
-8.66
-0.78
9.93
21.73
32.93
42.27
49.08
53.11
54.45
53.46
50.76
47.23
43.86
41.50
40.60
41.10
42.56
44.41
46.21
47.78
49.15
50.37
51.30
51.64
50.95
48.97
45.77
41.87
38.05
35.11
33.47
33.01
33.04
32.53
30.52
26.49
20.72
14.35
9.24
7.45
10.64
19.60
33.88
51.96
71.68
90.74
107.22
119.87
128.13
132.15
132.63
130.76
127.96
125.45
123.93
123.27
122.71
121.22
118.14
113.43
107.64
101.27
94.15
85.13
72.55
55.18
33.19
8.33
-16.80
-40.02
-60.51
-78.89
-96.59
-114.83
-133.97
-153.52
-172.61
-190.26
-205.60
-217.53
-224.51
-224.82
-217.34
-202.26
-181.46
-158.03
-135.37
-116.17
-101.88
-92.57
-87.45
-85.31
-84.92
-85.19
-85.19
-83.95
-80.63
-74.68
-66.33
-56.84
-48.25
-42.72
-41.63
-44.84
-50.85
-57.43
-62.62
-65.44
-66.23
-66.10
-66.32
-67.77
-70.62
-74.43
-78.40
-81.59
-83.08
-82.03
-77.76
-69.96
-58.77
-44.75
-28.81
-12.18
3.57
16.77
25.78
29.56
28.03
22.37
14.77
7.81
3.80
3.97
8.29
15.63
24.32
32.81
39.97
45.25
48.50
49.77
49.23
47.18
44.04
40.42
36.89
33.86
31.54
29.95
29.21
29.58
31.44
34.83
39.29
43.73
46.95
48.36
48.39
48.44
50.27
55.20
63.46
74.10
85.45
95.77
103.90
109.34
112.10
112.23
109.46
103.10
92.48
77.62
59.65
40.79
23.60
9.96
0.22
-6.85
-13.28
-20.62
-29.16
-37.90
-45.32
-50.42
-53.18
-54.45
-55.41
-56.89
-59.27
-62.56
-66.66
-71.25
-75.69
-78.93
-79.66
-76.73
-69.57
-58.40
-44.15
-28.15
-11.75
3.93
18.01
29.93
39.34
46.10
50.34
52.41
52.79
52.00
50.36
48.01
44.91
41.10
36.89
32.85
29.59
27.33
25.64
23.56
20.09
14.80
8.08
0.91
-5.75
-11.54
-16.96
-22.96
-30.35
-39.30
-49.19
-58.84
-66.89
-72.16
-73.75
-71.32
-65.10
-56.03
-45.54
-35.22
-26.40
-19.71
-15.20
-12.46
-11.02
-10.50
-10.66
-11.33
-12.33
-13.57
-15.22
-17.60
-21.16
-26.21
-32.82
-40.75
-49.41
-57.80
-64.54
-68.10
-67.22
-61.51
-51.72
-39.55
-27.07
-15.87
-6.46
1.82
10.26
20.13
32.29
47.02
64.05
82.65
101.68
119.79
135.65
148.04
156.17
159.95
160.00
157.31
152.76
146.84
139.87
132.07
123.39
113.67
102.93
91.70
80.75
70.83
62.20
54.74
47.97
40.72
31.60
19.71
5.28
-10.49
-25.77
-38.68
-47.45
-51.02
-49.07
-43.92
-41.07
-45.80
-60.67
-83.21
-109.44
-135.97
-157.52
-171.56
-177.99
-177.85
-171.91
-160.40
-143.61
-122.94
-100.90
-80.34
-63.73
-51.78
-43.06
-34.96
-25.46
-14.24
-2.75
7.15
14.50
19.27
22.13
23.90
24.91
24.95
23.76
21.47
18.96
17.45
17.45
18.42
19.02
17.85
14.10
7.95
0.44
-6.75
-11.69
-12.79
-9.05
-0.41
12.28
27.41
43.25
58.57
72.95
86.61
99.67
111.54
120.87
125.97
125.75
120.35
111.12
100.00
88.67
78.07
68.35
59.39
51.09
43.49
36.42
29.31
21.25
11.41
-0.48
-14.00
-28.14
-41.77
-53.92
-63.93
-71.42
-76.25
-78.52
-78.78
-77.87
-76.71
-75.81
-75.01
-73.42
-69.85
-63.38
-53.76
-41.53
-27.76
-13.82
-1.09
9.10
15.61
17.72
15.33
9.25
0.98
-7.63
-15.01
-20.34
-23.62
-25.48
-26.66
-27.70
-28.71
-29.50
-29.75
-29.24
-27.79
-25.31
-21.68
-16.80
-10.64
-3.32
4.80
13.10
20.89
27.61
33.16
37.83
42.20
46.82
51.94
57.48
63.20
68.93
74.55
79.88
84.23
86.27
84.24
76.62
62.90
44.01
22.10
-0.12
-20.20
-36.49
-48.24
-55.42
-58.44
-58.01
-55.14
-51.13
-47.48
-45.44
-45.55
-47.41
-49.79
-51.25
-50.72
-48.02
-43.78
-39.12
-35.09
-32.31
-30.80
-30.25
-30.31
-30.96
-32.45
-35.10
-38.88
-43.13
-46.58
-47.82
-45.84
-40.47
-32.44
-23.10
-13.92
-6.08
-0.22
3.53
5.40
5.95
5.93
6.27
7.82
11.14
16.30
22.93
30.36
37.79
44.40
49.51
52.58
53.39
52.14
49.43
46.09
42.87
40.18
37.97
35.84
33.33
30.13
26.22
21.73
16.78
11.42
5.76
0.05
-5.17
-9.12
-11.06
-10.52
-7.57
-2.84
2.73
8.16
12.74
16.15
18.40
19.64
20.03
19.65
18.57
16.96
15.16
13.65
12.87
13.07
14.12
15.55
16.64
16.73
15.49
13.05
9.93
6.77
4.04
1.81
-0.17
-2.26
-4.71
-7.49
-10.45
-13.58
-17.13
-21.54
-26.99
-33.09
-38.73
-42.44
-43.01
-40.03
-34.11
-26.51
-18.59
-11.33
-5.17
-0.20
3.49
5.74
6.35
5.33
3.12
0.60
-1.17
-1.32
0.46
3.86
8.02
11.90
14.58
15.56
14.78
12.55
9.30
5.50
1.53
-2.32
-5.78
-8.67
-10.95
-12.80
-14.61
-16.81
-19.67
-23.10
-26.55
-29.09
-29.59
-27.15
-21.34
-12.46
-1.47
10.20
21.05
29.85
35.93
39.21
40.03
38.98
36.65
33.56
30.18
27.00
24.52
23.18
23.13
24.14
25.54
26.48
26.15
24.14
20.49
15.64
10.21
4.79
-0.30
-5.02
-9.72
-15.07
-21.96
-31.21
-43.22
-57.72
-73.68
-89.48
-103.29
-113.57
-119.28
-120.02
-115.93
-107.50
-95.47
-80.77
-64.34
-47.07
-29.83
-13.62
0.26
10.26
15.03
14.16
8.70
1.02
-5.96
-10.05
-10.57
-8.21
-4.31
0.31
5.66
12.09
19.42
26.46
31.47
33.29
32.32
30.45
30.03
32.42
37.33
43.32
48.94
53.90
59.12
65.91
74.81
85.08
94.97
102.70
107.33
109.09
108.87
107.46
104.96
100.76
93.93
83.69
69.90
53.19
34.57
15.23
-3.64
-20.82
-35.01
-45.10
-50.60
-52.06
-50.89
-48.75
-46.61
-44.18
-40.12
-32.98
-22.49
-10.14
1.14
8.16
8.78
2.70
-8.57
-22.39
-35.94
-46.91
-53.76
-55.95
-53.78
-48.12
-40.04
-30.65
-20.99
-12.06
-4.83
-0.05
2.03
1.77
-0.00
-2.38
-4.91
-7.74
-11.44
-16.39
-22.36
-28.52
-33.79
-37.48
-39.78
-41.85
-45.22
-50.86
-58.28
-65.29
-68.87
-66.51
-57.56
-43.74
-28.27
-14.25
-3.14
5.68
14.02
23.36
33.69
43.46
50.56
53.66
52.94
49.87
46.21
43.06
40.47
37.85
34.60
30.78
27.22
25.13
25.34
27.82
31.49
34.70
35.81
33.91
29.07
22.23
14.77
7.87
2.17
-2.36
-6.25
-10.27
-14.99
-20.61
-26.79
-32.68
-37.24
-39.60
-39.27
-36.29
-31.14
-24.60
-17.49
-10.52
-4.13
1.41
6.02
9.92
13.74
18.53
25.20
34.17
45.02
56.53
67.02
75.03
80.20
83.66
87.53
93.42
101.49
110.22
117.06
119.55
116.39
108.06
96.72
85.34
75.87
68.57
62.23
55.09
45.79
33.79
19.25
2.97
-13.79
-30.06
-44.25
-53.42
-53.81
-41.92
-17.67
11.36
33.48
41.30
34.64
19.17
2.58
-9.39
-14.99
-15.85
-14.61
-14.27
-12.67
-5.82
9.69
34.54
65.81
98.09
126.19
146.19
154.88
152.63
141.74
124.18
101.02
72.00
37.03
-1.49
-40.03
-77.67
-112.85
-144.12
-171.00
-195.09
-219.28
-245.80
-273.55
-301.46
-333.06
-370.89
-414.97
-463.09
-513.12
-563.90
-615.19
-665.63
-683.51
-653.38
-582.95
-495.86
-410.70
-331.96
-255.42
-186.53
-117.98
-49.98
8.26
49.59
73.85
87.95
97.57
107.28
119.48
136.58
157.84
178.46
195.24
208.07
219.10
230.09
241.90
254.41
268.82
285.18
301.76
318.12
335.32
354.48
374.37
391.20
399.63
396.04
378.62
347.95
307.73
263.30
219.56
179.32
143.56
112.40
86.71
67.49
55.32
50.05
50.22
53.15
55.51
54.43
48.34
37.52
23.59
8.86
-4.60
-15.81
-24.95
-32.99
-40.89
-48.82
-55.88
-60.34
-60.48
-55.45
-45.94
-34.02
-22.35
-13.06
-6.95
-3.40
-1.10
1.02
3.18
4.78
4.98
3.39
0.28
-3.57
-7.56
-11.52
-15.75
-20.63
-26.13
-31.72
-36.55
-39.92
-41.59
-41.90
-41.56
-41.33
-41.76
-43.02
-44.87
-46.80
-48.16
-48.32
-46.90
-43.76
-39.16
-33.59
-27.65
-21.97
-17.02
-13.13
-10.43
-8.88
-8.30
-8.38
-8.84
-9.47
-10.31
-11.57
-13.51
-16.27
-19.70
-23.37
-26.70
-29.27
-31.03
-32.38
-33.98
-36.45
-40.15
-44.95
-50.29
-55.41
-59.57
-62.15
-62.74
-61.10
-57.19
-51.15
-43.23
-33.60
-22.28
-9.14
5.81
22.07
38.40
53.07
64.40
71.51
74.66
75.10
74.37
73.55
72.80
71.61
69.29
65.69
61.39
57.36
54.30
52.18
50.26
47.61
43.81
39.25
34.82
31.32
28.88
26.90
24.52
21.20
17.02
12.44
7.93
3.71
-0.12
-3.08
-4.07
-1.61
5.24
16.06
28.73
40.23
48.02
51.29
51.34
50.77
51.96
55.75
61.06
65.65
67.40
65.63
61.42
56.96
54.17
53.49
53.75
53.00
49.77
43.78
35.57
25.45
12.51
-5.29
-29.81
-60.93
-95.69
-128.72
-154.47
-169.52
-173.54
-168.34
-155.57
-135.04
-104.91
-63.89
-13.80
39.45
87.44
122.63
141.61
146.34
142.76
137.64
135.53
137.55
142.27
147.62
152.65
157.94
164.88
174.49
186.71
200.36
213.27
223.10
227.33
223.72
210.52
186.78
152.56
109.04
58.79
5.77
-45.01
-88.47
-120.74
-140.30
-148.49
-148.73
-145.12
-140.68
-136.52
-131.97
-125.81
-117.51
-107.97
-99.29
-93.84
-93.20
-97.51
-105.52
-114.92
-123.22
-128.47
-130.11
-129.42
-129.06
-132.24
-141.02
-155.18
-172.04
-187.52
-198.29
-203.72
-206.43
-211.08
-221.93
-240.40
-264.37
-289.18
-309.73
-322.43
-326.01
-320.78
-307.65
-287.69
-262.14
-232.57
-200.76
-168.09
-134.79
-100.22
-63.99
-27.32
6.41
32.91
49.42
57.21
61.74
70.39
88.63
117.24
151.57
183.69
206.13
215.40
213.58
206.61
200.91
199.40
200.70
200.77
195.92
185.54
172.73
162.83
160.25
165.48
173.49
177.19
171.25
154.70
130.75
104.72
81.27
62.48
47.69
33.34
17.08
-0.51
-16.73
-29.35
-38.13
-44.87
-52.22
-62.21
-77.21
-96.74
-117.33
-134.25
-144.23
-146.17
-140.42
-127.96
-98.28
-49.56
9.31
64.48
107.26
136.15
153.51
162.07
163.63
159.49
149.51
135.50
121.78
113.44
112.44
117.03
122.94
125.73
122.68
111.71
94.13
73.95
59.14
54.27
59.70
71.80
84.15
89.59
80.44
53.06
9.25
-44.90
-101.70
-153.11
-192.61
-216.78
-226.90
-231.38
-240.55
-262.16
-298.44
-345.20
-393.10
-431.16
-451.41
-451.78
-437.75
-415.47
-387.39
-353.04
-312.10
-266.95
-223.32
-188.09
-152.46
-114.86
-77.21
-40.78
-6.27
24.56
48.33
61.88
64.92
60.20
51.89
42.34
34.34
29.23
27.07
27.68
31.57
40.68
57.18
81.81
108.82
135.94
161.78
185.61
207.69
229.22
252.91
280.61
311.51
344.07
378.33
413.87
448.92
480.15
502.71
513.37
509.64
490.22
456.76
414.99
371.11
329.49
291.81
257.20
226.13
198.65
174.03
151.07
128.72
104.31
74.19
35.91
-22.22
-95.56
-166.35
-216.11
-237.78
-236.10
-222.23
-209.68
-203.42
-203.34
-204.17
-201.41
-194.10
-185.44
-177.94
-176.40
-185.51
-207.66
-242.45
-284.41
-326.15
-360.50
-381.51
-384.65
-368.34
-334.17
-286.54
-232.08
-176.36
-123.85
-77.30
-37.49
-3.66
25.12
49.64
70.58
88.35
103.96
118.02
130.47
140.91
149.11
155.07
159.16
161.95
163.67
164.36
163.70
161.08
155.96
148.26
138.16
126.32
113.64
100.87
88.54
77.00
66.60
57.79
51.00
46.19
42.65
39.11
34.17
27.16
18.76
10.95
6.45
7.59
15.31
28.66
44.94
60.48
71.66
76.13
73.55
65.77
56.16
48.24
44.14
43.62
44.16
41.84
32.98
15.30
-11.33
-44.68
-81.14
-116.45
-146.75
-169.28
-182.93
-188.60
-189.21
-188.84
-191.36
-198.45
-208.34
-215.82
-214.01
-197.50
-165.18
-121.29
-73.96
-31.70
0.11
20.95
34.08
43.52
51.10
55.78
55.11
47.84
35.77
23.16
14.68
12.77
16.13
21.01
23.24
20.61
13.72
5.19
-2.14
-6.88
-9.71
-12.79
-18.36
-27.45
-39.34
-52.09
-63.61
-72.81
-80.05
-86.75
-94.43
-103.57
-113.24
-121.50
-126.37
-126.86
-123.37
-117.10
-109.06
-99.38
-87.27
-71.96
-53.60
-33.63
-14.15
3.16
17.93
31.06
43.85
57.02
70.20
82.31
92.43
100.35
106.66
112.10
116.96
120.85
123.05
123.02
120.75
116.78
111.81
106.51
101.22
95.88
90.11
83.26
74.69
64.18
52.18
39.90
28.88
20.35
14.68
11.25
8.86
6.36
3.14
-0.82
-5.25
-10.11
-15.81
-23.00
-32.16
-43.17
-55.22
-67.01
-77.14
-84.55
-88.69
-89.59
-87.75
-84.08
-79.81
-76.07
-73.55
-72.15
-71.03
-69.00
-65.08
-58.98
-51.09
-42.06
-32.45
-22.58
-12.56
-2.39
8.00
18.78
30.30
42.96
56.71
70.76
83.56
93.41
99.22
100.92
99.33
95.65
90.98
85.99
81.12
76.67
72.78
69.17
64.83
58.34
48.61
35.78
21.25
7.17
-4.50
-12.78
-17.96
-21.27
-24.16
-27.66
-31.62
-35.47
-38.58
-40.37
-40.18
-37.39
-31.81
-23.96
-14.98
-5.11
5.43
16.38
27.71
39.88
53.56
69.01
85.44
100.96
114.63
124.83
129.48
127.21
118.48
105.68
92.07
80.71
73.72
74.20
83.15
98.54
116.18
131.56
141.46
144.93
143.53
126.92
93.27
49.34
5.51
-31.78
-61.46
-84.40
-100.70
-109.83
-112.11
-107.43
-97.06
-84.66
-73.64
-65.51
-60.14
-56.74
-54.88
-54.76
-55.13
-55.13
-54.66
-54.44
-53.97
-52.15
-48.05
-41.69
-34.18
-26.28
-19.18
-14.30
-12.61
-14.07
-18.01
-23.66
-30.39
-37.63
-44.11
-48.58
-50.49
-50.24
-48.90
-47.81
-47.86
-49.06
-50.68
-51.53
-50.85
-48.69
-45.62
-42.09
-38.16
-33.48
-27.61
-20.47
-12.42
-4.23
3.21
9.12
13.14
15.36
16.32
16.77
17.40
18.60
20.35
22.13
23.37
23.87
23.98
24.49
26.06
29.03
33.24
38.24
42.99
46.53
48.38
48.79
48.59
48.40
48.60
49.33
50.80
52.63
54.48
56.28
58.41
61.40
65.08
69.10
73.30
78.27
83.91
89.85
95.51
100.26
103.33
103.20
98.98
91.13
82.19
74.27
69.11
67.58
69.91
80.30
100.07
126.13
147.95
161.56
164.37
156.29
137.42
109.69
76.55
41.43
7.16
-24.51
-52.49
-77.83
-102.42
-128.05
-155.42
-184.18
-213.69
-242.68
-269.00
-289.58
-302.79
-308.70
-309.45
-308.51
-309.50
-314.95
-325.12
-338.09
-350.35
-358.84
-361.40
-357.03
-346.16
-330.81
-313.94
-298.04
-283.94
-270.39
-256.03
-240.55
-225.11
-211.50
-200.40
-190.79
-181.01
-170.83
-162.73
-161.16
-169.11
-184.89
-201.25
-208.30
-198.63
-171.09
-130.86
-85.96
-43.08
-4.75
30.24
64.45
99.75
136.58
174.50
213.28
252.96
293.08
332.08
366.91
393.47
408.14
409.22
397.90
378.22
355.70
335.43
320.43
310.82
304.34
297.90
289.10
277.23
263.25
248.93
235.85
224.76
215.46
207.25
199.59
192.42
186.23
181.83
180.10
181.70
186.85
195.21
205.86
217.65
229.44
240.10
248.43
252.98
252.19
245.01
231.63
213.83
194.42
175.96
159.62
144.89
130.43
115.44
100.57
87.67
78.55
73.54
71.06
68.46
63.47
55.50
45.63
35.76
27.44
21.28
17.14
14.73
13.92
14.47
15.33
14.25
8.31
-5.09
-27.26
-57.76
-94.54
-135.00
-176.58
-217.01
-254.14
-285.80
-310.11
-326.21
-334.99
-338.95
-341.08
-343.28
-345.26
-344.70
-338.56
-324.99
-304.54
-280.14
-255.85
-235.09
-219.37
-208.05
-199.20
-190.85
-182.08
-173.28
-165.51
-159.69
-155.66
-152.04
-146.92
-139.03
-128.55
-117.20
-107.22
-99.78
-94.13
-88.00
-79.17
-67.03
-52.96
-39.41
-27.97
-18.15
-7.65
5.89
23.09
42.07
59.32
71.93
79.40
83.82
88.41
95.27
103.85
111.18
113.39
107.81
94.46
76.17
57.55
43.32
36.56
37.66
43.88
49.87
49.25
36.90
11.27
-24.35
-62.59
-94.86
-114.84
-121.14
-117.55
-110.75
-106.94
-109.40
-117.76
-129.21
-140.57
-149.60
-155.27
-157.07
-154.59
-147.62
-136.49
-122.21
-105.83
-87.73
-67.22
-42.93
-13.58
21.36
61.14
103.69
145.71
183.06
211.48
227.90
231.80
225.72
214.55
203.51
196.08
192.83
191.86
190.48
186.95
181.13
173.92
166.10
157.49
147.36
135.16
121.48
108.01
96.84
89.40
85.72
84.41
83.37
80.76
75.63
68.10
59.03
49.37
39.69
30.12
20.58
11.15
2.23
-5.55
-11.58
-15.60
-17.79
-18.77
-19.28
-19.95
-21.09
-22.65
-24.41
-26.08
-27.53
-28.76
-29.88
-31.03
-32.26
-33.54
-34.78
-35.86
-36.68
-37.09
-36.82
-35.46
-32.55
-27.67
-20.75
-12.15
-2.74
6.33
13.93
19.42
22.76
24.52
25.62
26.91
28.85
31.39
33.96
35.67
35.67
33.27
28.12
20.30
10.27
-1.09
-12.53
-22.53
-29.66
-33.04
-32.81
-30.36
-27.91
-27.73
-30.97
-37.10
-44.02
-49.08
-50.27
-47.02
-40.17
-31.16
-21.29
-11.19
-1.04
8.99
18.40
26.38
32.17
35.36
36.00
34.49
31.55
28.03
24.75
22.29
20.70
19.46
17.76
15.10
11.70
8.52
6.59
6.18
6.63
6.80
6.03
4.91
5.09
8.15
14.51
22.92
31.14
37.22
40.49
41.67
42.09
42.65
43.25
43.07
41.53
38.86
36.15
34.60
34.70
35.86
36.75
36.01
33.02
28.03
21.97
15.88
10.46
5.87
1.91
-1.86
-5.79
-10.09
-14.86
-20.13
-25.89
-32.08
-38.55
-45.04
-51.21
-56.81
-61.78
-66.44
-71.29
-76.91
-83.71
-91.72
-100.51
-109.26
-116.99
-122.77
-125.96
-126.35
-124.14
-119.81
-113.94
-107.07
-99.69
-92.26
-85.22
-78.96
-73.64
-69.10
-64.85
-60.41
-55.64
-50.98
-47.24
-45.18
-45.16
-46.89
-49.52
-52.02
-53.48
-53.35
-51.20
-46.63
-39.20
-28.63
-15.14
0.23
15.63
28.84
37.96
42.08
41.39
36.98
30.21
22.30
14.20
6.92
1.73
0.09
3.15
10.99
22.28
34.60
45.25
52.25
54.86
53.51
49.27
43.41
37.13
31.57
27.69
25.98
26.15
27.10
27.33
25.67
21.99
17.21
12.86
10.10
8.99
8.57
7.44
4.70
0.34
-4.86
-9.99
-14.54
-18.66
-22.96
-27.95
-33.62
-39.27
-43.66
-45.42
-43.74
-38.72
-31.38
-23.05
-14.64
-6.12
3.27
14.24
26.56
38.68
48.28
53.44
53.75
50.61
46.49
43.65
43.13
44.40
46.03
46.59
45.43
42.83
39.67
36.87
34.92
33.60
32.12
29.61
25.71
20.92
16.37
13.29
12.29
13.06
14.66
16.10
16.97
17.71
19.27
22.63
28.30
36.07
45.12
54.26
62.15
67.56
69.69
68.28
63.82
57.39
50.28
43.59
37.91
33.25
29.18
25.03
20.11
14.01
6.62
-1.70
-10.15
-17.65
-23.06
-25.50
-24.65
-20.88
-15.15
-8.72
-2.74
2.02
5.33
7.49
9.24
11.68
16.03
23.35
34.14
47.97
63.36
77.98
89.37
95.67
96.45
92.75
86.84
81.38
78.51
79.16
82.87
87.72
90.79
89.03
80.01
62.94
39.21
12.41
-12.75
-32.26
-44.78
-52.50
-60.22
-73.04
-93.72
-121.36
-152.01
-180.87
-204.72
-223.12
-237.82
-250.75
-262.08
-269.28
-268.35
-255.89
-230.84
-195.29
-153.86
-112.29
-75.71
-47.21
-26.43
-10.88
2.59
16.35
31.14
45.99
58.91
68.04
72.76
75.16
77.67
81.66
86.86
91.91
95.37
96.64
96.46
96.81
101.91
114.32
133.72
157.06
180.17
199.27
211.85
217.20
216.40
213.85
212.69
213.31
213.54
210.74
203.82
193.54
181.78
152.87
98.80
21.93
-65.43
-148.04
-212.66
-249.90
-256.54
-239.03
-207.39
-169.97
-134.23
-105.12
-84.72
-72.69
-67.60
-70.43
-80.57
-95.54
-109.50
-117.02
-115.40
-105.78
-92.12
-79.16
-70.52
-67.02
-66.80
-65.56
-59.66
-47.68
-30.92
-12.26
4.98
18.06
25.62
27.73
25.91
21.80
16.62
11.02
5.42
0.29
-3.84
-6.38
-7.12
-6.23
-4.43
-2.70
-1.89
-2.47
-4.47
-7.65
-11.44
-15.10
-17.78
-18.70
-17.45
-14.35
-10.48
-7.34
-6.11
-7.05
-9.29
-11.22
-11.30
-8.79
-4.12
1.54
6.97
11.53
15.34
18.89
22.46
25.72
27.88
28.26
26.88
24.59
22.75
22.47
24.12
27.20
30.77
33.98
36.49
38.44
40.13
41.73
43.11
43.99
44.12
43.48
42.22
40.52
38.48
36.04
33.14
29.94
26.86
24.51
23.47
23.88
25.39
27.18
28.34
28.24
26.78
24.36
21.54
18.82
16.39
14.23
12.23
10.39
8.85
7.82
7.39
7.48
7.85
8.18
8.24
7.99
7.58
7.25
7.17
7.30
7.28
6.53
4.36
0.18
-6.33
-15.09
-25.57
-36.89
-47.89
-57.38
-64.35
-68.19
-68.83
-66.84
-63.26
-59.35
-56.20
-54.43
-53.97
-54.21
-54.15
-52.82
-49.48
-43.70
-35.41
-24.87
-12.69
0.08
12.05
21.76
28.08
30.68
30.08
27.44
24.03
20.73
17.80
14.93
11.66
7.63
2.75
-2.81
-8.74
-14.65
-19.98
-24.03
-26.13
-25.83
-23.15
-18.66
-13.23
-7.72
-2.66
1.89
6.16
10.45
14.87
19.30
23.53
27.36
30.74
33.71
36.28
38.36
39.76
40.26
39.68
38.02
35.45
32.23
28.61
24.77
20.71
16.35
11.60
6.44
0.96
-4.63
-10.05
-14.99
-19.12
-22.14
-23.81
-24.00
-22.69
-20.05
-16.38
-12.09
-7.68
-3.67
-0.55
1.29
1.67
0.64
-1.41
-3.89
-6.16
-7.76
-8.53
-8.63
-8.43
-8.29
-8.49
-9.12
-10.13
-11.41
-12.82
-14.21
-15.48
-16.62
-17.72
-18.99
-20.76
-23.20
-26.33
-29.78
-32.91
-34.94
-35.21
-33.43
-29.83
-25.14
-20.38
-16.48
-14.00
-12.94
-12.80
-12.87
-12.52
-11.41
-9.45
-6.67
-3.18
0.96
5.55
10.19
14.29
17.15
18.27
17.46
15.01
11.56
8.00
5.19
3.63
3.24
3.30
2.58
-0.17
-5.63
-13.49
-22.36
-30.20
-35.01
-35.61
-32.03
-25.39
-17.41
-9.73
-3.44
1.08
3.90
5.26
5.33
4.28
2.42
0.38
-1.00
-0.97
0.75
3.80
7.29
10.28
12.30
13.59
15.07
17.76
22.28
28.40
35.09
40.86
44.33
44.62
41.58
35.67
27.76
18.93
10.38
3.27
-1.37
-2.87
-1.13
3.32
9.47
16.10
22.06
26.46
28.69
28.31
25.11
19.07
10.56
0.29
-10.76
-21.68
-31.90
-41.41
-50.69
-60.39
-70.90
-82.13
-93.41
-103.71
-111.91
-117.10
-118.73
-116.76
-111.64
-104.31
-96.03
-88.15
-81.71
-77.17
-74.23
-71.95
-69.02
-64.18
-56.64
-46.20
-33.28
-18.71
-3.44
11.61
25.68
38.18
48.67
56.85
62.64
66.26
68.23
69.26
70.06
71.08
72.35
73.48
73.84
72.85
70.23
66.11
60.97
55.43
50.09
45.26
40.93
36.86
32.70
28.11
22.93
17.14
11.01
5.07
0.13
-2.83
-2.94
0.22
6.44
14.82
24.06
32.83
40.12
45.37
48.40
49.24
48.04
45.08
40.84
36.07
31.61
28.23
26.28
25.63
25.70
25.75
25.11
23.39
20.61
17.04
13.10
9.20
5.54
2.15
-1.18
-4.77
-8.95
-13.95
-19.75
-25.99
-31.95
-36.61
-38.91
-38.00
-33.61
-26.17
-16.72
-6.64
2.73
10.39
15.77
18.69
19.17
17.41
13.82
9.04
3.95
-0.49
-3.55
-4.90
-4.79
-3.91
-3.15
-3.19
-4.33
-6.32
-8.52
-10.17
-10.66
-9.77
-7.64
-4.70
-1.44
1.73
4.62
7.25
9.93
13.18
17.68
24.12
32.90
43.84
56.00
67.91
77.89
84.63
87.49
86.64
82.70
76.44
68.48
59.32
49.46
39.58
30.47
22.85
17.02
12.77
9.43
6.26
2.76
-1.19
-5.39
-9.57
-13.56
-17.43
-21.46
-25.94
-31.10
-37.05
-43.69
-50.72
-57.53
-63.28
-67.03
-67.95
-65.61
-60.16
-52.36
-43.26
-34.04
-25.64
-18.71
-13.58
-10.34
-8.93
-9.04
-10.20
-11.65
-12.55
-12.12
-9.91
-5.94
-0.68
5.09
10.58
15.24
18.80
21.27
22.78
23.40
23.11
21.67
18.77
14.03
7.14
-2.01
-13.12
-25.37
-37.41
-47.62
-54.46
-57.00
-55.23
-49.97
-42.67
-34.86
-27.79
-22.24
-18.51
-16.63
-16.43
-17.63
-19.71
-21.94
-23.49
-23.63
-21.99
-18.70
-14.35
-9.77
-5.73
-2.72
-0.83
0.18
0.68
1.00
1.22
1.18
0.53
-1.13
-4.07
-8.17
-12.84
-17.04
-19.47
-18.94
-14.76
-6.99
3.56
15.58
27.67
38.74
48.11
55.43
60.49
63.10
63.16
60.76
56.42
51.03
45.67
41.21
38.05
35.97
34.31
32.22
29.05
24.51
18.74
12.19
5.39
-1.22
-7.42
-13.21
-18.74
-24.23
-29.87
-35.80
-41.97
-47.95
-52.90
-55.56
-54.67
-49.47
-40.11
-27.73
-14.10
-1.01
10.29
19.30
26.05
30.80
33.76
35.08
35.00
33.98
32.68
31.67
31.24
31.29
31.37
30.94
29.53
26.92
23.13
18.38
13.05
7.57
2.27
-2.74
-7.57
-12.47
-17.69
-23.34
-29.33
-35.40
-41.15
-45.99
-49.16
-49.80
-47.18
-41.04
-31.81
-20.65
-9.10
1.38
9.77
15.69
19.24
20.74
20.57
19.12
16.88
14.43
12.29
10.77
9.86
9.30
8.83
8.35
7.89
7.49
6.91
5.72
3.53
0.30
-3.51
-7.11
-9.86
-11.61
-12.80
-14.21
-16.57
-20.11
-24.47
-28.78
-31.83
-32.38
-29.53
-22.92
-13.02
-0.98
11.65
23.40
33.20
40.53
45.20
47.21
46.66
43.88
39.53
34.60
30.09
26.69
24.46
22.97
21.63
20.00
18.02
15.87
13.77
11.73
9.50
6.67
2.90
-1.93
-7.62
-13.67
-19.44
-24.45
-28.52
-31.83
-34.74
-37.47
-39.85
-41.26
-40.86
-37.99
-32.47
-24.64
-15.18
-4.91
5.40
14.99
23.10
29.01
32.20
32.63
30.78
27.56
23.97
20.86
18.72
17.73
17.80
18.63
19.73
20.51
20.51
19.61
18.12
16.63
15.67
15.38
15.39
15.03
13.58
10.63
6.14
0.46
-5.76
-11.59
-15.97
-17.83
-16.60
-12.43
-6.30
0.31
5.95
9.74
11.50
11.59
10.49
8.46
5.47
1.31
-4.06
-10.42
-17.21
-23.71
-29.18
-33.04
-35.01
-35.18
-34.04
-32.37
-31.11
-31.04
-32.58
-35.65
-39.79
-44.33
-48.71
-52.63
-56.17
-59.65
-63.38
-67.34
-70.98
-73.23
-72.77
-68.50
-59.93
-47.52
-32.59
-17.07
-3.19
7.01
12.14
11.84
6.84
-1.20
-10.20
-18.19
-23.82
-26.48
-26.10
-22.90
-17.11
-9.12
0.34
10.12
18.73
24.84
27.62
27.17
24.52
21.05
17.82
15.12
12.51
9.29
4.93
-0.67
-6.94
-12.82
-17.06
-18.63
-17.00
-12.17
-4.41
5.80
17.65
30.49
44.09
58.57
73.93
89.78
105.30
119.67
132.05
140.80
144.70
143.54
138.13
129.71
119.45
108.47
98.32
90.21
82.73
74.29
64.32
53.86
44.52
37.37
32.77
31.35
32.82
33.20
29.45
21.52
12.52
5.78
1.55
-3.65
-14.09
-34.56
-71.78
-127.86
-198.45
-274.14
-345.25
-406.56
-457.87
-500.16
-505.20
-454.67
-352.11
-223.81
-99.32
4.53
83.32
132.11
160.51
174.98
174.93
159.09
128.19
85.17
38.28
-0.69
-24.70
-30.39
-21.01
-5.79
7.50
15.49
19.69
23.61
29.15
35.82
43.29
50.28
54.14
53.63
49.20
43.23
38.54
36.32
35.93
36.76
37.65
37.11
34.71
30.80
26.73
24.02
23.26
23.99
25.82
28.17
28.97
29.07
29.10
29.78
31.45
33.83
36.43
39.03
41.33
43.49
45.78
48.19
50.98
53.77
55.97
57.35
58.15
58.48
58.87
59.32
59.53
59.54
58.39
55.06
49.04
40.56
29.45
16.19
0.27
-19.07
-42.46
-67.69
-93.38
-118.37
-141.02
-160.60
-175.72
-186.41
-192.90
-185.06
-158.56
-115.56
-64.98
-17.11
13.51
25.99
21.73
2.16
-31.23
-75.95
-129.48
-190.11
-247.86
-294.53
-324.63
-339.75
-344.86
-342.38
-342.62
-338.94
-322.23
-286.07
-231.00
-161.16
-79.98
5.03
88.24
163.54
224.91
267.01
288.36
289.72
275.25
249.04
215.08
177.38
138.43
100.96
65.84
38.48
15.85
-4.00
-22.63
-40.53
-57.55
-73.76
-87.70
-98.28
-104.35
-104.00
-93.69
-77.19
-57.14
-36.15
-16.79
0.86
17.00
32.10
49.29
71.85
100.29
132.25
163.44
188.87
208.01
221.62
231.18
243.30
264.08
295.00
332.23
368.92
397.98
419.30
434.98
448.14
468.71
505.40
561.38
632.62
712.13
792.92
873.79
950.85
975.18
912.71
761.89
558.37
349.02
186.91
70.30
-11.14
-70.21
-117.71
-154.37
-176.98
-185.03
-186.93
-192.99
-207.07
-226.08
-248.78
-272.88
-290.70
-295.81
-286.98
-273.90
-268.15
-271.82
-282.46
-300.66
-325.45
-351.65
-374.40
-361.08
-295.44
-229.96
-190.48
-164.95
-149.04
-139.20
-130.97
-120.86
-107.35
-95.68
-90.86
-87.56
-81.53
-73.81
-65.01
-54.89
-43.18
-29.95
-19.27
-14.25
-9.85
-3.91
1.28
3.84
2.35
-4.37
-17.19
-38.67
-70.14
-107.16
-149.23
-197.80
-252.66
-312.36
-375.74
-443.03
-516.50
-597.34
-681.60
-766.36
-844.87
-906.61
-941.26
-943.99
-917.79
-871.79
-816.13
-757.28
-702.84
-654.64
-609.25
-560.52
-503.87
-437.94
-363.62
-281.72
-159.61
10.82
212.72
412.07
578.83
699.25
774.08
811.37
821.64
814.85
793.57
760.40
719.10
675.85
636.41
604.13
578.75
557.44
535.01
501.28
452.65
387.43
311.91
236.24
169.80
117.29
79.14
52.18
28.91
3.54
-26.65
-60.54
-96.49
-129.30
-159.42
-187.19
-210.37
-225.10
-226.14
-210.02
-177.24
-133.82
-88.92
-52.01
-27.67
-14.92
-9.55
-6.61
-3.78
-1.02
0.41
0.44
-0.15
1.05
6.37
16.34
29.23
41.85
51.11
55.51
56.64
57.30
61.24
71.80
91.08
119.54
155.94
198.02
236.53
263.27
271.07
255.97
218.45
163.30
97.52
27.27
-44.19
-116.82
-191.04
-266.26
-338.96
-403.11
-452.15
-481.60
-490.48
-481.29
-458.56
-426.47
-388.51
-346.98
-303.71
-260.53
-219.48
-182.35
-150.09
-122.43
-97.54
-73.29
-48.07
-21.42
5.93
32.45
56.86
78.79
98.99
119.18
141.04
165.45
192.35
220.77
249.57
278.03
306.20
334.98
366.29
402.80
447.28
501.19
562.95
626.87
683.66
722.80
736.20
721.17
681.36
625.12
562.03
499.52
441.03
386.37
333.42
280.05
225.22
168.98
112.07
55.27
-0.62
-54.75
-106.37
-155.02
-200.83
-245.04
-290.09
-338.84
-392.88
-450.61
-506.22
-550.47
-573.52
-568.66
-534.93
-477.59
-405.67
-328.34
-251.78
-177.93
-105.20
-30.27
49.90
136.51
227.87
319.15
402.86
470.44
514.75
532.43
525.19
498.90
461.51
420.44
380.82
345.07
313.41
284.78
257.44
229.45
199.14
165.77
129.77
92.96
57.57
25.14
-4.07
-31.70
-60.92
-95.68
-139.24
-192.16
-250.26
-303.99
-340.32
-347.31
-319.76
-262.84
-191.45
-125.03
-80.02
-63.94
-74.17
-101.26
-135.00
-169.38
-203.88
-241.67
-286.20
-339.32
-400.88
-469.43
-542.20
-614.65
-680.29
-731.33
-761.07
-766.09
-747.77
-711.80
-665.93
-617.00
-569.27
-524.26
-481.89
-441.91
-403.97
-368.00
-333.85
-301.09
-268.96
-236.61
-203.48
-169.60
-136.07
-103.20
-71.51
-41.61
-14.09
11.16
35.20
59.69
86.22
115.42
150.67
194.79
247.81
304.76
356.02
390.25
398.62
379.01
336.55
287.76
250.35
235.36
242.80
263.92
287.61
306.12
317.95
324.45
335.03
357.18
392.81
438.08
487.38
537.63
589.33
645.74
674.77
651.82
568.61
440.83
296.19
157.33
35.76
-65.36
-135.80
-184.13
-212.32
-221.36
-214.39
-197.51
-176.87
-154.72
-135.89
-118.84
-103.17
-83.37
-55.60
-20.19
18.47
54.71
85.11
109.19
130.13
149.78
174.10
208.77
255.57
310.98
366.53
411.88
437.38
438.24
412.86
366.98
310.37
251.37
194.25
138.54
81.97
22.15
-40.77
-107.26
-179.31
-250.45
-311.06
-354.41
-380.41
-392.19
-400.60
-407.67
-414.62
-423.66
-438.13
-463.72
-499.16
-542.90
-588.79
-626.96
-645.86
-638.56
-604.65
-549.69
-483.79
-417.22
-357.47
-306.35
-261.66
-219.37
-177.68
-137.08
-98.83
-64.07
-32.63
-3.50
25.43
56.01
89.28
124.10
158.37
190.18
218.38
243.12
265.37
287.12
310.84
338.99
372.67
411.03
450.66
485.58
508.35
511.97
492.61
451.19
393.25
327.00
261.00
202.13
154.47
119.16
94.57
77.08
61.98
45.07
24.27
0.73
-21.75
-38.48
-46.28
-44.97
-37.33
-27.65
-19.87
-16.23
-16.96
-20.84
-25.68
-28.45
-25.68
-14.25
7.19
36.99
70.25
100.04
119.56
124.61
115.25
95.85
73.94
57.84
54.07
65.15
88.63
117.74
143.59
158.04
156.03
136.96
103.90
61.67
14.77
-34.12
-84.56
-137.91
-196.06
-259.90
-327.85
-395.27
-455.02
-499.25
-521.87
-520.55
-497.33
-457.55
-407.65
-353.14
-297.55
-242.68
-189.47
-138.60
-90.55
-45.07
-0.72
45.21
95.82
153.12
216.40
281.13
338.97
380.02
395.88
382.86
343.36
284.70
215.70
143.00
69.33
-5.25
-80.04
-150.76
-209.11
-245.39
-252.78
-230.47
-183.85
-122.05
-54.23
13.11
76.71
135.24
187.28
230.39
261.95
280.90
288.97
290.55
291.03
294.23
300.65
306.97
307.62
297.54
274.75
241.10
201.39
161.35
125.63
96.75
74.60
57.67
44.57
35.04
29.61
28.86
32.74
40.40
50.99
63.47
77.25
92.57
110.23
130.42
151.54
170.45
183.37
187.65
181.73
165.89
142.25
114.49
86.14
59.39
35.18
10.67
-12.77
-31.30
-41.97
-46.46
-47.82
-47.70
-48.13
-50.80
-56.54
-64.61
-73.99
-83.85
-93.94
-104.28
-115.93
-130.51
-149.17
-171.99
-197.51
-224.07
-250.30
-275.79
-300.54
-325.73
-352.93
-383.64
-419.47
-461.76
-510.98
-565.45
-620.62
-668.36
-700.28
-709.88
-694.99
-658.97
-609.32
-554.25
-500.02
-450.20
-404.43
-361.75
-320.58
-279.30
-236.55
-191.22
-141.53
-86.21
-25.89
43.16
115.07
178.04
221.04
239.44
235.34
215.32
192.58
170.90
151.34
133.03
116.02
101.88
93.66
87.81
83.84
81.61
80.04
78.99
77.70
76.03
74.38
73.26
72.73
73.59
76.29
80.43
86.31
93.79
102.86
113.53
125.70
138.85
153.22
168.95
185.77
204.11
224.48
247.72
274.66
305.31
338.01
369.74
396.10
412.56
416.49
407.84
389.05
363.78
335.37
305.73
275.67
245.38
215.18
186.04
159.11
135.01
113.42
93.23
73.19
52.63
31.61
10.82
-8.68
-25.88
-39.91
-50.16
-56.27
-58.30
-56.72
-52.45
-46.65
-40.53
-35.09
-31.03
-28.68
-28.08
-29.06
-31.25
-34.10
-36.91
-38.94
-39.58
-38.51
-35.86
-32.16
-28.18
-24.70
-22.26
-21.05
-20.94
-21.65
-22.82
-24.22
-25.69
-27.15
-28.57
-30.00
-31.51
-33.27
-35.52
-38.46
-42.07
-45.97
-49.40
-51.27
-50.53
-46.47
-39.11
-29.31
-18.51
-8.35
-0.12
5.44
8.28
8.73
7.33
4.56
0.89
-3.25
-7.35
-10.86
-13.36
-14.67
-14.99
-14.80
-14.78
-15.51
-17.30
-20.13
-23.67
-27.43
-30.97
-33.96
-36.30
-38.03
-39.26
-40.16
-40.94
-41.87
-43.20
-44.93
-46.73
-47.82
-47.23
-44.09
-38.06
-29.56
-19.62
-9.61
-0.76
6.14
10.88
13.56
14.46
13.83
11.95
9.24
6.28
3.72
2.11
1.85
2.97
5.11
7.60
9.68
10.66
10.09
7.88
4.30
0.07
-4.01
-7.36
-9.77
-11.44
-12.75
-14.13
-15.95
-18.41
-21.03
-23.12
-24.09
-23.49
-20.98
-16.26
-9.28
-0.42
9.45
20.16
31.42
42.58
52.63
60.57
65.80
68.26
68.23
66.25
64.64
65.50
69.71
76.55
84.20
90.86
95.32
97.07
96.25
95.67
98.18
105.18
116.39
130.40
145.96
162.40
179.30
182.99
164.41
123.07
68.09
12.27
-35.28
-70.84
-94.57
-108.61
-115.89
-117.21
-112.22
-102.62
-90.96
-80.18
-72.26
-68.00
-67.44
-70.13
-73.77
-75.91
-75.62
-73.38
-70.63
-68.76
-67.70
-66.96
-66.02
-65.61
-65.23
-64.91
-64.09
-63.33
-63.16
-63.66
-64.74
-66.19
-67.33
-67.34
-66.09
-63.99
-61.89
-60.42
-59.79
-59.85
-60.02
-59.24
-56.13
-49.84
-40.29
-28.34
-15.39
-2.96
7.58
15.38
20.16
22.26
22.18
20.49
17.72
14.44
11.30
8.81
7.27
6.60
6.50
6.46
6.02
4.82
2.81
0.09
-3.17
-6.82
-10.73
-14.72
-18.54
-21.93
-24.65
-26.56
-27.68
-28.20
-28.42
-28.68
-29.23
-30.11
-31.02
-31.34
-30.25
-27.02
-21.30
-13.34
-4.02
5.48
13.98
20.72
25.44
28.29
29.68
30.03
29.73
29.11
28.56
28.43
28.94
30.10
31.65
33.14
34.12
34.27
33.47
31.77
29.30
26.20
22.57
18.55
14.30
10.02
5.89
2.05
-1.42
-4.54
-7.38
-10.09
-12.89
-16.04
-19.67
-23.65
-27.47
-30.30
-31.21
-29.51
-25.04
-18.27
-10.16
-1.87
5.55
11.34
15.08
16.68
16.26
14.14
10.83
6.96
3.28
0.38
-1.39
-1.99
-1.67
-0.78
0.35
1.52
2.67
3.84
5.08
6.35
7.53
8.44
8.87
8.68
7.84
6.46
4.74
2.94
1.23
-0.38
-2.05
-4.05
-6.60
-9.78
-13.35
-16.76
-19.19
-19.80
-17.92
-13.36
-6.52
1.71
10.13
17.58
23.20
26.54
27.60
26.69
24.32
21.07
17.58
14.43
12.08
10.75
10.38
10.69
11.30
11.83
12.05
11.83
11.13
9.95
8.29
6.17
3.67
0.92
-1.89
-4.61
-7.12
-9.36
-11.29
-12.98
-14.54
-16.19
-18.23
-20.85
-23.99
-27.17
-29.53
-30.08
-28.03
-23.13
-15.79
-6.98
2.03
10.04
16.17
19.99
21.46
20.82
18.56
15.30
11.69
8.41
5.97
4.65
4.43
5.05
6.09
7.12
7.81
7.99
7.61
6.67
5.18
3.18
0.76
-1.94
-4.70
-7.32
-9.63
-11.60
-13.32
-14.96
-16.74
-18.89
-21.53
-24.52
-27.42
-29.46
-29.71
-27.43
-22.34
-14.85
-5.96
3.06
11.03
17.16
21.13
22.95
22.82
21.03
18.01
14.30
10.55
7.39
5.29
4.43
4.66
5.67
7.02
8.28
9.06
9.06
8.07
6.07
3.21
-0.13
-3.55
-6.69
-9.36
-11.54
-13.36
-15.01
-16.77
-18.88
-21.55
-24.75
-28.11
-30.87
-32.05
-30.75
-26.47
-19.39
-10.37
-0.68
8.39
15.82
21.04
23.92
24.64
23.55
21.12
17.91
14.53
11.55
9.39
8.25
8.07
8.59
9.45
10.25
10.69
10.55
9.70
8.13
5.86
3.04
-0.17
-3.52
-6.80
-9.84
-12.54
-14.93
-17.16
-19.43
-22.00
-25.01
-28.36
-31.64
-34.08
-34.74
-32.79
-27.80
-20.01
-10.33
-0.10
9.31
16.85
22.04
24.87
25.69
24.95
23.15
20.75
18.21
16.00
14.49
13.84
13.95
14.46
14.94
15.03
14.57
13.59
12.25
10.67
8.86
6.71
4.12
1.05
-2.36
-5.85
-9.08
-11.80
-13.99
-15.81
-17.60
-19.76
-22.58
-26.11
-30.06
-33.78
-36.30
-36.59
-33.85
-27.79
-18.88
-8.25
2.61
12.27
19.71
24.53
26.89
27.31
26.42
24.76
22.80
20.86
19.21
18.04
17.47
17.51
18.02
18.76
19.37
19.53
18.98
17.64
15.61
13.12
10.46
7.88
5.52
3.34
1.26
-0.87
-3.13
-5.54
-8.02
-10.45
-12.76
-14.91
-16.94
-18.97
-21.07
-23.39
-26.07
-29.25
-32.96
-36.88
-40.34
-42.30
-41.65
-37.64
-30.18
-20.04
-8.63
2.44
11.83
18.78
23.21
25.48
26.12
25.60
24.28
22.48
20.60
19.07
18.30
18.51
19.56
21.00
22.21
22.61
21.94
20.28
17.99
15.55
13.29
11.31
9.44
7.38
4.90
1.94
-1.33
-4.60
-7.54
-9.96
-11.85
-13.39
-14.81
-16.37
-18.26
-20.63
-23.54
-26.91
-30.40
-33.29
-34.64
-33.51
-29.33
-22.18
-12.84
-2.61
7.11
15.22
21.09
24.60
25.95
25.52
23.75
21.12
18.20
15.55
13.68
12.90
13.20
14.27
15.62
16.71
17.11
16.65
15.36
13.40
11.01
8.37
5.62
2.87
0.17
-2.36
-4.69
-6.79
-8.72
-10.56
-12.43
-14.50
-16.88
-19.66
-22.80
-26.03
-28.83
-30.47
-30.16
-27.31
-21.83
-14.19
-5.41
3.26
10.65
15.99
19.00
19.84
18.93
16.75
13.83
10.66
7.76
5.56
4.35
4.18
4.85
6.03
7.30
8.36
9.00
9.12
8.66
7.62
6.03
3.96
1.55
-1.00
-3.51
-5.83
-7.92
-9.79
-11.59
-13.50
-15.75
-18.47
-21.55
-24.57
-26.73
-27.08
-24.80
-19.55
-11.73
-2.37
7.08
15.24
21.17
24.54
25.54
24.64
22.39
19.29
15.78
12.37
9.57
7.83
7.37
8.08
9.54
11.15
12.32
12.67
12.06
10.58
8.47
5.98
3.36
0.78
-1.65
-3.89
-5.95
-7.89
-9.83
-11.95
-14.44
-17.41
-20.71
-23.83
-26.00
-26.28
-23.98
-18.90
-11.50
-2.81
5.86
13.28
18.62
21.52
22.09
20.73
17.98
14.40
10.53
6.89
3.94
2.09
1.56
2.37
4.23
6.60
8.82
10.24
10.43
9.25
6.93
3.91
0.69
-2.34
-4.97
-7.19
-9.09
-10.83
-12.54
-14.34
-16.32
-18.42
-20.34
-21.50
-21.12
-18.52
-13.43
-6.16
2.37
10.92
18.31
23.74
26.87
27.75
26.69
24.07
20.35
16.03
11.69
7.88
5.07
3.50
3.18
3.90
5.27
6.81
8.04
8.57
8.18
6.84
4.75
2.16
-0.61
-3.38
-6.02
-8.52
-10.95
-13.42
-16.09
-19.13
-22.58
-26.26
-29.66
-31.95
-32.24
-29.80
-24.43
-16.55
-7.18
2.34
10.71
16.96
20.61
21.64
20.35
17.25
12.95
8.14
3.55
-0.16
-2.48
-3.22
-2.54
-0.90
1.06
2.73
3.66
3.64
2.68
0.94
-1.30
-3.75
-6.13
-8.26
-10.10
-11.81
-13.65
-15.96
-18.97
-22.65
-26.62
-30.16
-32.32
-32.21
-29.26
-23.42
-15.27
-5.86
3.56
11.82
18.07
21.83
23.00
21.76
18.50
13.82
8.46
3.27
-0.95
-3.60
-4.45
-3.69
-1.89
0.15
1.70
2.22
1.58
-0.04
-2.21
-4.49
-6.66
-8.69
-10.80
-13.27
-16.37
-20.23
-24.76
-29.57
-33.98
-37.04
-37.72
-35.19
-29.20
-20.21
-9.40
1.70
11.58
19.17
23.94
25.86
25.17
22.29
17.74
12.23
6.66
1.97
-1.03
-1.97
-1.05
1.05
3.35
4.97
5.34
4.33
2.22
-0.52
-3.47
-6.37
-9.18
-12.06
-15.22
-18.93
-23.35
-28.41
-33.73
-38.48
-41.50
-41.55
-37.76
-29.99
-19.00
-6.29
6.35
17.32
25.58
30.73
32.88
32.39
29.70
25.36
20.06
14.62
9.96
6.79
5.46
5.83
7.25
8.86
9.84
9.68
8.26
5.87
2.98
0.04
-2.76
-5.52
-8.56
-12.32
-17.10
-22.90
-29.34
-35.56
-40.32
-42.29
-40.34
-33.99
-23.68
-10.68
3.12
15.87
26.14
33.22
37.08
38.03
36.52
32.97
27.93
22.18
16.74
12.67
10.70
10.94
12.77
15.04
16.54
16.41
14.47
11.15
7.22
3.38
0.01
-2.96
-5.89
-9.27
-13.46
-18.59
-24.53
-30.74
-36.30
-39.95
-40.33
-36.41
-27.99
-15.86
-1.75
12.24
24.23
33.09
38.54
40.90
40.73
38.55
34.81
29.99
24.83
20.21
16.96
15.55
15.86
17.19
18.50
18.82
17.56
14.75
10.89
6.75
2.96
-0.18
-2.81
-5.40
-8.45
-12.33
-17.15
-22.75
-28.73
-34.42
-38.83
-40.79
-39.11
-33.09
-22.83
-9.41
5.28
19.12
30.31
37.84
41.58
42.06
40.18
36.87
32.92
28.98
25.56
23.03
21.55
21.03
21.16
21.49
21.55
21.01
19.74
17.72
15.05
11.81
8.10
4.03
-0.25
-4.51
-8.52
-12.08
-15.14
-17.78
-20.25
-22.92
-26.21
-30.37
-35.23
-40.04
-43.42
-43.76
-39.74
-30.99
-18.31
-3.57
10.97
23.38
32.59
38.49
41.61
42.68
42.25
40.65
38.12
35.08
32.14
29.96
28.99
29.25
30.31
31.48
32.07
31.65
30.17
27.87
25.12
22.26
19.50
16.86
14.28
11.65
8.88
5.94
2.94
0.05
-2.46
-4.39
-5.73
-6.71
-7.73
-9.23
-11.50
-14.51
-17.93
-21.29
-24.19
-26.44
-28.15
-29.61
-31.21
-33.32
-36.23
-40.09
-44.77
-49.64
-53.61
-55.18
-52.96
-46.22
-35.19
-21.21
-6.25
7.69
19.22
27.79
33.57
37.08
38.81
39.05
38.00
35.92
33.33
30.93
29.36
28.98
29.70
30.98
32.10
32.48
31.83
30.29
28.22
26.01
23.89
21.83
19.61
16.99
13.80
10.14
6.29
2.67
-0.33
-2.47
-3.79
-4.62
-5.45
-6.78
-8.86
-11.65
-14.81
-17.88
-20.48
-22.45
-23.91
-25.14
-26.54
-28.48
-31.24
-34.89
-39.21
-43.58
-47.05
-48.48
-46.87
-41.73
-33.29
-22.47
-10.67
0.64
10.34
17.80
23.00
26.26
28.05
28.74
28.58
27.75
26.46
25.05
23.86
23.16
23.02
23.26
23.55
23.62
23.26
22.48
21.32
19.89
18.25
16.45
14.48
12.37
10.17
7.88
5.51
3.08
0.65
-1.68
-3.76
-5.52
-6.97
-8.25
-9.59
-11.20
-13.18
-15.44
-17.77
-19.91
-21.71
-23.19
-24.55
-26.07
-28.05
-30.67
-33.98
-37.82
-41.74
-45.02
-46.72
-45.94
-42.07
-35.14
-25.82
-15.31
-4.97
4.10
11.25
16.37
19.66
21.48
22.14
21.93
21.10
19.97
18.89
18.17
17.99
18.35
19.06
19.83
20.39
20.55
20.22
19.44
18.31
16.93
15.39
13.73
11.93
9.95
7.76
5.37
2.84
0.28
-2.15
-4.29
-6.04
-7.44
-8.66
-9.97
-11.60
-13.66
-16.10
-18.70
-21.19
-23.39
-25.24
-26.89
-28.56
-30.57
-33.14
-36.41
-40.24
-44.21
-47.58
-49.40
-48.78
-45.14
-38.47
-29.34
-18.83
-8.23
1.32
9.02
14.53
17.88
19.35
19.32
18.21
16.50
14.69
13.31
12.76
13.22
14.51
16.16
17.51
18.03
17.40
15.71
13.28
10.54
7.83
5.26
2.73
0.00
-3.11
-6.62
-10.38
-14.10
-17.50
-20.42
-22.83
-24.87
-26.69
-28.37
-29.85
-30.96
-31.45
-31.03
-29.38
-26.27
-21.62
-15.61
-8.67
-1.49
5.14
10.39
13.68
14.90
14.39
12.90
11.38
10.71
11.49
13.83
17.10
20.36
22.67
23.39
22.18
19.02
14.07
7.68
0.31
-7.77
-16.09
-23.90
-30.36
-34.96
-37.56
-38.50
-38.37
-37.76
-37.43
-37.66
-38.14
-38.23
-37.46
-35.58
-32.62
-28.67
-21.16
-9.07
6.73
23.75
39.48
52.33
61.84
68.15
71.65
72.81
71.80
69.06
65.31
62.06
59.49
57.45
55.40
52.70
48.83
43.44
36.91
30.25
24.69
21.08
19.73
20.24
22.23
24.90
27.22
28.40
27.97
25.83
21.99
16.75
10.57
4.12
-1.93
-7.08
-11.01
-13.69
-15.31
-16.26
-16.90
-17.54
-18.42
-19.79
-21.89
-24.87
-28.67
-33.02
-37.47
-41.52
-44.78
-47.12
-48.77
-50.10
-51.49
-53.15
-55.01
-56.80
-58.17
-58.93
-59.16
-59.21
-59.57
-60.69
-62.83
-66.00
-69.90
-73.90
-77.04
-78.16
-76.06
-69.88
-59.45
-45.41
-29.06
-11.98
4.40
19.13
31.68
41.87
49.66
55.15
58.61
60.48
61.41
62.06
62.96
64.38
66.27
68.29
69.92
70.64
70.09
68.28
65.57
62.46
59.27
55.89
51.73
46.08
38.48
29.13
18.84
8.72
-0.28
-7.75
-13.84
-19.17
-24.43
-30.09
-36.20
-42.29
-47.50
-50.71
-50.92
-47.54
-40.64
-30.98
-19.85
-8.67
1.29
9.18
14.53
17.22
17.34
15.22
11.41
6.70
2.05
-1.67
-3.83
-4.20
-2.96
-0.58
2.32
5.10
7.21
8.27
8.13
6.87
4.76
2.21
-0.43
-2.95
-5.37
-7.84
-10.60
-13.89
-17.88
-22.51
-27.52
-32.26
-35.78
-36.98
-34.92
-29.22
-20.25
-9.15
2.55
13.28
21.89
27.81
30.95
31.51
29.84
26.39
21.76
16.75
12.28
9.20
8.01
8.69
10.73
13.27
15.39
16.41
16.03
14.32
11.66
8.50
5.24
2.14
-0.75
-3.59
-6.66
-10.31
-14.76
-19.92
-25.29
-29.88
-32.46
-31.89
-27.53
-19.52
-8.79
3.16
14.74
24.62
32.04
36.78
38.99
38.96
37.03
33.57
29.07
24.25
19.90
16.79
15.32
15.36
16.28
17.17
17.20
15.95
13.45
10.15
6.60
3.22
0.15
-2.78
-5.88
-9.49
-13.85
-18.98
-24.66
-30.37
-35.26
-38.30
-38.45
-35.05
-28.05
-18.14
-6.65
4.88
15.04
22.94
28.31
31.34
32.47
32.17
30.79
28.62
26.01
23.34
21.04
19.41
18.54
18.20
18.01
17.48
16.27
14.23
11.45
8.20
4.77
1.41
-1.81
-4.95
-8.19
-11.69
-15.59
-19.88
-24.47
-29.12
-33.40
-36.66
-38.08
-36.83
-32.38
-24.73
-14.59
-3.13
8.27
18.47
26.85
33.26
37.84
40.80
42.25
42.21
40.81
38.36
35.36
32.40
29.92
28.11
26.84
25.83
24.70
23.22
21.26
18.82
15.95
12.72
9.13
5.20
0.94
-3.59
-8.23
-12.82
-17.19
-21.25
-24.99
-28.51
-31.96
-35.44
-39.03
-42.68
-46.36
-50.07
-53.92
-58.02
-62.38
-66.66
-70.14
-71.90
-71.06
-67.13
-60.22
-50.93
-40.19
-29.03
-18.37
-8.98
-1.45
3.86
7.00
8.51
9.39
10.89
14.06
19.50
27.10
36.19
45.83
55.09
63.35
70.32
75.96
80.32
83.41
85.12
85.38
84.18
81.71
78.27
74.26
69.99
65.72
61.58
57.63
53.82
50.03
45.99
41.40
36.05
29.89
23.09
15.93
8.71
1.62
-5.29
-12.04
-18.65
-25.06
-31.19
-37.00
-42.58
-48.10
-53.73
-59.55
-65.37
-70.68
-74.71
-76.56
-75.54
-71.38
-64.42
-55.59
-46.10
-37.12
-29.44
-23.33
-18.64
-15.00
-12.05
-9.58
-7.51
-5.78
-4.32
-2.97
-1.56
0.01
1.79
3.70
5.58
7.21
8.44
9.15
9.39
9.28
8.96
8.55
8.06
7.45
6.69
5.75
4.71
3.64
2.59
1.55
0.50
-0.61
-1.80
-3.04
-4.36
-5.80
-7.41
-9.23
-11.23
-13.29
-15.27
-17.06
-18.60
-19.94
-21.21
-22.63
-24.45
-26.91
-30.03
-33.59
-36.96
-39.25
-39.50
-37.06
-31.87
-24.53
-16.14
-7.94
-0.89
4.49
8.18
10.46
11.71
12.22
12.23
11.89
11.44
11.16
11.36
12.22
13.72
15.60
17.43
18.72
19.13
18.61
17.41
15.97
14.71
13.85
13.29
12.72
11.76
10.22
8.15
5.84
3.64
1.79
0.34
-0.81
-1.89
-3.11
-4.58
-6.33
-8.30
-10.40
-12.54
-14.68
-16.79
-18.91
-21.05
-23.29
-25.73
-28.47
-31.51
-34.63
-37.29
-38.68
-37.99
-34.70
-28.87
-21.12
-12.50
-4.12
3.18
8.89
12.87
15.17
15.97
15.56
14.33
12.77
11.37
10.53
10.42
11.06
12.28
13.87
15.58
17.12
18.26
18.76
18.51
17.52
15.91
13.89
11.63
9.29
6.96
4.72
2.60
0.65
-1.16
-2.90
-4.71
-6.72
-8.98
-11.41
-13.84
-16.02
-17.81
-19.28
-20.77
-22.75
-25.68
-29.71
-34.49
-39.18
-42.62
-43.66
-41.52
-36.06
-27.78
-17.76
-7.32
2.29
10.14
15.75
19.09
20.46
20.36
19.35
17.93
16.51
15.45
15.03
15.40
16.57
18.33
20.29
21.98
22.97
23.01
22.11
20.47
18.42
16.25
14.10
12.03
9.91
7.62
5.02
2.07
-1.19
-4.58
-7.90
-10.88
-13.37
-15.32
-16.87
-18.31
-20.07
-22.56
-26.04
-30.50
-35.53
-40.31
-43.75
-44.71
-42.37
-36.44
-27.39
-16.32
-4.70
6.03
14.76
20.98
24.67
26.20
26.11
24.99
23.38
21.80
20.71
20.42
21.06
22.47
24.30
26.10
27.46
28.08
27.82
26.70
24.84
22.44
19.72
16.93
14.23
11.64
9.04
6.19
2.89
-0.89
-4.96
-8.91
-12.34
-14.97
-16.86
-18.30
-19.79
-21.79
-24.63
-28.45
-33.12
-38.21
-42.93
-46.15
-46.65
-43.45
-36.23
-25.57
-12.83
0.18
11.79
20.90
27.16
30.80
32.40
32.55
31.75
30.39
28.78
27.29
26.24
25.90
26.33
27.37
28.65
29.77
30.35
30.17
29.19
27.50
25.25
22.59
19.67
16.59
13.43
10.24
7.01
3.69
0.24
-3.37
-7.06
-10.62
-13.82
-16.50
-18.66
-20.48
-22.35
-24.74
-28.09
-32.61
-38.16
-44.08
-49.23
-52.15
-51.50
-46.44
-37.09
-24.49
-10.41
3.19
14.73
23.40
29.14
32.44
33.94
34.21
33.60
32.37
30.82
29.37
28.45
28.34
29.05
30.24
31.42
32.13
32.13
31.46
30.35
28.98
27.41
25.52
23.11
20.03
16.32
12.23
8.14
4.41
1.28
-1.30
-3.58
-5.91
-8.62
-11.77
-15.19
-18.51
-21.39
-23.67
-25.50
-27.30
-29.61
-32.91
-37.40
-42.84
-48.51
-53.23
-55.59
-54.30
-48.65
-38.79
-25.82
-11.49
2.31
14.04
22.90
28.81
32.21
33.72
33.92
33.24
32.05
30.63
29.32
28.40
28.10
28.48
29.42
30.64
31.75
32.35
32.17
31.12
29.35
27.14
24.77
22.41
20.02
17.45
14.55
11.32
7.92
4.65
1.79
-0.56
-2.55
-4.48
-6.69
-9.39
-12.54
-15.90
-19.12
-21.91
-24.15
-25.97
-27.68
-29.64
-32.26
-35.80
-40.34
-45.64
-51.02
-55.40
-57.45
-55.98
-50.32
-40.63
-27.96
-13.97
-0.45
11.16
20.03
26.06
29.62
31.29
31.62
31.04
29.93
28.64
27.53
26.91
26.98
27.73
28.91
30.17
31.13
31.53
31.27
30.39
29.00
27.23
25.16
22.84
20.32
17.65
14.92
12.20
9.55
6.97
4.46
1.99
-0.44
-2.83
-5.16
-7.45
-9.76
-12.15
-14.68
-17.36
-20.12
-22.85
-25.41
-27.71
-29.83
-31.95
-34.42
-37.61
-41.76
-46.75
-52.04
-56.57
-59.02
-58.12
-53.08
-43.92
-31.57
-17.60
-3.80
8.31
17.81
24.47
28.52
30.46
30.81
30.04
28.61
26.96
25.56
24.75
24.74
25.52
26.87
28.49
30.01
31.09
31.52
31.18
30.12
28.48
26.42
24.08
21.50
18.63
15.43
11.97
8.43
5.12
2.30
0.10
-1.56
-3.00
-4.56
-6.56
-9.13
-12.19
-15.52
-18.82
-21.84
-24.40
-26.53
-28.34
-30.12
-32.21
-34.99
-38.73
-43.42
-48.60
-53.30
-56.21
-55.95
-51.62
-43.10
-31.20
-17.50
-3.86
8.13
17.48
23.91
27.71
29.41
29.55
28.61
26.98
25.11
23.46
22.48
22.49
23.50
25.26
27.27
29.02
30.11
30.36
29.81
28.64
27.04
25.18
23.10
20.74
18.03
14.93
11.53
8.04
4.76
1.95
-0.28
-2.03
-3.56
-5.26
-7.41
-10.14
-13.35
-16.77
-20.08
-23.00
-25.44
-27.45
-29.29
-31.33
-33.99
-37.57
-42.11
-47.24
-52.10
-55.47
-56.01
-52.74
-45.32
-34.31
-21.03
-7.22
5.44
15.76
23.21
27.82
29.98
30.20
28.99
26.87
24.38
22.09
20.54
20.04
20.60
21.97
23.71
25.42
26.80
27.73
28.17
28.09
27.34
25.76
23.27
19.94
16.04
12.00
8.21
4.96
2.31
0.11
-1.89
-3.94
-6.21
-8.76
-11.54
-14.41
-17.18
-19.67
-21.77
-23.53
-25.17
-27.13
-29.87
-33.69
-38.52
-43.71
-48.10
-50.26
-48.89
-43.32
-33.73
-21.19
-7.41
5.76
16.79
24.79
29.54
31.31
30.70
28.40
25.17
21.71
18.70
16.69
15.99
16.61
18.25
20.41
22.53
24.17
25.04
25.10
24.39
23.00
21.06
18.65
15.83
12.71
9.41
6.09
2.85
-0.22
-3.15
-6.00
-8.83
-11.63
-14.29
-16.67
-18.68
-20.36
-21.90
-23.63
-25.89
-28.96
-32.90
-37.44
-41.87
-45.12
-45.94
-43.31
-36.81
-26.81
-14.53
-1.65
10.09
19.42
25.66
28.84
29.39
27.98
25.26
21.86
18.38
15.40
13.40
12.73
13.46
15.34
17.83
20.25
21.99
22.67
22.23
20.83
18.78
16.33
13.61
10.63
7.36
3.83
0.08
-3.76
-7.52
-11.04
-14.16
-16.77
-18.85
-20.51
-21.97
-23.57
-25.65
-28.53
-32.35
-36.97
-41.82
-45.96
-48.13
-47.18
-42.35
-33.70
-22.12
-9.15
3.48
14.29
22.36
27.39
29.57
29.36
27.36
24.23
20.70
17.48
15.23
14.37
14.97
16.76
19.15
21.43
22.99
23.45
22.77
21.16
18.95
16.45
13.82
11.04
7.98
4.49
0.55
-3.72
-7.99
-11.90
-15.17
-17.67
-19.56
-21.15
-22.93
-25.36
-28.78
-33.23
-38.40
-43.52
-47.48
-49.03
-47.12
-41.23
-31.66
-19.48
-6.29
6.19
16.58
24.14
28.77
30.85
30.95
29.68
27.58
25.13
22.81
21.10
20.35
20.75
22.13
24.06
25.89
27.03
27.03
25.79
23.54
20.69
17.67
14.74
11.88
8.90
5.54
1.69
-2.52
-6.71
-10.44
-13.43
-15.67
-17.46
-19.29
-21.65
-24.91
-29.21
-34.38
-39.95
-45.04
-48.52
-49.14
-45.95
-38.62
-27.74
-14.71
-1.35
10.63
20.13
26.81
30.93
33.08
33.77
33.34
32.02
30.10
27.99
26.21
25.27
25.37
26.40
27.92
29.31
30.01
29.65
28.17
25.75
22.73
19.40
16.00
12.59
9.16
5.67
2.10
-1.54
-5.16
-8.65
-11.89
-14.79
-17.29
-19.43
-21.41
-23.53
-26.15
-29.62
-34.07
-39.27
-44.51
-48.66
-50.36
-48.43
-42.32
-32.37
-19.80
-6.35
6.20
16.57
24.19
29.17
31.97
33.15
33.16
32.38
31.17
29.95
29.12
28.97
29.52
30.57
31.67
32.38
32.40
31.69
30.46
28.97
27.39
25.68
23.61
20.91
17.50
13.55
9.46
5.67
2.44
-0.25
-2.68
-5.19
-8.00
-11.16
-14.50
-17.75
-20.70
-23.22
-25.36
-27.32
-29.45
-32.22
-36.01
-40.94
-46.63
-52.12
-55.96
-56.59
-52.91
-44.69
-32.74
-18.72
-4.62
7.87
17.72
24.71
29.18
31.71
32.84
32.94
32.28
31.17
30.00
29.18
29.01
29.54
30.54
31.60
32.32
32.43
31.89
30.81
29.38
27.73
25.85
23.67
21.08
18.04
14.65
11.11
7.67
4.59
2.03
-0.01
-1.72
-3.41
-5.43
-8.04
-11.30
-15.03
-18.85
-22.36
-25.21
-27.35
-28.95
-30.43
-32.28
-34.97
-38.77
-43.59
-48.84
-53.46
-56.07
-55.34
-50.44
-41.42
-29.27
-15.67
-2.49
8.77
17.31
23.12
26.66
28.58
29.38
29.41
28.90
28.10
27.34
26.98
27.20
27.96
29.01
29.95
30.46
30.40
29.80
28.83
27.61
26.20
24.52
22.49
20.05
17.20
14.04
10.73
7.46
4.45
1.84
-0.29
-1.96
-3.36
-4.76
-6.45
-8.65
-11.38
-14.51
-17.74
-20.81
-23.51
-25.83
-27.89
-29.90
-32.15
-34.90
-38.40
-42.67
-47.39
-51.73
-54.49
-54.37
-50.48
-42.70
-31.79
-19.22
-6.65
4.52
13.43
19.80
23.81
25.83
26.35
25.88
24.88
23.78
22.90
22.46
22.59
23.31
24.52
26.01
27.45
28.46
28.72
28.14
26.83
25.05
23.05
20.99
18.80
16.34
13.52
10.38
7.14
4.11
1.54
-0.49
-2.05
-3.39
-4.78
-6.46
-8.59
-11.19
-14.14
-17.20
-20.10
-22.64
-24.78
-26.68
-28.61
-30.90
-33.77
-37.32
-41.40
-45.50
-48.82
-50.30
-48.89
-43.94
-35.51
-24.48
-12.28
-0.52
9.54
17.21
22.38
25.30
26.40
26.07
24.77
22.98
21.25
20.07
19.77
20.36
21.64
23.25
24.78
25.90
26.44
26.36
25.73
24.66
23.23
21.46
19.29
16.69
13.67
10.39
7.08
4.04
1.51
-0.42
-1.87
-3.09
-4.43
-6.20
-8.52
-11.32
-14.31
-17.13
-19.52
-21.40
-22.99
-24.64
-26.79
-29.78
-33.74
-38.45
-43.35
-47.52
-49.81
-49.10
-44.70
-36.61
-25.67
-13.37
-1.38
8.85
16.51
21.40
23.83
24.32
23.38
21.51
19.18
16.90
15.19
14.44
14.84
16.24
18.22
20.25
21.84
22.74
22.91
22.48
21.57
20.25
18.46
16.14
13.33
10.21
7.03
4.05
1.38
-1.03
-3.37
-5.79
-8.37
-11.01
-13.53
-15.77
-17.63
-19.13
-20.46
-21.93
-23.90
-26.75
-30.62
-35.28
-40.06
-43.84
-45.36
-43.61
-38.16
-29.40
-18.43
-6.79
4.04
12.92
19.28
23.02
24.36
23.72
21.60
18.56
15.22
12.24
10.22
9.51
10.15
11.83
14.02
16.13
17.69
18.45
18.37
17.54
16.11
14.20
11.86
9.12
5.96
2.42
-1.40
-5.29
-8.99
-12.22
-14.80
-16.75
-18.26
-19.64
-21.27
-23.47
-26.46
-30.28
-34.71
-39.22
-42.90
-44.68
-43.57
-38.98
-31.04
-20.58
-8.95
2.38
12.17
19.69
24.67
27.20
27.56
26.09
23.21
19.52
15.80
12.85
11.33
11.50
13.11
15.51
17.89
19.54
20.08
19.47
17.97
15.95
13.66
11.20
8.48
5.30
1.57
-2.64
-6.98
-10.99
-14.26
-16.65
-18.37
-19.93
-21.97
-25.01
-29.22
-34.36
-39.74
-44.29
-46.80
-46.17
-41.77
-33.68
-22.74
-10.38
1.81
12.48
20.76
26.35
29.35
30.09
29.02
26.67
23.67
20.76
18.64
17.79
18.32
19.95
22.09
24.04
25.26
25.46
24.66
23.08
21.02
18.67
16.05
13.04
9.51
5.40
0.87
-3.70
-7.88
-11.27
-13.73
-15.45
-16.92
-18.83
-21.77
-26.03
-31.38
-36.98
-41.55
-43.64
-42.11
-36.49
-27.15
-15.28
-2.51
9.55
19.66
27.16
31.94
34.26
34.59
33.41
31.21
28.54
25.98
24.12
23.42
24.00
25.57
27.48
28.95
29.32
28.36
26.28
23.60
20.85
18.34
16.00
13.47
10.38
6.56
2.15
-2.45
-6.73
-10.33
-13.10
-15.20
-16.94
-18.73
-20.97
-24.01
-27.99
-32.72
-37.58
-41.48
-43.12
-41.33
-35.56
-26.16
-14.37
-1.94
9.42
18.51
24.88
28.73
30.64
31.22
30.87
29.89
28.46
26.89
25.53
24.73
24.67
25.29
26.25
27.11
27.43
26.99
25.75
23.88
21.60
19.07
16.39
13.60
10.71
7.72
4.66
1.53
-1.66
-4.89
-8.10
-11.13
-13.83
-16.08
-17.91
-19.50
-21.21
-23.45
-26.55
-30.62
-35.38
-40.14
-43.82
-45.26
-43.49
-38.14
-29.62
-18.97
-7.65
2.97
11.90
18.68
23.31
26.07
27.31
27.36
26.53
25.20
23.81
22.81
22.53
23.03
24.14
25.45
26.51
26.99
26.75
25.90
24.64
23.18
21.59
19.82
17.71
15.12
12.05
8.69
5.34
2.41
0.14
-1.43
-2.58
-3.73
-5.33
-7.60
-10.48
-13.64
-16.66
-19.25
-21.32
-23.03
-24.70
-26.70
-29.32
-32.69
-36.70
-40.95
-44.67
-46.86
-46.49
-42.84
-35.86
-26.26
-15.36
-4.73
4.32
11.07
15.50
18.07
19.42
20.04
20.22
20.08
19.71
19.33
19.18
19.51
20.37
21.61
22.91
23.91
24.36
24.18
23.45
22.36
21.05
19.59
17.92
15.91
13.51
10.82
8.04
5.46
3.34
1.74
0.58
-0.39
-1.49
-2.98
-5.01
-7.60
-10.56
-13.63
-16.49
-18.93
-20.88
-22.43
-23.83
-25.39
-27.42
-30.16
-33.72
-37.93
-42.30
-45.97
-47.89
-47.08
-43.00
-35.80
-26.35
-16.01
-6.19
2.03
8.12
12.16
14.55
15.84
16.49
16.83
17.08
17.37
17.80
18.44
19.25
20.17
21.06
21.77
22.20
22.26
21.93
21.24
20.25
19.04
17.73
16.38
15.00
13.56
11.96
10.12
8.04
5.79
3.52
1.38
-0.54
-2.25
-3.90
-5.63
-7.59
-9.79
-12.13
-14.50
-16.77
-18.94
-21.03
-23.10
-25.19
-27.34
-29.62
-32.19
-35.22
-38.80
-42.73
-46.43
-48.99
-49.36
-46.74
-40.87
-32.19
-21.82
-11.19
-1.67
5.81
10.99
14.12
15.78
16.55
16.84
16.87
16.79
16.79
17.14
18.03
19.53
21.45
23.39
24.92
25.76
25.84
25.32
24.45
23.40
22.26
20.98
19.45
17.62
15.53
13.27
10.93
8.61
6.34
4.17
2.15
0.30
-1.36
-2.91
-4.52
-6.41
-8.74
-11.54
-14.66
-17.84
-20.78
-23.26
-25.25
-26.92
-28.63
-30.82
-33.88
-37.98
-42.90
-47.93
-52.01
-53.90
-52.60
-47.66
-39.36
-28.65
-16.92
-5.64
4.03
11.41
16.35
19.14
20.34
20.53
20.26
19.91
19.78
20.04
20.82
22.12
23.80
25.62
27.25
28.46
29.14
29.34
29.16
28.66
27.81
26.58
24.95
23.00
20.87
18.66
16.40
14.04
11.58
9.07
6.68
4.54
2.71
1.08
-0.58
-2.54
-4.94
-7.76
-10.88
-14.11
-17.23
-20.10
-22.64
-24.90
-27.04
-29.35
-32.18
-35.81
-40.30
-45.27
-49.93
-53.11
-53.61
-50.51
-43.53
-33.20
-20.79
-7.95
3.72
13.05
19.59
23.44
25.13
25.27
24.48
23.24
22.02
21.20
21.08
21.75
23.11
24.89
26.78
28.50
29.88
30.82
31.27
31.20
30.58
29.43
27.81
25.77
23.38
20.67
17.69
14.54
11.39
8.42
5.79
3.58
1.76
0.19
-1.35
-3.08
-5.18
-7.71
-10.64
-13.78
-16.88
-19.72
-22.15
-24.19
-26.02
-27.99
-30.54
-34.03
-38.61
-43.98
-49.26
-53.17
-54.28
-51.50
-44.52
-33.91
-21.04
-7.64
4.66
14.72
21.99
26.45
28.36
28.17
26.40
23.64
20.59
18.01
16.51
16.49
17.94
20.48
23.47
26.24
28.32
29.51
29.89
29.67
29.04
28.03
26.52
24.38
21.51
17.99
14.09
10.19
6.64
3.68
1.35
-0.55
-2.32
-4.30
-6.71
-9.58
-12.74
-15.88
-18.69
-20.98
-22.80
-24.43
-26.29
-28.85
-32.39
-36.89
-41.92
-46.60
-49.79
-50.31
-47.29
-40.46
-30.25
-17.77
-4.53
7.92
18.28
25.79
30.21
31.77
30.98
28.54
25.12
21.40
18.01
15.47
14.18
14.33
15.83
18.33
21.31
24.22
26.56
27.97
28.28
27.44
25.57
22.80
19.37
15.55
11.59
7.73
4.17
0.99
-1.87
-4.60
-7.43
-10.52
-13.87
-17.28
-20.40
-22.93
-24.75
-26.09
-27.45
-29.48
-32.74
-37.40
-43.07
-48.71
-52.85
-53.99
-51.01
-43.58
-32.33
-18.67
-4.43
8.65
19.30
26.82
31.09
32.38
31.18
28.12
23.97
19.57
15.76
13.26
12.52
13.54
15.94
19.02
22.02
24.27
25.38
25.26
24.04
22.03
19.51
16.69
13.65
10.33
6.62
2.44
-2.17
-7.00
-11.69
-15.84
-19.16
-21.55
-23.25
-24.68
-26.40
-28.94
-32.63
-37.48
-43.03
-48.37
-52.17
-53.02
-49.81
-42.15
-30.59
-16.58
-2.04
11.15
21.65
28.81
32.67
33.66
32.39
29.48
25.62
21.60
18.24
16.30
16.19
17.86
20.71
23.86
26.36
27.62
27.47
26.18
24.22
22.02
19.72
17.21
14.18
10.38
5.77
0.54
-4.85
-9.91
-14.26
-17.73
-20.44
-22.70
-24.97
-27.72
-31.33
-35.93
-41.30
-46.71
-50.99
-52.69
-50.55
-43.89
-33.00
-19.12
-4.12
10.04
21.84
30.50
35.90
38.38
38.45
36.63
33.48
29.67
26.01
23.31
22.13
22.62
24.43
26.84
29.01
30.27
30.29
29.11
27.07
24.55
21.85
19.01
15.86
12.14
7.71
2.61
-2.81
-8.04
-12.59
-16.18
-18.84
-20.93
-22.97
-25.56
-29.11
-33.79
-39.33
-44.99
-49.59
-51.73
-50.12
-44.03
-33.61
-19.97
-4.91
9.57
21.85
30.99
36.88
39.92
40.78
40.07
38.26
35.78
33.08
30.72
29.25
29.01
29.94
31.61
33.33
34.41
34.40
33.20
30.99
28.11
24.91
21.62
18.30
14.89
11.23
7.20
2.77
-1.89
-6.50
-10.77
-14.45
-17.46
-19.92
-22.07
-24.29
-26.99
-30.58
-35.26
-40.86
-46.73
-51.65
-54.15
-52.87
-47.02
-36.75
-23.16
-8.03
6.67
19.26
28.79
35.02
38.33
39.38
38.86
37.35
35.32
33.27
31.66
30.89
31.11
32.11
33.40
34.42
34.76
34.35
33.33
31.92
30.24
28.20
25.61
22.37
18.55
14.42
10.35
6.68
3.54
0.87
-1.65
-4.36
-7.51
-11.17
-15.11
-18.96
-22.35
-25.05
-27.13
-28.88
-30.78
-33.36
-37.07
-42.02
-47.86
-53.59
-57.69
-58.48
-54.66
-45.91
-33.04
-17.85
-2.54
10.96
21.47
28.71
33.08
35.30
36.03
35.77
34.86
33.57
32.27
31.33
31.09
31.62
32.72
33.89
34.63
34.61
33.78
32.39
30.75
29.10
27.45
25.64
23.44
20.69
17.37
13.58
9.54
5.51
1.77
-1.43
-3.96
-5.91
-7.53
-9.17
-11.16
-13.62
-16.49
-19.52
-22.46
-25.11
-27.43
-29.54
-31.68
-34.21
-37.48
-41.73
-46.86
-52.31
-57.03
-59.66
-58.88
-53.88
-44.70
-32.30
-18.35
-4.69
7.14
16.25
22.52
26.34
28.34
29.11
29.07
28.50
27.70
26.94
26.52
26.66
27.38
28.51
29.71
30.60
30.87
30.37
29.14
27.39
25.37
23.31
21.28
19.25
17.10
14.74
12.16
9.43
6.65
3.89
1.18
-1.45
-3.93
-6.18
-8.16
-9.93
-11.67
-13.64
-16.01
-18.80
-21.84
-24.85
-27.63
-30.11
-32.43
-34.89
-37.83
-41.49
-45.83
-50.44
-54.52
-56.97
-56.71
-53.00
-45.71
-35.44
-23.36
-10.96
0.38
9.69
16.56
21.09
23.74
25.08
25.57
25.56
25.23
24.76
24.36
24.27
24.67
25.59
26.86
28.15
29.07
29.40
29.02
28.00
26.46
24.55
22.36
19.95
17.40
14.76
12.12
9.54
7.07
4.69
2.40
0.16
-2.03
-4.15
-6.20
-8.18
-10.15
-12.19
-14.41
-16.85
-19.46
-22.11
-24.66
-27.00
-29.17
-31.32
-33.68
-36.52
-40.05
-44.31
-49.03
-53.56
-56.87
-57.80
-55.35
-49.10
-39.44
-27.50
-14.85
-3.04
6.82
14.21
19.17
22.11
23.52
23.84
23.43
22.61
21.74
21.19
21.30
22.24
23.90
25.91
27.75
28.98
29.37
29.00
28.12
26.98
25.66
24.11
22.21
19.90
17.32
14.68
12.20
9.98
7.97
6.01
3.96
1.75
-0.56
-2.84
-4.95
-6.83
-8.53
-10.24
-12.19
-14.53
-17.25
-20.15
-22.97
-25.50
-27.67
-29.69
-31.88
-34.63
-38.20
-42.62
-47.55
-52.25
-55.65
-56.53
-53.89
-47.35
-37.28
-24.88
-11.77
0.46
10.63
18.19
23.15
25.87
26.83
26.49
25.27
23.63
22.04
20.98
20.81
21.66
23.40
25.68
27.97
29.80
30.85
31.01
30.38
29.16
27.56
25.68
23.55
21.20
18.63
15.94
13.21
10.56
8.03
5.63
3.34
1.10
-1.11
-3.32
-5.59
-7.95
-10.40
-12.95
-15.52
-18.03
-20.39
-22.50
-24.38
-26.17
-28.13
-30.63
-34.01
-38.37
-43.46
-48.55
-52.55
-54.23
-52.54
-46.97
-37.74
-25.77
-12.54
0.37
11.58
20.20
25.89
28.77
29.20
27.71
24.89
21.44
18.12
15.70
14.77
15.54
17.75
20.77
23.77
26.08
27.32
27.54
27.05
26.18
25.05
23.59
21.52
18.66
15.08
11.10
7.21
3.86
1.28
-0.61
-2.09
-3.55
-5.29
-7.47
-10.05
-12.84
-15.59
-18.10
-20.26
-22.13
-23.97
-26.14
-29.04
-32.90
-37.60
-42.53
-46.64
-48.64
-47.37
-42.22
-33.35
-21.77
-9.04
3.18
13.51
21.15
25.85
27.78
27.34
25.01
21.39
17.17
13.16
10.11
8.59
8.78
10.46
13.07
15.93
18.42
20.14
20.89
20.69
19.65
17.94
15.71
13.10
10.15
6.87
3.25
-0.69
-4.79
-8.83
-12.53
-15.67
-18.20
-20.22
-21.99
-23.86
-26.15
-29.16
-33.00
-37.48
-42.10
-45.93
-47.84
-46.77
-42.08
-33.87
-22.97
-10.77
1.20
11.61
19.66
25.01
27.69
27.94
26.14
22.78
18.59
14.44
11.26
9.71
10.05
11.99
14.83
17.70
19.86
20.93
20.89
20.01
18.61
16.89
14.82
12.21
8.84
4.64
-0.19
-5.28
-10.16
-14.41
-17.83
-20.47
-22.61
-24.66
-27.09
-30.28
-34.39
-39.18
-43.94
-47.52
-48.62
-46.17
-39.72
-29.68
-17.21
-3.94
8.53
18.94
26.63
31.40
33.43
33.10
30.90
27.49
23.69
20.38
18.33
17.98
19.22
21.47
23.89
25.67
26.35
25.91
24.67
23.02
21.23
19.21
16.68
13.36
9.14
4.23
-0.90
-5.70
-9.77
-12.98
-15.50
-17.73
-20.19
-23.35
-27.48
-32.48
-37.81
-42.43
-45.02
-44.33
-39.63
-31.00
-19.43
-6.49
6.10
16.93
25.24
30.87
34.10
35.39
35.14
33.73
31.55
29.09
26.92
25.57
25.38
26.31
27.92
29.53
30.44
30.24
28.95
26.89
24.54
22.21
19.92
17.38
14.23
10.26
5.59
0.63
-4.05
-7.98
-10.98
-13.22
-15.18
-17.44
-20.55
-24.80
-30.13
-36.00
-41.44
-45.19
-45.98
-42.91
-35.78
-25.22
-12.59
0.38
12.07
21.38
27.93
31.93
33.95
34.62
34.44
33.73
32.70
31.57
30.58
29.95
29.81
30.14
30.72
31.22
31.31
30.74
29.44
27.49
25.11
22.54
19.94
17.38
14.75
11.89
8.65
4.95
0.92
-3.20
-7.08
-10.49
-13.31
-15.58
-17.49
-19.24
-21.09
-23.30
-26.14
-29.81
-34.31
-39.24
-43.70
-46.47
-46.28
-42.32
-34.57
-23.91
-11.85
-0.10
9.97
17.67
22.99
26.39
28.48
29.70
30.28
30.29
29.82
29.07
28.35
27.95
28.06
28.62
29.40
30.08
30.40
30.25
29.63
28.62
27.28
25.61
23.57
21.14
18.33
15.30
12.23
9.35
6.82
4.66
2.83
1.22
-0.26
-1.69
-3.20
-4.94
-7.07
-9.73
-12.86
-16.22
-19.48
-22.31
-24.60
-26.42
-28.06
-29.88
-32.21
-35.26
-39.08
-43.40
-47.65
-50.89
-52.02
-50.08
-44.69
-36.22
-25.79
-14.93
-5.05
2.95
8.81
12.86
15.65
17.67
19.19
20.26
20.88
21.12
21.17
21.25
21.54
22.09
22.81
23.58
24.29
24.85
25.20
25.29
25.02
24.27
22.98
21.16
18.91
16.40
13.83
11.37
9.13
7.15
5.38
3.70
2.04
0.33
-1.43
-3.17
-4.87
-6.53
-8.24
-10.13
-12.28
-14.69
-17.24
-19.74
-21.99
-23.87
-25.40
-26.70
-28.03
-29.67
-31.90
-34.85
-38.43
-42.15
-45.21
-46.59
-45.39
-41.22
-34.35
-25.67
-16.46
-7.88
-0.76
4.63
8.40
10.87
12.39
13.27
13.74
14.04
14.37
14.90
15.67
16.64
17.70
18.68
19.47
20.01
20.32
20.42
20.35
20.06
19.47
18.43
16.90
14.94
12.74
10.54
8.57
6.95
5.67
4.59
3.56
2.46
1.22
-0.21
-1.83
-3.64
-5.59
-7.63
-9.70
-11.78
-13.89
-16.05
-18.26
-20.44
-22.52
-24.42
-26.19
-28.04
-30.27
-33.13
-36.62
-40.38
-43.63
-45.41
-44.85
-41.49
-35.47
-27.53
-18.78
-10.37
-3.13
2.54
6.66
9.48
11.31
12.39
12.89
12.95
12.75
12.55
12.62
13.14
14.18
15.61
17.21
18.70
19.83
20.45
20.52
20.11
19.35
18.39
17.31
16.14
14.80
13.22
11.39
9.38
7.37
5.58
4.16
3.10
2.23
1.30
0.05
-1.68
-3.90
-6.50
-9.26
-11.95
-14.37
-16.40
-18.06
-19.51
-21.02
-22.89
-25.37
-28.59
-32.40
-36.44
-40.08
-42.50
-42.97
-40.94
-36.32
-29.45
-21.11
-12.24
-3.80
3.47
9.11
12.93
14.96
15.45
14.76
13.38
11.83
10.60
10.04
10.33
11.45
13.21
15.33
17.43
19.21
20.45
21.07
21.08
20.53
19.47
17.93
15.93
13.58
11.06
8.57
6.31
4.37
2.67
1.05
-0.67
-2.62
-4.81
-7.17
-9.55
-11.83
-13.89
-15.70
-17.32
-18.93
-20.81
-23.26
-26.45
-30.27
-34.20
-37.39
-38.86
-37.78
-33.77
-27.11
-18.60
-9.39
-0.63
6.84
12.54
16.34
18.32
18.68
17.73
15.87
13.63
11.54
10.11
9.62
10.16
11.60
13.64
15.89
17.91
19.34
19.88
19.44
18.15
16.28
14.14
11.95
9.75
7.46
4.92
2.05
-1.11
-4.41
-7.63
-10.58
-13.12
-15.23
-17.01
-18.65
-20.43
-22.65
-25.61
-29.39
-33.75
-38.09
-41.50
-42.96
-41.70
-37.36
-30.18
-20.91
-10.60
-0.42
8.63
15.80
20.69
23.23
23.62
22.27
19.76
16.75
13.90
11.79
10.86
11.31
13.01
15.51
18.14
20.22
21.29
21.23
20.25
18.74
17.00
15.11
12.93
10.23
6.88
2.94
-1.29
-5.46
-9.22
-12.41
-15.01
-17.17
-19.13
-21.21
-23.78
-27.15
-31.37
-36.12
-40.60
-43.68
-44.18
-41.29
-34.84
-25.41
-14.18
-2.56
8.19
17.15
23.84
28.11
30.05
29.92
28.14
25.32
22.20
19.54
17.97
17.77
18.87
20.82
23.00
24.82
25.87
26.04
25.44
24.29
22.72
20.72
18.17
14.92
10.99
6.56
1.94
-2.54
-6.60
-10.13
-13.10
-15.60
-17.82
-20.07
-22.76
-26.25
-30.69
-35.76
-40.65
-44.18
-45.04
-42.27
-35.58
-25.50
-13.28
-0.52
11.25
20.93
28.00
32.43
34.50
34.65
33.32
31.01
28.30
25.82
24.12
23.62
24.35
26.05
28.16
30.03
31.14
31.17
30.14
28.32
26.08
23.67
21.16
18.35
14.97
10.80
5.92
0.68
-4.40
-8.84
-12.41
-15.18
-17.49
-19.77
-22.45
-25.83
-30.06
-35.00
-40.20
-44.78
-47.59
-47.40
-43.34
-35.22
-23.74
-10.29
3.36
15.53
25.09
31.54
35.00
36.00
35.22
33.36
31.02
28.71
26.87
25.79
25.63
26.32
27.61
29.10
30.32
30.92
30.67
29.55
27.68
25.27
22.50
19.48
16.26
12.86
9.30
5.60
1.82
-1.97
-5.70
-9.29
-12.65
-15.71
-18.40
-20.76
-22.94
-25.24
-28.05
-31.72
-36.39
-41.73
-46.91
-50.63
-51.50
-48.43
-41.09
-30.08
-16.81
-3.08
9.42
19.54
26.81
31.32
33.49
33.82
32.78
30.83
28.47
26.29
24.85
24.50
25.26
26.80
28.57
30.03
30.84
30.93
30.42
29.49
28.20
26.46
24.08
20.93
17.08
12.83
8.62
4.89
1.85
-0.56
-2.69
-4.96
-7.68
-10.88
-14.38
-17.85
-20.98
-23.64
-25.88
-27.93
-30.15
-32.94
-36.68
-41.50
-47.14
-52.73
-56.94
-58.26
-55.47
-48.14
-36.81
-22.94
-8.43
4.89
15.70
23.40
28.03
30.08
30.21
29.05
27.19
25.18
23.51
22.60
22.71
23.83
25.66
27.67
29.32
30.20
30.22
29.53
28.42
27.14
25.77
24.21
22.22
19.62
16.33
12.53
8.54
4.80
1.63
-0.83
-2.75
-4.48
-6.44
-8.94
-12.03
-15.50
-18.98
-22.08
-24.60
-26.56
-28.19
-29.85
-31.94
-34.83
-38.76
-43.69
-49.14
-54.17
-57.50
-57.76
-53.99
-45.95
-34.32
-20.55
-6.45
6.30
16.54
23.80
28.24
30.40
30.86
30.16
28.72
26.92
25.21
24.05
23.77
24.48
25.95
27.73
29.30
30.30
30.60
30.29
29.54
28.43
26.96
25.03
22.62
19.73
16.48
13.03
9.55
6.19
3.11
0.44
-1.75
-3.52
-5.06
-6.68
-8.63
-11.07
-13.99
-17.18
-20.40
-23.42
-26.16
-28.64
-30.99
-33.45
-36.32
-39.89
-44.29
-49.30
-54.21
-57.89
-59.00
-56.43
-49.71
-39.26
-26.27
-12.42
0.64
11.65
19.95
25.48
28.57
29.72
29.46
28.24
26.48
24.63
23.12
22.35
22.54
23.69
25.52
27.60
29.45
30.69
31.12
30.75
29.72
28.24
26.46
24.48
22.26
19.72
16.76
13.40
9.74
6.04
2.59
-0.38
-2.79
-4.78
-6.60
-8.60
-10.99
-13.76
-16.73
-19.66
-22.31
-24.69
-26.91
-29.23
-31.86
-34.97
-38.68
-43.01
-47.80
-52.56
-56.38
-58.06
-56.40
-50.67
-40.98
-28.35
-14.40
-0.88
10.81
19.89
26.16
29.81
31.23
30.83
29.13
26.71
24.21
22.25
21.26
21.40
22.58
24.42
26.50
28.38
29.74
30.42
30.43
29.85
28.77
27.24
25.22
22.68
19.61
16.11
12.40
8.74
5.37
2.41
-0.13
-2.42
-4.65
-7.03
-9.68
-12.57
-15.54
-18.39
-20.99
-23.30
-25.49
-27.78
-30.48
-33.87
-38.11
-43.14
-48.53
-53.46
-56.75
-57.15
-53.70
-46.11
-34.92
-21.39
-7.20
6.04
17.10
25.30
30.49
32.85
32.81
30.90
27.78
24.16
20.80
18.40
17.41
17.96
19.80
22.40
25.12
27.42
28.94
29.58
29.40
28.47
26.84
24.53
21.58
18.12
14.35
10.54
6.95
3.72
0.87
-1.74
-4.35
-7.17
-10.32
-13.72
-17.14
-20.24
-22.79
-24.76
-26.41
-28.18
-30.58
-34.00
-38.49
-43.66
-48.66
-52.30
-53.26
-50.53
-43.70
-33.18
-20.17
-6.34
6.63
17.39
25.21
29.88
31.66
31.00
28.47
24.69
20.40
16.35
13.29
11.74
11.94
13.72
16.55
19.75
22.62
24.66
25.64
25.54
24.48
22.62
20.06
16.91
13.30
9.39
5.39
1.47
-2.27
-5.80
-9.14
-12.29
-15.18
-17.73
-19.87
-21.69
-23.43
-25.49
-28.30
-32.11
-36.81
-41.78
-46.00
-48.23
-47.34
-42.67
-34.25
-22.87
-9.89
3.07
14.49
23.30
29.00
31.60
31.49
29.26
25.57
21.12
16.71
13.11
11.01
10.81
12.43
15.30
18.55
21.28
22.84
23.01
22.00
20.22
18.06
15.71
13.10
9.99
6.19
1.73
-3.11
-7.88
-12.11
-15.50
-18.02
-19.90
-21.54
-23.41
-25.92
-29.33
-33.67
-38.62
-43.40
-46.87
-47.74
-44.97
-38.18
-27.87
-15.31
-2.19
9.87
19.69
26.67
30.76
32.18
31.33
28.71
24.91
20.68
16.84
14.11
12.94
13.36
15.05
17.39
19.71
21.47
22.35
22.33
21.55
20.17
18.26
15.72
12.42
8.25
3.28
-2.15
-7.54
-12.37
-16.28
-19.22
-21.44
-23.44
-25.77
-28.89
-33.00
-37.89
-42.88
-46.89
-48.62
-46.92
-41.18
-31.60
-19.21
-5.60
7.48
18.61
26.90
32.08
34.35
34.14
32.02
28.63
24.72
21.07
18.43
17.31
17.83
19.64
22.02
24.17
25.45
25.58
24.68
23.09
21.14
18.96
16.45
13.35
9.43
4.74
-0.44
-5.60
-10.25
-14.04
-16.93
-19.16
-21.18
-23.54
-26.68
-30.83
-35.80
-40.98
-45.31
-47.52
-46.49
-41.55
-32.79
-21.06
-7.82
5.29
16.83
25.81
31.81
34.93
35.55
34.26
31.70
28.53
25.44
23.05
21.83
21.94
23.17
25.01
26.73
27.74
27.68
26.61
24.83
22.74
20.57
18.29
15.63
12.29
8.13
3.31
-1.76
-6.54
-10.56
-13.63
-15.80
-17.41
-18.95
-20.98
-24.02
-28.37
-33.87
-39.75
-44.75
-47.28
-46.03
-40.40
-30.78
-18.45
-5.17
7.34
17.82
25.61
30.60
33.07
33.46
32.32
30.26
27.90
25.80
24.39
23.87
24.21
25.18
26.44
27.63
