1624287873.00
64.000000
-0.00
-0.00
-0.00
-0.00
-0.00
-0.00
-0.00
-0.00
-0.00
-0.00
0.00
0.01
0.01
-0.00
-0.03
-0.05
-0.05
0.00
0.13
0.36
0.66
1.01
1.37
1.72
2.06
2.40
2.79
3.24
3.80
4.42
5.06
5.66
6.20
6.68
7.15
7.68
8.31
9.14
10.09
11.04
11.88
12.56
13.14
13.76
14.65
15.96
17.91
20.32
22.90
25.38
27.58
29.57
31.68
34.32
37.81
42.54
48.15
54.10
59.83
64.97
69.58
74.14
79.34
85.71
93.76
103.00
112.62
121.73
129.77
136.75
143.30
150.75
157.77
166.64
177.95
191.79
206.97
220.57
228.25
225.36
208.53
176.87
132.76
80.05
23.07
-34.94
-92.44
-149.16
-205.23
-260.37
-313.74
-363.87
-409.83
-450.91
-486.50
-515.74
-537.23
-549.22
-549.96
-538.37
-514.21
-478.67
-433.88
-382.45
-327.02
-269.84
-212.63
-156.66
-102.95
-52.37
-5.90
35.58
71.43
101.35
125.50
144.38
158.69
169.15
176.37
180.75
182.57
182.07
179.51
175.23
169.65
163.18
156.15
148.81
141.30
133.69
126.02
118.33
110.69
103.16
95.80
88.68
81.83
75.25
68.95
62.95
57.25
51.86
46.78
42.03
37.59
33.45
29.61
26.07
22.81
19.83
17.11
14.67
12.48
10.54
8.83
7.35
6.07
4.97
4.05
3.27
2.62
2.09
1.65
1.30
1.01
0.79
0.61
0.48
0.37
0.29
0.22
0.18
0.14
0.11
0.09
0.08
0.07
0.06
0.05
0.05
0.04
0.04
0.04
0.05
0.06
0.07
0.08
0.10
0.13
0.16
0.18
0.22
0.25
0.29
0.33
0.37
0.41
0.46
0.50
0.55
0.60
0.66
0.73
0.79
0.87
0.94
1.03
1.13
1.24
1.35
1.49
1.63
1.80
1.98
2.18
2.40
2.65
2.92
3.22
3.55
3.91
4.29
4.72
5.19
5.71
6.27
6.86
7.45
8.04
8.61
9.21
9.87
10.61
11.46
12.39
13.40
14.45
15.51
16.57
17.63
18.71
19.82
20.88
21.78
22.36
22.41
21.78
20.41
18.34
15.69
12.65
9.35
5.88
2.28
-1.48
-5.37
-9.28
-12.95
-16.08
-18.39
-19.81
-20.53
-20.95
-21.56
-22.68
-24.35
-26.22
-27.76
-28.41
-27.93
-26.52
-24.80
-23.54
-23.28
-24.10
-25.52
-26.73
-27.08
-26.21
-24.38
-22.32
-20.79
-20.44
-21.75
-24.92
-29.82
-35.48
-39.88
-40.19
-33.84
-19.73
0.76
23.90
44.97
60.13
67.97
69.67
67.98
65.45
63.49
62.11
60.78
59.25
57.97
57.81
59.32
62.25
65.56
68.07
69.05
68.55
67.23
65.89
64.96
64.06
63.16
61.42
58.06
52.79
45.95
38.33
30.86
24.25
18.79
14.33
10.25
5.86
0.61
-5.80
-13.35
-21.72
-30.36
-38.60
-45.83
-51.85
-56.83
-61.37
-66.26
-72.17
-79.30
-87.19
-94.58
-99.73
-100.84
-96.55
-86.32
-70.73
-51.27
-30.06
-9.27
9.31
24.47
35.60
42.63
45.86
45.87
43.49
39.67
35.38
31.38
28.07
25.39
22.95
20.23
16.90
12.92
8.63
4.68
1.70
0.10
-0.17
0.35
0.83
0.46
-1.25
-4.29
-8.21
-12.44
-16.50
-20.28
-24.01
-28.01
-32.49
-37.24
-41.74
-45.30
-47.45
-48.14
-47.83
-47.38
-47.76
-49.81
-53.92
-59.91
-66.96
-73.69
-78.34
-79.15
-74.76
-64.73
-49.69
-31.38
-12.13
5.75
20.63
31.93
40.07
46.09
51.05
55.64
59.97
63.68
66.28
67.35
66.65
64.18
60.09
54.75
48.66
42.54
37.07
32.76
29.74
27.68
25.99
23.99
21.15
17.27
12.45
7.00
1.31
-4.28
-9.52
-14.31
-18.57
-22.32
-25.65
-28.80
-32.18
-36.29
-41.65
-48.53
-56.95
-66.55
-76.66
-86.36
-94.42
-99.46
-100.10
-95.31
-84.79
-69.23
-50.27
-30.12
-11.02
5.28
17.80
26.36
31.42
33.81
34.42
33.96
32.84
31.16
28.88
25.99
22.71
19.47
16.79
15.03
14.23
14.19
14.53
14.92
15.16
15.24
15.13
14.76
13.87
12.14
9.26
5.08
-0.33
-6.73
-13.73
-20.97
-28.16
-35.10
-41.69
-48.00
-54.23
-60.84
-68.38
-77.26
-87.36
-97.70
-106.43
-111.19
-109.83
-101.15
-85.38
-64.18
-40.17
-16.17
5.55
23.64
37.74
48.22
55.68
60.73
63.73
64.85
64.26
62.20
59.12
55.56
51.97
48.59
45.45
42.49
39.69
37.20
35.24
34.03
33.62
33.78
34.02
33.65
31.95
28.35
22.64
15.03
6.18
-3.07
-11.97
-20.19
-27.88
-35.58
-43.94
-53.45
-64.28
-76.08
-88.07
-98.88
-106.77
-109.81
-106.32
-95.42
-77.46
-54.04
-27.75
-1.48
22.28
41.94
57.01
67.80
75.06
79.47
81.47
81.23
78.89
74.76
69.43
63.67
58.23
53.62
50.04
47.48
45.78
44.78
44.27
43.97
43.54
42.62
40.93
38.31
34.72
30.12
24.48
17.77
10.10
1.75
-6.83
-15.15
-22.84
-29.86
-36.50
-43.32
-51.01
-60.22
-71.17
-83.39
-95.52
-105.38
-110.36
-108.23
-97.85
-79.68
-55.75
-29.07
-2.75
20.73
39.98
54.66
65.06
71.76
75.29
76.09
74.59
71.33
66.99
62.23
57.62
53.54
50.14
47.45
45.44
43.99
42.96
42.11
41.18
39.86
37.89
35.10
31.45
27.03
22.02
16.62
10.98
5.14
-1.00
-7.57
-14.64
-22.06
-29.52
-36.59
-43.01
-48.79
-54.32
-60.28
-67.45
-76.38
-87.07
-98.70
-109.54
-117.25
-119.32
-113.85
-100.16
-79.15
-53.03
-24.81
2.57
26.86
46.84
62.16
73.03
79.85
83.05
83.15
80.82
76.94
72.47
68.22
64.73
62.13
60.26
58.81
57.54
56.43
55.64
55.44
55.93
56.92
57.79
57.75
55.99
52.16
46.49
39.74
32.89
26.73
21.57
17.14
12.83
7.95
2.08
-4.84
-12.44
-20.10
-27.15
-33.12
-37.89
-41.80
-45.63
-50.34
-56.78
-65.33
-75.63
-86.49
-96.01
-101.91
-102.03
-94.95
-80.43
-59.59
-34.74
-8.76
15.59
36.29
52.27
63.36
69.97
72.76
72.52
70.01
66.09
61.49
56.80
52.38
48.39
44.88
41.94
39.66
38.15
37.42
37.40
37.83
38.47
39.02
39.16
38.61
37.14
34.58
30.94
26.25
20.71
14.61
8.35
2.41
-2.77
-6.97
-10.34
-13.30
-16.45
-20.22
-24.65
-29.45
-34.14
-38.31
-41.82
-44.90
-48.05
-51.88
-56.94
-63.52
-71.45
-79.92
-87.45
-92.19
-92.29
-86.43
-74.23
-56.47
-35.00
-12.27
9.16
27.23
40.74
49.41
53.74
54.55
52.71
48.89
43.62
37.47
31.18
25.60
21.49
19.29
18.99
20.17
22.19
24.33
26.03
26.96
27.06
26.42
25.27
23.78
22.03
19.90
17.27
14.07
10.41
6.51
2.61
-1.18
-4.88
-8.69
-12.78
-17.22
-21.99
-26.89
-31.67
-36.09
-40.00
-43.53
-47.04
-51.12
-56.32
-63.00
-71.01
-79.60
-87.53
-93.15
-94.84
-91.29
-81.96
-67.27
-48.68
-28.30
-8.33
9.41
23.88
34.83
42.51
47.37
49.81
50.17
48.78
46.05
42.47
38.63
35.05
32.17
30.27
29.51
29.80
30.92
32.50
34.13
35.50
36.31
36.34
35.43
33.47
30.49
26.69
22.39
17.87
13.40
9.05
4.78
0.51
-3.87
-8.45
-13.30
-18.42
-23.76
-29.14
-34.31
-39.00
-43.07
-46.55
-49.64
-52.78
-56.51
-61.37
-67.72
-75.46
-83.84
-91.41
-96.24
-96.35
-90.35
-77.89
-59.89
-38.26
-15.54
5.83
23.99
37.90
47.33
52.64
54.47
53.51
50.40
45.75
40.17
34.38
29.04
24.72
21.76
20.30
20.17
21.12
22.79
24.87
27.11
29.31
31.26
32.64
32.98
31.80
28.76
23.91
17.74
11.17
5.19
0.48
-2.83
-5.24
-7.62
-10.76
-15.09
-20.47
-26.32
-31.90
-36.61
-40.25
-43.08
-45.75
-49.10
-53.95
-60.81
-69.61
-79.58
-89.20
-96.41
-99.06
-95.48
-85.06
-68.50
-47.67
-25.09
-3.25
15.99
31.60
43.25
51.12
55.45
56.59
54.90
51.05
45.93
40.62
36.11
33.05
31.67
31.77
32.87
34.41
35.96
37.31
38.44
39.43
40.29
40.88
40.87
39.91
37.71
34.27
29.72
24.41
18.73
13.08
7.76
3.01
-1.15
-4.90
-8.54
-12.37
-16.54
-21.04
-25.72
-30.42
-35.06
-39.62
-44.20
-48.97
-54.15
-60.06
-66.92
-74.68
-82.69
-89.62
-93.66
-92.98
-86.29
-73.34
-55.06
-33.32
-10.59
10.74
28.82
42.67
52.18
57.84
60.28
60.11
57.73
53.61
48.40
43.07
38.68
35.99
35.21
35.86
37.15
38.37
39.25
39.99
41.03
42.57
44.36
45.70
45.73
43.81
39.88
34.45
28.44
22.72
17.71
13.27
8.84
3.81
-2.15
-8.91
-15.95
-22.55
-28.19
-32.60
-35.87
-38.38
-40.71
-43.48
-47.30
-52.62
-59.63
-68.12
-77.30
-85.81
-91.79
-93.24
-88.50
-76.94
-59.29
-37.62
-14.71
6.78
25.04
39.42
50.09
57.45
61.74
62.94
61.11
56.72
50.76
44.59
39.48
36.18
34.73
34.72
35.55
36.74
38.13
39.77
41.72
43.86
45.70
46.47
45.34
41.79
35.94
28.59
20.93
14.10
8.69
4.56
0.96
-3.01
-8.07
-14.40
-21.57
-28.82
-35.34
-40.64
-44.71
-48.02
-51.49
-56.15
-62.82
-71.72
-82.27
-92.93
-101.46
-105.29
-102.35
-91.65
-73.79
-50.87
-25.89
-1.92
18.79
35.19
47.23
55.48
60.55
62.89
62.79
60.71
57.37
53.71
50.62
48.68
47.98
48.22
48.96
49.82
50.71
51.71
52.95
54.41
55.75
56.42
55.85
53.71
50.01
45.15
39.56
33.69
27.77
21.99
16.51
11.53
7.18
3.34
-0.37
-4.45
-9.30
-14.86
-20.74
-26.34
-31.20
-35.30
-39.02
-43.03
-47.98
-54.39
-62.40
-71.73
-81.47
-90.16
-95.88
-96.73
-91.32
-79.26
-61.44
-39.77
-16.76
5.22
24.44
40.07
52.01
60.54
65.88
68.09
67.22
63.53
57.78
51.20
45.20
40.96
39.05
39.29
40.98
43.23
45.18
46.33
46.45
45.56
43.86
41.64
39.22
36.82
34.60
32.49
30.32
27.87
24.82
20.99
16.29
10.86
4.94
-1.07
-6.90
-12.32
-17.33
-21.95
-26.29
-30.34
-34.14
-37.69
-41.05
-44.31
-47.59
-51.07
-55.07
-60.08
-66.64
-74.99
-84.68
-94.30
-101.67
-104.36
-100.38
-88.95
-70.75
-47.74
-22.69
1.60
22.84
39.66
51.60
58.96
62.39
62.69
60.59
56.84
52.22
47.60
43.77
41.31
40.39
40.83
42.15
43.89
45.73
47.48
49.06
50.24
50.66
49.91
47.68
43.99
39.25
34.08
29.16
24.91
21.34
18.11
14.79
11.04
6.86
2.52
-1.54
-5.07
-8.05
-10.79
-13.73
-17.29
-21.68
-26.77
-32.26
-37.68
-42.65
-46.97
-50.73
-54.30
-58.29
-63.36
-70.04
-78.52
-88.40
-98.58
-107.24
-112.11
-111.07
-102.77
-87.26
-66.09
-41.95
-17.90
3.55
21.02
34.32
44.07
51.10
55.98
58.89
59.80
58.75
56.06
52.43
48.69
45.60
43.65
42.93
43.31
44.50
46.26
48.41
50.78
53.08
54.84
55.49
54.59
52.01
48.02
43.17
38.07
33.23
28.90
25.08
21.60
18.28
14.92
11.43
7.80
4.10
0.48
-2.91
-5.97
-8.73
-11.35
-14.11
-17.34
-21.28
-25.99
-31.26
-36.67
-41.75
-46.13
-49.79
-53.11
-56.84
-61.82
-68.63
-77.25
-86.82
-95.68
-101.67
-102.64
-97.15
-84.89
-66.91
-45.30
-22.63
-1.27
17.16
31.82
42.69
50.04
54.28
55.77
54.93
52.30
48.64
44.75
41.34
38.85
37.35
36.75
36.92
37.80
39.34
41.46
43.86
46.07
47.52
47.75
46.53
43.97
40.40
36.28
32.07
28.05
24.31
20.71
16.98
12.84
8.15
2.98
-2.33
-7.32
-11.53
-14.75
-17.16
-19.25
-21.67
-24.91
-29.10
-33.94
-38.95
-43.73
-48.22
-52.72
-57.72
-63.73
-71.03
-79.62
-89.08
-98.43
-106.14
-110.21
-108.68
-100.27
-85.02
-64.39
-40.97
-17.71
3.00
19.80
32.48
41.55
47.76
51.66
53.56
53.60
52.05
49.41
46.42
43.84
42.27
41.89
42.55
43.87
45.47
47.15
48.85
50.50
51.93
52.81
52.72
51.41
48.91
45.56
41.90
38.41
35.31
32.51
29.72
26.62
23.03
18.98
14.57
9.99
5.35
0.71
-3.83
-8.14
-12.05
-15.49
-18.56
-21.62
-25.00
-28.95
-33.38
-37.91
-42.11
-45.75
-49.01
-52.45
-56.87
-62.96
-71.02
-80.69
-90.88
-99.79
-105.25
-105.15
-98.07
-83.81
-63.63
-39.90
-15.52
6.90
25.54
39.55
48.88
53.93
55.37
54.04
50.92
47.03
43.27
40.23
38.07
36.68
35.86
35.49
35.63
36.41
37.88
39.98
42.47
44.96
47.02
48.20
48.13
46.66
43.88
40.08
35.74
31.28
26.94
22.80
18.79
14.78
10.73
6.68
2.76
-0.90
-4.25
-7.34
-10.38
-13.62
-17.29
-21.45
-25.99
-30.66
-35.14
-39.20
-42.82
-46.23
-50.01
-54.90
-61.63
-70.51
-81.13
-92.08
-101.14
-105.75
-103.79
-94.27
-77.74
-56.13
-32.23
-8.87
11.70
28.27
40.50
48.77
53.68
55.83
55.75
53.94
50.95
47.41
43.93
41.02
39.00
37.96
37.90
38.68
40.14
42.10
44.31
46.49
48.28
49.32
49.29
47.98
45.38
41.68
37.24
32.59
28.19
24.32
20.95
17.84
14.60
10.91
6.62
1.88
-2.92
-7.30
-10.86
-13.47
-15.40
-17.24
-19.72
-23.40
-28.45
-34.57
-41.12
-47.40
-52.94
-57.73
-62.25
-67.28
-73.56
-81.44
-90.58
-99.77
-107.07
-110.26
-107.45
-97.71
-81.43
-60.30
-36.79
-13.51
7.42
24.77
38.10
47.60
53.66
56.67
56.96
54.95
51.24
46.70
42.29
38.86
36.90
36.45
37.19
38.59
40.21
41.72
43.04
44.14
44.97
45.36
45.10
44.01
42.10
39.51
36.51
33.33
30.05
26.56
22.56
17.80
12.21
6.04
-0.18
-5.83
-10.43
-13.92
-16.62
-19.09
-21.94
-25.44
-29.55
-33.87
-38.01
-41.68
-45.03
-48.53
-52.91
-58.91
-66.92
-76.73
-87.24
-96.59
-102.43
-102.57
-95.61
-81.48
-61.55
-38.27
-14.49
7.33
25.58
39.66
49.67
56.06
59.25
59.55
57.33
53.13
47.82
42.46
38.05
35.28
34.40
35.21
37.26
40.01
42.99
45.77
48.01
49.39
49.65
48.65
46.42
43.17
39.33
35.35
31.65
28.40
25.45
22.39
18.71
14.07
8.52
2.50
-3.30
-8.27
-12.19
-15.29
-18.18
-21.54
-25.79
-30.92
-36.53
-42.03
-46.96
-51.14
-54.83
-58.56
-63.06
-68.97
-76.67
-86.04
-96.21
-105.61
-112.07
-113.34
-107.73
-94.75
-75.35
-51.76
-26.90
-3.52
16.39
31.93
43.12
50.52
54.85
56.69
56.48
54.67
51.77
48.44
45.38
43.13
41.97
41.86
42.58
43.88
45.57
47.55
49.65
51.64
53.12
53.60
52.73
50.37
46.66
41.98
36.77
31.36
25.92
20.44
14.85
9.20
3.73
-1.25
-5.44
-8.78
-11.53
-14.22
-17.40
-21.49
-26.54
-32.25
-38.04
-43.27
-47.56
-50.90
-53.79
-57.08
-61.75
-68.56
-77.70
-88.52
-99.39
-108.02
-111.89
-109.02
-98.53
-81.07
-58.56
-33.76
-9.46
12.19
29.98
43.59
53.32
59.59
62.86
63.55
62.13
59.17
55.39
51.59
48.50
46.69
46.42
47.62
49.94
52.88
55.95
58.88
61.53
63.84
65.66
66.62
66.24
64.08
60.01
54.35
47.82
41.23
35.17
29.78
24.84
19.90
14.68
9.22
3.85
-1.02
-5.21
-8.89
-12.50
-16.56
-21.39
-26.97
-32.96
-38.86
-44.30
-49.10
-53.39
-57.54
-62.18
-68.00
-75.57
-85.00
-95.64
-105.93
-113.60
-116.22
-111.90
-100.02
-81.46
-58.43
-33.81
-10.35
9.99
26.32
38.67
47.63
53.86
57.76
59.58
59.40
57.50
54.43
50.98
47.99
46.05
45.42
46.02
47.65
50.09
53.19
56.69
60.19
63.03
64.48
64.00
61.47
57.21
51.90
46.29
40.94
36.10
31.67
27.39
22.93
18.05
12.72
7.11
1.56
-3.53
-7.87
-11.45
-14.52
-17.49
-20.78
-24.64
-29.09
-33.94
-38.95
-43.96
-49.05
-54.53
-60.90
-68.65
-77.92
-88.33
-98.71
-107.24
-111.68
-110.08
-101.26
-85.39
-64.04
-39.85
-15.75
5.76
23.23
36.43
45.91
52.56
56.99
59.45
59.95
58.57
55.78
52.38
49.27
47.12
46.20
46.42
47.48
49.15
51.35
54.03
57.01
59.89
62.03
62.80
61.77
58.90
54.53
49.30
43.88
38.74
34.12
29.98
26.09
22.17
17.99
13.46
8.68
3.88
-0.66
-4.71
-8.26
-11.52
-14.86
-18.67
-23.23
-28.53
-34.33
-40.18
-45.65
-50.52
-54.88
-59.14
-63.91
-69.88
-77.61
-87.34
-98.65
-110.35
-120.40
-126.24
-125.47
-116.59
-99.68
-76.54
-50.19
-23.98
-0.67
18.20
32.33
42.32
49.06
53.28
55.53
56.16
55.57
54.26
52.79
51.61
50.97
50.82
51.04
51.53
52.36
53.72
55.76
58.41
61.28
63.77
65.15
64.89
62.81
59.12
54.38
49.27
44.38
40.03
36.24
32.74
29.19
25.30
20.99
16.38
11.69
7.19
2.99
-0.86
-4.50
-8.04
-11.62
-15.29
-19.02
-22.78
-26.62
-30.65
-35.01
-39.79
-44.92
-50.26
-55.75
-61.54
-68.05
-75.74
-84.70
-94.30
-103.06
-108.88
-109.61
-103.73
-90.92
-72.19
-49.66
-25.97
-3.58
15.67
30.90
42.05
49.52
53.85
55.45
54.67
51.88
47.70
43.00
38.77
35.84
34.65
35.20
37.09
39.78
42.76
45.69
48.37
50.68
52.45
53.42
53.29
51.83
48.95
44.93
40.25
35.49
31.09
27.17
23.43
19.40
14.66
9.09
3.02
-2.98
-8.32
-12.71
-16.23
-19.31
-22.48
-26.18
-30.59
-35.63
-41.03
-46.44
-51.62
-56.52
-61.39
-66.72
-73.16
-81.29
-91.27
-102.56
-113.69
-122.40
-126.15
-122.77
-111.27
-92.31
-68.11
-41.82
-16.69
4.85
21.63
33.71
41.95
47.40
50.85
52.69
53.01
51.86
49.55
46.69
44.08
42.44
42.20
43.38
45.66
48.56
51.63
54.53
56.99
58.78
59.62
59.25
57.54
54.60
50.75
46.46
42.22
38.35
34.92
31.71
28.32
24.32
19.40
13.62
7.35
1.21
-4.16
-8.43
-11.71
-14.49
-17.47
-21.25
-26.05
-31.61
-37.34
-42.56
-46.83
-50.21
-53.27
-56.87
-61.98
-69.23
-78.73
-89.90
-101.40
-111.27
-117.21
-116.99
-109.21
-93.73
-72.04
-46.88
-21.55
1.09
19.26
32.55
41.55
47.27
50.64
52.28
52.56
51.74
50.19
48.31
46.49
45.06
44.26
44.28
45.23
47.12
49.76
52.81
55.84
58.35
59.98
60.41
59.49
57.18
53.63
49.12
44.08
38.92
33.88
29.01
24.17
19.19
13.96
8.59
3.29
-1.65
-6.08
-10.01
-13.70
-17.50
-21.69
-26.30
-31.09
-35.60
-39.44
-42.51
-45.16
-48.11
-52.19
-58.06
-65.97
-75.60
-86.04
-95.82
-103.05
-105.78
-102.39
-92.17
-75.61
-54.41
-31.06
-8.09
12.50
29.66
43.22
53.49
60.88
65.57
67.56
66.91
63.99
59.59
54.80
50.74
48.17
47.32
47.93
49.53
51.67
54.14
56.86
59.71
62.31
64.07
64.32
62.67
59.17
54.34
49.01
43.94
39.61
36.05
32.90
29.56
25.48
20.33
14.21
7.56
1.04
-4.68
-9.19
-12.40
-14.59
-16.27
-18.05
-20.50
-23.99
-28.63
-34.20
-40.26
-46.28
-51.87
-56.99
-61.98
-67.53
-74.43
-83.24
-94.00
-105.94
-117.41
-126.10
-129.49
-125.69
-114.00
-95.33
-71.92
-46.73
-22.51
-1.24
16.15
29.58
39.39
46.07
50.05
51.80
51.86
50.91
49.67
48.79
48.67
49.50
51.21
53.59
56.39
59.31
62.14
64.67
66.70
67.97
68.18
66.96
64.08
59.57
53.78
47.36
41.03
35.34
30.53
26.48
22.86
19.29
15.53
11.48
7.13
2.56
-2.15
-6.90
-11.56
-15.96
-20.02
-23.83
-27.63
-31.85
-36.81
-42.59
-48.89
-55.14
-60.76
-65.48
-69.54
-73.61
-78.61
-85.32
-94.05
-104.47
-115.44
-125.12
-131.15
-131.20
-123.63
-108.12
-85.97
-59.84
-32.98
-8.30
12.36
28.40
40.19
48.53
54.09
57.30
58.41
57.73
55.79
53.30
51.03
49.59
49.27
50.03
51.71
54.07
56.88
59.94
62.97
65.47
66.88
66.67
64.57
60.74
55.71
50.26
45.10
40.73
37.29
34.59
32.31
30.04
27.49
24.52
21.13
17.44
13.53
9.52
5.48
1.57
-2.04
-5.17
-7.80
-10.10
-12.47
-15.38
-19.23
-24.16
-29.99
-36.28
-42.45
-48.09
-53.07
-57.62
-62.27
-67.69
-74.42
-82.67
-92.00
-101.33
-108.92
-112.70
-110.72
-101.75
-85.83
-64.43
-40.18
-16.12
5.16
22.22
34.86
43.75
49.75
53.44
55.03
54.60
52.42
49.13
45.64
42.83
41.28
41.20
42.42
44.58
47.21
49.89
52.27
54.10
55.28
55.80
55.62
54.63
52.67
49.55
45.32
40.28
35.01
30.11
26.01
22.81
20.19
17.66
14.72
11.16
7.06
2.78
-1.22
-4.53
-7.01
-8.84
-10.44
-12.35
-15.05
-18.79
-23.48
-28.77
-34.16
-39.18
-43.60
-47.50
-51.24
-55.38
-60.51
-67.13
-75.37
-84.69
-93.75
-100.47
-102.50
-97.96
-86.19
-68.07
-45.83
-22.39
-0.49
17.91
31.92
41.48
46.99
49.01
48.06
44.68
39.44
33.09
26.45
20.37
15.58
12.62
11.60
12.25
13.98
16.08
18.07
19.82
21.54
23.50
25.75
27.97
29.59
30.08
29.32
27.66
25.81
24.43
23.82
23.78
23.79
23.29
22.00
20.00
17.67
15.47
13.73
12.45
11.28
9.66
6.89
2.48
-3.80
-11.73
-20.77
-30.27
-39.59
-48.44
-56.97
-65.72
-75.42
-86.57
-99.07
-111.97
-123.49
-131.47
-133.86
-129.45
-118.16
-101.13
-80.34
-58.15
-36.67
-17.48
-1.38
11.43
21.16
28.18
32.87
35.54
36.57
36.41
35.66
34.99
35.00
36.14
38.59
42.32
47.13
52.74
58.82
64.98
70.83
75.90
79.77
82.09
82.72
81.74
79.47
76.37
72.88
69.28
65.60
61.60
56.94
51.36
44.90
38.01
31.46
26.18
23.01
22.45
24.51
28.68
34.11
39.83
45.01
49.14
52.03
53.69
54.14
53.28
50.86
46.50
39.83
30.70
19.35
6.63
-6.08
-16.96
-24.26
-26.82
-24.42
-18.02
-9.34
-0.42
7.08
12.21
14.86
15.43
14.55
12.67
9.98
6.43
1.91
-3.46
-9.24
-14.67
-18.88
-21.22
-21.66
-20.98
-20.54
-21.92
-26.18
-33.54
-43.20
-53.68
-63.41
-71.22
-76.61
-79.74
-81.09
-81.20
-80.47
-79.20
-77.60
-76.01
-74.75
-74.08
-74.01
-74.25
-74.36
-73.96
-73.07
-72.13
-71.96
-73.28
-76.36
-80.75
-85.47
-89.30
-91.45
-91.77
-90.84
-89.78
-89.76
-91.70
-95.96
-102.18
-109.18
-115.09
-117.63
-114.75
-105.20
-88.99
-67.43
-42.77
-17.51
6.18
26.86
43.79
56.71
65.64
70.78
72.53
71.62
69.11
66.21
64.05
63.36
64.33
66.67
69.84
73.29
76.66
79.78
82.59
84.87
86.21
86.11
84.16
80.27
74.74
68.16
61.12
54.07
47.16
40.38
33.65
27.00
20.51
14.27
8.22
2.22
-3.94
-10.32
-16.82
-23.21
-29.26
-34.85
-40.02
-44.96
-49.90
-55.20
-61.29
-68.66
-77.61
-87.90
-98.42
-107.20
-111.75
-109.82
-100.19
-83.16
-60.52
-35.02
-9.53
13.61
33.11
48.59
60.31
68.79
74.48
77.68
78.60
77.56
75.01
71.60
68.10
65.24
63.57
63.37
64.64
67.09
70.30
73.72
76.79
78.97
79.80
78.96
76.37
72.22
66.94
61.08
55.12
49.31
43.61
37.84
31.79
25.44
18.90
12.49
6.52
1.15
-3.68
-8.31
-13.24
-18.87
-25.35
-32.44
-39.60
-46.30
-52.29
-57.75
-63.26
-69.54
-77.13
-86.19
-96.41
-107.04
-116.90
-124.51
-128.15
-126.21
-117.64
-102.29
-81.12
-55.92
-28.91
-2.18
22.62
44.32
62.11
75.38
83.78
87.40
86.90
83.53
78.85
74.29
70.84
68.82
68.10
68.33
69.21
70.57
72.35
74.39
76.44
78.13
79.11
79.12
78.06
75.84
72.48
68.04
62.69
56.79
50.78
45.10
39.95
35.31
30.87
26.26
21.21
15.69
9.88
4.13
-1.23
-6.02
-10.29
-14.30
-18.43
-23.06
-28.44
-34.58
-41.30
-48.34
-55.39
-62.29
-68.94
-75.45
-82.05
-89.15
-97.17
-106.22
-115.72
-124.17
-129.33
-128.77
-120.78
-105.04
-82.94
-57.12
-30.62
-6.02
15.12
32.31
45.67
55.50
61.99
65.22
65.37
62.97
58.96
54.54
50.90
48.89
48.88
50.74
54.01
58.04
62.15
65.79
68.56
70.20
70.62
69.80
67.79
64.65
60.49
55.58
50.29
45.06
40.21
35.82
31.68
27.39
22.58
17.13
11.27
5.40
-0.02
-4.66
-8.47
-11.58
-14.32
-17.06
-20.27
-24.38
-29.69
-36.24
-43.74
-51.55
-58.89
-65.09
-69.94
-73.76
-77.41
-82.08
-88.80
-98.04
-109.29
-120.95
-130.52
-135.21
-132.63
-121.63
-102.68
-77.79
-49.94
-22.31
2.51
22.97
38.67
50.00
57.78
62.83
65.80
67.22
67.54
67.18
66.60
66.06
65.75
65.69
65.93
66.59
67.86
69.90
72.63
75.67
78.39
80.13
80.37
78.86
75.66
71.06
65.51
59.52
53.59
48.07
43.12
38.65
34.41
30.20
25.97
21.85
18.00
14.49
11.18
7.82
4.19
0.26
-3.82
-7.81
-11.57
-15.18
-18.96
-23.40
-28.84
-35.37
-42.62
-49.98
-56.71
-62.35
-66.93
-70.98
-75.36
-81.01
-88.62
-98.33
-109.62
-121.14
-130.80
-136.13
-134.83
-125.47
-108.14
-84.50
-57.40
-30.06
-5.22
15.44
31.37
42.87
50.62
55.29
57.50
57.73
56.50
54.44
52.21
50.48
49.80
50.39
52.20
54.90
58.03
61.21
64.15
66.73
68.78
70.09
70.30
69.05
66.22
61.91
56.56
50.71
44.85
39.20
33.79
28.48
23.15
17.87
12.74
7.87
3.25
-1.36
-6.24
-11.52
-17.02
-22.35
-27.04
-30.93
-34.24
-37.54
-41.39
-46.07
-51.42
-56.98
-62.26
-66.95
-71.16
-75.34
-80.14
-86.20
-93.82
-102.63
-111.33
-117.75
-119.35
-114.14
-101.44
-82.28
-59.14
-35.07
-12.73
6.26
21.40
32.94
41.37
46.99
49.95
50.24
48.13
44.19
39.39
34.87
31.73
30.70
31.97
35.15
39.54
44.33
48.94
52.97
56.16
58.27
59.01
58.17
55.69
51.81
47.05
42.06
37.41
33.51
30.43
27.90
25.43
22.44
18.48
13.36
7.24
0.60
-5.95
-11.86
-16.83
-20.86
-24.37
-28.09
-32.80
-39.00
-46.62
-55.02
-63.13
-70.01
-75.29
-79.35
-83.20
-88.03
-94.70
-103.40
-113.38
-123.03
-130.11
-132.18
-127.21
-114.25
-93.85
-68.11
-40.11
-13.06
10.62
29.66
44.00
54.24
61.12
65.21
66.88
66.57
64.91
62.74
60.86
59.82
59.81
60.65
62.07
63.85
65.90
68.26
70.88
73.53
75.73
76.93
76.62
74.51
70.65
65.34
59.13
52.63
46.43
40.92
36.29
32.48
29.23
26.14
22.76
18.74
13.91
8.29
2.18
-4.02
-9.86
-15.01
-19.40
-23.25
-26.92
-30.87
-35.33
-40.26
-45.39
-50.42
-55.20
-59.90
-64.98
-71.03
-78.50
-87.48
-97.49
-107.43
-115.64
-120.13
-119.03
-111.15
-96.38
-75.85
-51.71
-26.59
-2.93
17.55
34.00
46.33
54.84
59.96
62.04
61.43
58.58
54.24
49.49
45.49
43.25
43.22
45.22
48.54
52.29
55.76
58.59
60.68
62.04
62.60
62.15
60.47
57.49
53.38
48.54
43.46
38.57
34.18
30.34
26.85
23.35
19.41
14.76
9.41
3.76
-1.58
-6.01
-9.25
-11.45
-13.12
-14.99
-17.69
-21.59
-26.74
-32.85
-39.42
-45.84
-51.62
-56.52
-60.72
-64.78
-69.54
-75.69
-83.54
-92.65
-101.75
-108.89
-111.85
-108.71
-98.41
-81.23
-58.73
-33.50
-8.45
13.89
31.86
44.82
52.97
56.99
57.61
55.61
51.69
46.66
41.37
36.76
33.56
32.26
32.89
35.15
38.46
42.18
45.80
48.97
51.49
53.23
54.00
53.54
51.62
48.22
43.59
38.31
33.04
28.26
24.10
20.32
16.48
12.18
7.22
1.72
-3.96
-9.44
-14.40
-18.73
-22.62
-26.40
-30.43
-34.93
-39.90
-45.09
-50.17
-54.90
-59.24
-63.47
-68.04
-73.49
-80.25
-88.50
-97.88
-107.49
-115.70
-120.46
-119.73
-112.03
-97.13
-76.14
-51.40
-25.78
-1.95
18.24
33.96
45.26
52.64
56.68
57.89
56.70
53.67
49.62
45.52
42.40
41.01
41.69
44.32
48.36
53.10
57.81
61.90
65.01
66.93
67.60
66.93
64.89
61.46
56.75
51.03
44.79
38.59
32.90
27.97
23.72
19.81
15.82
11.47
6.77
2.02
-2.40
-6.21
-9.49
-12.66
-16.30
-20.80
-26.22
-32.22
-38.23
-43.79
-48.74
-53.27
-57.73
-62.53
-68.02
-74.46
-82.05
-90.78
-100.19
-109.05
-115.39
-116.87
-111.55
-98.63
-78.91
-54.64
-28.81
-4.26
16.99
34.01
46.75
55.63
61.08
63.43
62.96
60.08
55.54
50.46
46.06
43.43
43.15
45.16
48.86
53.32
57.69
61.39
64.18
66.06
67.04
67.01
65.81
63.33
59.62
54.97
49.82
44.60
39.67
35.18
31.09
27.28
23.56
19.78
15.88
11.95
8.11
4.53
1.25
-1.91
-5.31
-9.42
-14.61
-20.96
-28.19
-35.68
-42.76
-48.91
-53.96
-58.13
-61.90
-65.87
-70.66
-76.77
-84.45
-93.50
-102.94
-111.04
-115.51
-114.15
-105.55
-89.70
-68.11
-43.37
-18.45
4.09
22.59
36.35
45.47
50.44
52.02
50.98
48.20
44.62
41.18
38.72
37.78
38.52
40.70
43.83
47.40
50.95
54.25
57.18
59.63
61.43
62.38
62.19
60.70
57.82
53.61
48.33
42.40
36.36
30.77
26.03
22.32
19.46
17.01
14.42
11.27
7.37
2.87
-1.84
-6.27
-10.10
-13.33
-16.27
-19.46
-23.46
-28.55
-34.68
-41.43
-48.21
-54.54
-60.18
-65.25
-70.21
-75.64
-82.12
-89.99
-99.10
-108.65
-117.15
-122.60
-122.94
-116.67
-103.34
-83.83
-60.13
-34.88
-10.59
10.85
28.42
41.91
51.56
57.85
61.27
62.34
61.65
59.91
57.85
56.17
55.43
55.93
57.69
60.48
63.85
67.33
70.48
73.01
74.76
75.65
75.55
74.30
71.77
68.00
63.24
57.99
52.72
47.77
43.22
38.93
34.73
30.56
26.52
22.82
19.65
16.97
14.57
12.04
9.03
5.41
1.24
-3.22
-7.72
-12.21
-16.87
-22.03
-27.95
-34.62
-41.71
-48.69
-55.06
-60.53
-65.15
-69.23
-73.27
-77.81
-83.42
-90.53
-99.26
-109.08
-118.59
-125.65
-127.83
-123.19
-111.02
-92.12
-68.66
-43.42
-19.03
2.65
20.74
35.06
45.80
53.18
57.38
58.62
57.42
54.61
51.32
48.66
47.52
48.24
50.63
54.12
57.99
61.73
65.07
67.90
70.14
71.60
71.96
70.96
68.55
65.00
60.80
56.48
52.33
48.41
44.60
40.76
36.82
32.88
29.04
25.42
22.03
18.87
15.97
13.37
11.11
9.08
7.00
4.48
1.25
-2.74
-7.22
-11.74
-15.94
-19.73
-23.35
-27.24
-31.77
-37.04
-42.83
-48.75
-54.33
-59.35
-63.78
-67.86
-71.92
-76.40
-81.65
-87.86
-94.78
-101.57
-106.75
-108.40
-104.79
-94.87
-78.90
-58.41
-35.85
-13.78
5.83
21.94
34.39
43.45
49.44
52.51
52.75
50.49
46.45
41.77
37.65
35.12
34.69
36.30
39.39
43.20
47.02
50.36
53.01
54.96
56.23
56.74
56.36
54.95
52.55
49.40
45.90
42.43
39.17
36.02
32.77
29.18
25.17
20.86
16.54
12.56
9.19
6.58
4.64
3.12
1.61
-0.25
-2.72
-5.86
-9.53
-13.52
-17.65
-21.84
-26.18
-30.83
-35.93
-41.46
-47.22
-52.89
-58.18
-62.99
-67.45
-71.98
-77.12
-83.41
-90.99
-99.55
-108.09
-115.00
-118.40
-116.52
-108.36
-93.93
-74.46
-51.95
-28.79
-7.08
11.61
26.41
37.07
43.76
47.00
47.54
46.30
44.19
42.05
40.47
39.79
40.10
41.42
43.60
46.52
49.96
53.65
57.29
60.50
62.89
64.09
63.82
61.93
58.50
53.90
48.68
43.45
38.73
34.74
31.49
28.70
26.08
23.41
20.59
17.68
14.77
11.91
9.08
6.17
3.03
-0.42
-4.21
-8.29
-12.61
-17.17
-22.08
-27.44
-33.25
-39.30
-45.25
-50.75
-55.64
-60.08
-64.45
-69.33
-75.25
-82.63
-91.57
-101.71
-112.01
-120.71
-125.56
-124.38
-115.73
-99.56
-77.34
-51.83
-26.22
-3.30
15.16
28.69
37.86
43.78
47.53
49.81
50.93
50.97
50.06
48.63
47.26
46.59
46.99
48.52
50.95
53.93
57.18
60.49
63.66
66.35
68.12
68.52
67.31
64.55
60.66
56.25
51.91
48.05
44.77
41.92
39.18
36.26
33.04
29.61
26.23
23.14
20.40
17.84
15.11
11.81
7.78
3.16
-1.67
-6.23
-10.25
-13.70
-16.96
-20.53
-24.90
-30.36
-36.80
-43.83
-50.91
-57.60
-63.65
-69.15
-74.44
-80.01
-86.34
-93.78
-102.34
-111.54
-120.22
-126.59
-128.53
-124.16
-112.45
-93.82
-70.17
-44.39
-19.57
1.85
18.66
30.85
39.24
44.85
48.44
50.37
50.80
49.99
48.45
46.92
46.11
46.50
48.15
50.80
54.09
57.66
61.24
64.57
67.30
68.98
69.18
67.68
64.60
60.42
55.82
51.47
47.83
45.07
42.99
41.15
39.05
36.30
32.74
28.55
24.03
19.57
15.36
11.47
7.85
4.51
1.53
-1.06
-3.36
-5.72
-8.69
-12.77
-18.22
-24.87
-32.18
-39.45
-46.03
-51.65
-56.42
-60.92
-65.91
-72.14
-80.07
-89.57
-99.82
-109.35
-116.17
-118.23
-113.95
-102.68
-85.07
-62.95
-38.91
-15.60
4.92
21.57
34.16
43.09
48.86
51.85
52.34
50.80
47.94
44.72
42.18
41.05
41.65
43.84
47.24
51.32
55.61
59.65
63.01
65.30
66.29
65.96
64.51
62.27
59.50
56.26
52.47
47.98
42.80
37.21
31.69
26.73
22.59
19.20
16.21
13.17
9.81
6.11
2.29
-1.35
-4.61
-7.50
-10.27
-13.30
-17.00
-21.66
-27.34
-33.86
-40.80
-47.67
-54.08
-59.89
-65.22
-70.51
-76.22
-82.85
-90.71
-99.80
-109.62
-119.00
-126.08
-128.65
-124.74
-113.37
-95.05
-71.70
-46.20
-21.46
0.33
18.08
31.74
41.88
49.21
54.23
57.23
58.41
58.10
56.93
55.74
55.37
56.41
58.95
62.63
66.82
70.91
74.52
77.51
79.84
81.36
81.74
80.64
77.82
73.40
67.80
61.68
55.62
49.97
44.82
39.97
35.17
30.24
25.18
20.24
15.81
12.25
9.66
7.86
6.39
4.68
2.31
-0.88
-4.77
-9.10
-13.64
-18.21
-22.77
-27.38
-32.17
-37.21
-42.54
-48.08
-53.67
-59.08
-64.21
-69.09
-74.02
-79.47
-86.00
-93.93
-103.12
-112.64
-120.82
-125.48
-124.51
-116.56
-101.60
-81.07
-57.45
-33.46
-11.31
7.76
23.49
36.12
45.99
53.19
57.64
59.35
58.71
56.53
53.91
51.91
51.28
52.20
54.46
57.60
61.20
65.05
69.09
73.26
77.22
80.34
81.76
80.77
77.12
71.20
63.87
56.25
49.28
43.48
38.90
35.23
32.01
28.89
25.73
22.62
19.80
17.47
15.65
14.14
12.55
10.46
7.59
3.92
-0.31
-4.75
-9.08
-13.12
-16.89
-20.54
-24.31
-28.37
-32.81
-37.62
-42.71
-47.91
-53.15
-58.42
-63.86
-69.74
-76.40
-84.23
-93.43
-103.82
-114.52
-123.91
-129.79
-129.90
-122.71
-107.96
-86.96
-62.24
-36.86
-13.53
5.95
20.93
31.66
38.89
43.47
46.06
47.12
47.00
46.12
45.06
44.56
45.35
47.87
52.12
57.56
63.31
68.41
72.09
73.98
74.08
72.64
69.95
66.31
61.97
57.18
52.27
47.55
43.28
39.62
36.51
33.77
31.12
28.32
25.25
21.95
18.64
15.56
12.87
10.57
8.39
5.89
2.58
-1.93
-7.68
-14.31
-21.01
-26.85
-31.08
-33.60
-35.02
-36.57
-39.54
-44.73
-51.99
-60.26
-68.00
-73.88
-77.35
-78.90
-79.80
-81.50
-85.14
-90.96
-98.28
-105.58
-110.88
-112.17
-107.89
-97.33
-80.81
-59.70
-36.13
-12.50
9.01
26.90
40.51
49.93
55.73
58.68
59.51
58.83
57.23
55.24
53.36
52.02
51.43
51.61
52.47
53.93
55.97
58.64
61.87
65.36
68.52
70.61
70.97
69.29
65.73
60.90
55.61
50.57
46.19
42.42
38.97
35.47
31.72
27.81
24.04
20.69
17.89
15.48
13.25
11.05
8.92
6.96
5.14
3.21
0.77
-2.53
-6.72
-11.46
-16.27
-20.76
-24.87
-28.85
-33.14
-38.06
-43.71
-49.88
-56.15
-62.07
-67.32
-71.91
-76.16
-80.72
-86.32
-93.47
-102.09
-111.34
-119.62
-124.77
-124.64
-117.67
-103.38
-82.72
-57.85
-31.75
-7.38
12.95
28.15
38.28
44.29
47.43
48.77
48.98
48.35
47.09
45.47
43.94
43.04
43.23
44.66
47.24
50.64
54.47
58.40
62.14
65.37
67.70
68.65
67.81
65.01
60.51
54.92
49.06
43.69
39.16
35.48
32.30
29.26
26.09
22.80
19.52
16.39
13.49
10.74
7.99
5.09
1.91
-1.61
-5.40
-9.37
-13.33
-17.16
-20.87
-24.66
-28.82
-33.65
-39.24
-45.41
-51.76
-57.83
-63.35
-68.36
-73.28
-78.74
-85.39
-93.46
-102.51
-111.26
-117.82
-119.97
-115.94
-104.93
-87.42
-65.18
-40.77
-16.92
4.14
21.09
33.54
41.77
46.41
48.07
47.24
44.44
40.34
35.83
31.97
29.72
29.67
31.87
35.81
40.66
45.57
49.93
53.38
55.85
57.31
57.72
56.97
54.96
51.76
47.59
42.87
38.06
33.59
29.71
26.49
23.78
21.31
18.64
15.36
11.16
6.07
0.47
-4.98
-9.68
-13.30
-16.05
-18.53
-21.56
-25.70
-31.03
-37.19
-43.51
-49.42
-54.66
-59.45
-64.42
-70.43
-78.27
-88.31
-100.17
-112.66
-123.77
-131.16
-132.63
-126.82
-113.56
-94.02
-70.40
-45.39
-21.48
-0.55
16.47
29.44
38.77
45.09
48.97
50.86
51.19
50.44
49.19
48.10
47.75
48.44
50.17
52.69
55.63
58.72
61.81
64.77
67.41
69.36
70.14
69.29
66.64
62.40
57.18
51.73
46.72
42.47
38.92
35.67
32.27
28.36
23.86
18.86
13.60
8.35
3.35
-1.22
-5.21
-8.65
-11.72
-14.79
-18.34
-22.74
-28.07
-34.04
-40.19
-46.07
-51.45
-56.51
-61.69
-67.51
-74.41
-82.62
-91.97
-101.87
-111.09
-117.85
-120.07
-115.96
-104.68
-86.79
-64.19
-39.68
-16.10
4.51
21.19
34.03
43.70
50.88
55.94
58.99
60.06
59.47
57.86
56.14
55.17
55.56
57.50
60.85
65.23
70.18
75.15
79.55
82.74
84.18
83.53
80.79
76.30
70.67
64.58
58.67
53.37
48.80
44.88
41.30
37.67
33.66
29.11
24.05
18.67
13.25
8.05
3.24
-1.14
-5.12
-8.86
-12.57
-16.45
-20.70
-25.43
-30.64
-36.19
-41.81
-47.22
-52.24
-56.97
-61.79
-67.30
-74.11
-82.51
-92.29
-102.64
-112.17
-119.06
-121.45
-117.76
-107.15
-89.84
-67.19
-41.54
-15.62
8.08
27.95
43.40
54.71
62.52
67.35
69.43
68.90
66.05
61.62
56.65
52.18
48.94
47.13
46.61
47.06
48.22
49.90
51.93
53.95
55.50
56.14
55.61
53.90
51.26
48.01
44.50
40.97
37.58
34.41
31.45
28.66
25.96
23.30
20.54
17.60
14.33
10.70
6.76
2.68
-1.33
-5.08
-8.60
-12.12
-16.03
-20.67
-26.21
-32.51
-39.19
-45.78
-51.95
-57.65
-63.14
-68.94
-75.57
-83.44
-92.61
-102.72
-112.86
-121.61
-127.11
-127.48
-121.26
-107.91
-88.19
-64.00
-37.98
-12.82
9.39
27.45
41.18
50.99
57.64
61.82
64.06
64.80
64.39
63.33
62.19
61.61
62.05
63.78
66.69
70.41
74.36
77.94
80.61
81.98
81.83
80.08
76.87
72.43
67.12
61.29
55.24
49.24
43.45
37.99
32.97
28.49
24.61
21.29
18.41
15.77
13.14
10.40
7.55
4.66
1.85
-0.83
-3.51
-6.42
-9.79
-13.76
-18.36
-23.45
-28.87
-34.49
-40.27
-46.16
-52.11
-58.03
-63.75
-69.25
-74.65
-80.34
-86.84
-94.62
-103.67
-113.27
-121.81
-127.14
-127.12
-120.31
-106.52
-86.89
-63.67
-39.41
-16.43
3.78
20.60
34.16
44.89
53.13
58.97
62.30
63.13
61.84
59.32
56.82
55.52
56.12
58.64
62.46
66.72
70.66
73.78
75.91
77.05
77.21
76.32
74.33
71.19
67.01
62.01
56.51
50.85
45.37
40.15
35.11
30.03
24.72
19.26
14.03
9.57
6.38
4.57
3.81
3.43
2.66
0.96
-1.84
-5.54
-9.75
-14.10
-18.38
-22.58
-26.83
-31.28
-36.00
-40.95
-45.98
-50.95
-55.69
-60.07
-64.10
-67.93
-71.93
-76.64
-82.56
-89.68
-97.21
-103.43
-106.07
-103.01
-93.14
-76.87
-56.12
-33.73
-12.58
5.10
18.18
26.60
31.08
32.69
32.56
31.56
30.29
29.02
27.85
26.84
26.18
26.24
27.41
29.99
33.92
38.80
43.95
48.63
52.18
54.20
54.54
53.24
50.50
46.54
41.69
36.32
30.84
25.69
21.22
17.51
14.47
11.84
9.42
7.08
4.95
3.15
1.74
0.59
-0.56
-1.99
-3.88
-6.30
-9.23
-12.66
-16.61
-21.08
-26.02
-31.37
-37.17
-43.52
-50.61
-58.51
-67.11
-76.18
-85.42
-94.75
-104.20
-113.80
-123.10
-130.92
-135.35
-134.28
-126.15
-110.66
-89.10
-64.08
-38.76
-15.92
2.83
17.18
27.86
35.99
42.39
47.36
50.76
52.39
52.37
51.25
49.91
49.22
49.72
51.55
54.44
58.01
61.87
65.71
69.26
72.18
74.07
74.52
73.21
70.13
65.61
60.25
54.75
49.61
45.03
40.75
36.40
31.66
26.50
21.23
16.31
12.07
8.52
5.30
1.92
-2.00
-6.48
-11.22
-15.76
-19.81
-23.38
-26.83
-30.68
-35.31
-40.80
-46.83
-52.81
-58.22
-62.84
-66.84
-70.83
-75.60
-81.84
-89.87
-99.34
-109.11
-117.33
-121.79
-120.47
-112.16
-96.89
-76.02
-51.92
-27.33
-4.67
14.45
29.33
40.07
47.16
51.21
52.87
52.72
51.38
49.47
47.60
46.25
45.79
46.42
48.25
51.30
55.42
60.24
65.19
69.51
72.46
73.56
72.70
70.13
66.34
61.87
57.20
52.60
48.22
44.05
40.02
36.03
32.01
27.95
23.90
19.92
16.04
12.15
8.07
3.64
-1.11
-5.96
-10.58
-14.69
-18.33
-21.82
-25.70
-30.41
-36.08
-42.48
-49.07
-55.27
-60.67
-65.25
-69.28
-73.31
-77.88
-83.47
-90.29
-98.24
-106.87
-115.34
-122.35
-126.32
-125.52
-118.57
-104.90
-85.10
-61.01
-35.24
-10.54
11.04
28.61
42.35
53.02
61.32
67.54
71.53
73.18
72.75
71.10
69.46
68.98
70.25
73.13
76.86
80.47
83.12
84.37
84.16
82.69
80.17
76.73
72.43
67.27
61.35
54.96
48.54
42.63
37.66
33.83
31.05
29.00
27.16
25.04
22.31
18.90
14.98
10.90
6.88
2.99
-0.94
-5.15
-9.81
-14.92
-20.36
-25.95
-31.61
-37.38
-43.32
-49.48
-55.75
-62.03
-68.29
-74.74
-81.82
-90.00
-99.44
-109.67
-119.44
-126.81
-129.68
-126.31
-115.95
-99.06
-77.28
-53.02
-28.84
-6.97
11.11
24.77
34.19
40.04
43.23
44.61
44.79
44.15
42.99
41.62
40.48
40.08
40.88
43.15
46.82
51.52
56.58
61.23
64.75
66.65
66.82
65.49
63.15
60.32
57.35
54.32
51.11
47.57
43.62
39.32
34.82
30.24
25.64
21.04
16.41
11.84
7.41
3.22
-0.71
-4.42
-7.98
-11.51
-15.18
-19.26
-23.99
-29.53
-35.77
-42.31
-48.59
-54.10
-58.62
-62.33
-65.87
-70.06
-75.84
-83.81
-93.97
-105.48
-116.63
-125.10
-128.50
-125.05
-114.14
-96.56
-74.32
-50.12
-26.66
-6.01
10.71
23.37
32.52
38.99
43.51
46.53
48.39
49.43
50.20
51.37
53.32
56.05
59.07
61.72
63.57
64.79
65.95
67.69
70.19
72.92
74.88
75.04
72.85
68.51
62.82
56.81
51.27
46.56
42.55
38.81
34.94
30.75
26.29
21.78
17.40
13.17
9.01
4.81
0.59
-3.43
-6.99
-9.95
-12.42
-14.82
-17.67
-21.39
-26.08
-31.51
-37.23
-42.75
-47.78
-52.25
-56.36
-60.58
-65.51
-71.75
-79.62
-88.89
-98.56
-106.86
-111.54
-110.46
-102.31
-87.07
-66.23
-42.39
-18.53
2.82
20.17
33.18
42.31
48.29
51.68
52.73
51.58
48.55
44.43
40.32
37.39
36.47
37.76
40.86
45.03
49.48
53.67
57.34
60.48
63.08
65.04
66.06
65.82
64.02
60.60
55.80
50.06
43.95
37.97
32.44
27.43
22.84
18.50
14.26
10.09
6.00
2.03
-1.84
-5.68
-9.55
-13.44
-17.25
-20.92
-24.42
-27.87
-31.49
-35.52
-40.08
-45.11
-50.41
-55.84
-61.39
-67.25
-73.80
-81.41
-90.19
-99.77
-109.10
-116.49
-119.84
-117.27
-107.74
-91.51
-70.28
-46.64
-23.38
-2.60
14.62
28.21
38.59
46.26
51.41
54.11
54.48
52.96
50.34
47.64
45.79
45.41
46.72
49.58
53.53
58.01
62.41
66.21
69.05
70.67
70.96
69.82
67.22
63.19
58.00
52.14
46.23
40.93
36.53
33.00
29.88
26.59
22.63
17.85
12.38
6.58
0.87
-4.40
-9.05
-13.07
-16.63
-20.08
-23.83
-28.25
-33.50
-39.36
-45.41
-51.16
-56.31
-60.99
-65.79
-71.50
-78.88
-88.25
-99.22
-110.60
-120.41
-126.33
-126.23
-118.80
-103.98
-83.23
-59.06
-34.46
-12.04
6.63
21.12
31.97
40.11
46.31
50.95
54.11
55.80
56.27
56.00
55.63
55.71
56.57
58.22
60.51
63.22
66.17
69.19
72.06
74.54
76.31
77.07
76.55
74.60
71.22
66.63
61.24
55.59
50.21
45.53
41.68
38.62
36.11
33.87
31.67
29.36
26.82
23.99
20.79
17.14
13.00
8.42
3.51
-1.49
-6.33
-10.91
-15.29
-19.71
-24.54
-30.02
-36.18
-42.78
-49.35
-55.45
-60.82
-65.51
-69.94
-74.75
-80.68
-88.21
-97.28
-106.98
-115.56
-120.77
-120.41
-113.07
-98.71
-78.68
-55.35
-31.44
-9.30
9.52
24.35
35.19
42.51
46.87
48.91
49.25
48.52
47.32
46.18
45.48
45.42
46.04
47.29
49.08
51.34
54.02
56.98
59.99
62.60
64.34
64.74
63.55
60.84
56.93
52.32
47.55
42.99
38.83
35.04
31.50
28.01
24.46
20.84
17.17
13.51
9.87
6.22
2.54
-1.15
-4.74
-8.06
-11.04
-13.71
-16.35
-19.32
-23.03
-27.75
-33.46
-39.87
-46.47
-52.65
-57.98
-62.35
-66.06
-69.76
-74.22
-80.04
-87.37
-95.67
-103.70
-109.63
-111.42
-107.42
-96.80
-80.04
-58.88
-35.89
-13.79
5.34
20.46
31.55
39.26
44.37
47.40
48.66
48.32
46.72
44.47
42.35
41.11
41.21
42.69
45.15
48.03
50.76
53.00
54.64
55.70
56.19
56.00
54.95
52.94
50.06
46.61
42.99
39.52
36.28
33.10
29.72
25.92
21.68
17.23
12.85
8.82
5.23
1.97
-1.16
-4.33
-7.60
-10.88
-14.08
-17.22
-20.50
-24.24
-28.75
-34.15
-40.28
-46.81
-53.30
-59.42
-65.06
-70.36
-75.74
-81.71
-88.78
-97.12
-106.26
-114.98
-121.34
-123.22
-118.93
-107.85
-90.71
-69.42
-46.52
-24.47
-4.99
11.06
23.64
33.19
40.24
45.12
48.00
49.00
48.38
46.68
44.65
43.06
42.46
43.07
44.82
47.46
50.75
54.46
58.29
61.85
64.59
65.97
65.62
63.54
60.04
55.61
50.71
45.73
40.86
36.25
32.01
28.20
24.80
21.69
18.72
15.70
12.59
9.41
6.27
3.25
0.40
-2.34
-5.10
-8.09
-11.52
-15.60
-20.48
-26.11
-32.27
-38.60
-44.70
-50.30
-55.39
-60.20
-65.17
-70.82
-77.53
-85.32
-93.67
-101.35
-106.60
-107.47
-102.40
-90.79
-73.29
-51.78
-28.83
-7.00
11.78
26.52
37.16
44.21
48.37
50.27
50.40
49.24
47.31
45.23
43.59
42.82
43.09
44.35
46.41
49.03
52.02
55.20
58.34
61.20
63.48
64.88
65.18
64.21
61.95
58.51
54.12
49.11
43.88
38.82
34.18
30.15
26.72
23.77
21.10
18.47
15.69
12.71
9.60
6.55
3.75
1.28
-1.01
-3.52
-6.80
-11.36
-17.48
-25.07
-33.75
-42.95
-52.21
-61.20
-69.86
-78.29
-86.72
-95.35
-104.27
-113.18
-121.27
-127.08
-128.76
-124.59
-113.70
-96.47
-74.66
-50.84
-27.65
-7.06
9.98
23.35
33.37
40.33
44.45
45.92
45.13
42.80
39.89
37.38
36.04
36.31
38.32
41.86
46.48
51.60
56.54
60.73
63.75
65.41
65.62
64.34
61.59
57.43
52.18
46.27
40.30
34.76
29.91
25.66
21.73
17.76
13.49
8.84
3.89
-1.09
-5.72
-9.71
-12.95
-15.62
-18.21
-21.35
-25.52
-30.88
-37.10
-43.59
-49.76
-55.18
-59.87
-64.21
-68.87
-74.54
-81.70
-90.35
-99.76
-108.43
-114.31
-115.25
-109.67
-97.09
-78.40
-55.65
-31.49
-8.44
11.70
28.02
40.44
49.34
55.21
58.49
59.55
58.84
57.01
54.89
53.29
52.81
53.59
55.40
57.78
60.26
62.59
64.75
66.82
68.78
70.37
71.06
70.27
67.62
63.15
57.32
50.86
44.45
38.53
33.18
28.23
23.53
19.02
14.84
11.17
8.05
5.36
2.78
0.02
-3.16
-6.85
-11.06
-15.82
-21.12
-26.82
-32.67
-38.26
-43.23
-47.50
-51.39
-55.59
-60.93
-68.07
-77.09
-87.35
-97.38
-105.19
-108.65
-106.08
-96.73
-81.06
-60.69
-37.99
-15.48
4.72
21.26
33.68
42.19
47.43
50.16
51.07
50.69
49.44
47.68
45.80
44.23
43.41
43.61
44.94
47.20
49.99
52.83
55.28
57.04
58.01
58.19
57.62
56.26
53.99
50.66
46.30
41.19
35.85
30.85
26.48
22.64
18.81
14.45
9.32
3.69
-1.73
-6.18
-9.23
-11.02
-12.21
-13.70
-16.27
-20.30
-25.67
-31.92
-38.38
-44.50
-50.04
-55.10
-60.08
-65.49
-71.74
-78.97
-86.95
-94.97
-101.79
-105.82
-105.38
-99.20
-86.95
-69.43
-48.55
-26.71
-6.17
11.44
25.32
35.28
41.43
44.03
43.46
40.39
35.84
31.06
27.24
25.31
25.65
28.18
32.38
37.52
42.85
47.75
51.77
54.63
56.19
56.37
55.17
52.71
49.19
44.94
40.27
35.46
30.57
25.57
20.37
14.96
9.44
4.02
-1.08
-5.67
-9.69
-13.21
-16.40
-19.56
-23.02
-27.06
-31.83
-37.25
-42.98
-48.55
-53.55
-57.79
-61.48
-65.24
-69.95
-76.37
-84.76
-94.50
-103.99
-110.89
-112.80
-107.97
-95.99
-77.90
-55.94
-32.77
-10.78
8.41
24.10
36.23
45.05
50.85
53.93
54.61
53.45
51.20
48.74
46.91
46.28
47.07
49.17
52.21
55.76
59.42
62.85
65.76
67.90
69.00
68.84
67.30
64.34
60.12
54.93
49.15
43.18
37.43
32.15
27.49
23.41
19.81
16.44
13.14
9.77
6.34
2.97
-0.23
-3.23
-6.21
-9.56
-13.68
-18.79
-24.73
-30.97
-36.86
-41.90
-46.03
-49.67
-53.52
-58.23
-64.25
-71.67
-80.24
-89.38
-98.06
-104.79
-107.75
-105.27
-96.27
-80.93
-60.66
-37.88
-15.24
5.04
21.71
34.50
43.79
50.16
54.04
55.62
55.07
52.74
49.36
45.94
43.50
42.81
44.10
47.06
50.98
55.08
58.72
61.56
63.50
64.58
64.77
63.93
61.89
58.55
54.04
48.75
43.31
38.28
34.05
30.62
27.72
24.95
21.97
18.70
15.25
11.84
8.64
5.67
2.82
-0.08
-3.14
-6.43
-9.95
-13.72
-17.83
-22.37
-27.43
-32.91
-38.63
-44.22
-49.37
-53.89
-57.87
-61.74
-66.14
-71.78
-79.04
-87.76
-96.95
-104.95
-109.68
-109.16
-102.08
-88.31
-68.96
-46.29
-23.02
-1.73
15.84
28.93
37.74
42.95
45.36
45.61
44.25
41.83
39.02
36.59
35.26
35.46
37.27
40.44
44.53
49.01
53.34
57.06
59.83
61.47
61.94
61.23
59.32
56.17
51.79
46.32
40.16
33.85
27.94
22.83
18.67
15.39
12.82
10.67
8.66
6.47
3.84
0.61
-3.19
-7.31
-11.46
-15.44
-19.13
-22.64
-26.22
-30.09
-34.43
-39.22
-44.33
-49.45
-54.33
-58.86
-63.17
-67.69
-72.96
-79.42
-87.16
-95.65
-103.69
-109.52
-111.17
-107.03
-96.35
-79.63
-58.57
-35.62
-13.25
6.63
22.98
35.58
44.66
50.56
53.57
53.96
52.19
48.97
45.25
41.97
39.94
39.59
40.98
43.81
47.57
51.67
55.58
58.88
61.23
62.47
62.45
61.19
58.79
55.47
51.46
46.97
42.20
37.32
32.56
28.13
24.27
20.99
18.14
15.40
12.47
9.19
5.61
1.87
-1.85
-5.47
-8.94
-12.24
-15.40
-18.50
-21.77
-25.48
-29.77
-34.57
-39.53
-44.19
-48.30
-51.93
-55.55
-59.79
-65.21
-72.09
-80.27
-89.14
-97.53
-103.86
-106.27
-103.15
-93.60
-77.96
-57.79
-35.55
-13.87
5.21
20.58
32.12
40.29
45.70
48.77
49.71
48.69
46.08
42.60
39.16
36.67
35.78
36.70
39.24
42.95
47.29
51.74
55.86
59.22
61.39
62.00
60.79
57.77
53.24
47.73
41.91
36.41
31.63
27.71
24.53
21.80
19.20
16.49
13.57
10.46
7.26
4.08
0.94
-2.14
-5.18
-8.19
-11.19
-14.27
-17.57
-21.27
-25.41
-29.90
-34.46
-38.78
-42.63
-46.05
-49.31
-52.85
-57.17
-62.69
-69.63
-77.85
-86.72
-94.92
-100.60
-101.73
-96.74
-85.12
-67.80
-46.87
-25.05
-4.82
12.05
24.84
33.55
38.60
40.52
39.81
37.03
32.89
28.33
24.34
21.79
21.23
22.75
26.01
30.44
35.35
40.11
44.28
47.59
49.90
51.14
51.27
50.24
48.03
44.73
40.57
35.89
31.12
26.60
22.56
19.02
15.82
12.71
9.46
5.97
2.29
-1.39
-4.90
-8.13
-11.17
-14.27
-17.78
-21.94
-26.79
-32.10
-37.43
-42.35
-46.63
-50.35
-53.85
-57.68
-62.36
-68.32
-75.80
-84.64
-94.21
-103.18
-109.64
-111.50
-107.02
-95.53
-77.71
-55.55
-31.76
-9.02
10.71
26.40
37.91
45.61
50.02
51.59
50.76
48.12
44.39
40.51
37.39
35.74
35.91
37.89
41.31
45.66
50.34
54.80
58.62
61.43
63.07
63.41
62.44
60.14
56.57
51.90
46.46
40.76
35.37
30.66
26.72
23.27
19.87
16.17
12.09
7.84
3.80
0.24
-2.86
-5.81
-9.01
-12.78
-17.21
-22.15
-27.30
-32.34
-37.00
-41.18
-44.89
-48.34
-51.87
-56.01
-61.33
-68.35
-77.11
-87.01
-96.57
-103.69
-106.01
-101.73
-90.18
-72.21
-49.97
-26.36
-4.15
14.65
29.14
39.41
46.09
49.93
51.48
51.13
49.19
46.18
42.80
39.92
38.27
38.33
40.12
43.29
47.27
51.51
55.57
59.18
62.14
64.26
65.21
64.66
62.38
58.32
52.81
46.46
40.04
34.25
29.49
25.78
22.77
19.98
16.94
13.41
9.44
5.31
1.34
-2.23
-5.40
-8.36
-11.47
-15.03
-19.23
-24.02
-29.24
-34.53
-39.57
-44.11
-48.12
-51.82
-55.71
-60.48
-66.78
-74.86
-84.35
-94.02
-101.90
-105.73
-103.59
-94.58
-79.11
-58.86
-36.33
-14.13
5.61
21.61
33.50
41.52
46.23
48.18
47.84
45.65
42.18
38.22
34.77
32.80
32.96
35.28
39.18
43.74
48.08
51.68
54.43
56.47
57.82
58.30
57.48
55.03
50.93
45.58
39.71
34.04
29.14
25.18
22.01
19.23
16.37
13.00
8.96
4.41
-0.23
-4.44
-7.86
-10.54
-12.89
-15.54
-19.07
-23.69
-29.19
-35.05
-40.72
-45.84
-50.38
-54.59
-58.98
-64.15
-70.64
-78.68
-87.99
-97.50
-105.46
-109.67
-108.13
-99.67
-84.45
-64.05
-40.94
-17.89
2.90
20.07
33.20
42.53
48.60
51.98
53.14
52.56
50.73
48.29
45.90
44.21
43.68
44.56
46.75
49.93
53.59
57.22
60.36
62.72
64.09
64.37
63.47
61.38
58.19
54.10
49.47
44.66
39.98
35.65
31.70
28.04
24.52
20.95
17.26
13.46
9.66
6.07
2.87
0.07
-2.48
-5.10
-8.19
-12.08
-16.91
-22.57
-28.76
-35.02
-40.91
-46.10
-50.49
-54.33
-58.12
-62.53
-68.23
-75.54
-84.26
-93.50
-101.68
-106.77
-106.76
-100.19
-86.79
-67.61
-44.90
-21.50
-0.07
17.62
30.86
39.93
45.62
48.78
50.05
49.84
48.47
46.29
43.80
41.54
40.05
39.75
40.83
43.27
46.72
50.70
54.61
57.94
60.35
61.62
61.60
60.17
57.26
52.97
47.69
42.00
36.63
32.12
28.68
26.13
24.00
21.80
19.21
16.13
12.70
9.13
5.65
2.35
-0.80
-3.94
-7.28
-11.03
-15.31
-20.09
-25.16
-30.20
-34.88
-38.99
-42.48
-45.60
-48.75
-52.51
-57.47
-64.03
-72.12
-81.01
-89.19
-94.66
-95.41
-90.06
-78.38
-61.46
-41.46
-20.94
-2.20
13.24
24.80
32.63
37.28
39.31
39.20
37.30
34.05
30.07
26.18
23.29
22.06
22.82
25.36
29.15
33.50
37.83
41.75
45.02
47.44
48.75
48.69
47.07
43.99
39.79
35.01
30.25
25.86
21.96
18.37
14.82
11.05
6.96
2.66
-1.59
-5.43
-8.63
-11.16
-13.30
-15.52
-18.32
-22.01
-26.54
-31.58
-36.63
-41.30
-45.45
-49.26
-53.17
-57.78
-63.61
-70.95
-79.54
-88.44
-95.98
-100.07
-98.76
-90.93
-76.75
-57.75
-36.37
-15.24
3.51
18.67
29.93
37.65
42.42
44.81
45.31
44.34
42.36
39.97
37.79
36.40
36.08
36.86
38.53
40.72
43.10
45.46
47.76
49.89
51.68
52.74
52.60
50.89
47.58
43.00
37.84
32.79
28.30
24.45
20.95
17.40
13.51
9.22
4.71
0.24
-3.89
-7.60
-10.90
-13.97
-17.07
-20.42
-24.13
-28.19
-32.44
-36.78
-41.24
-46.01
-51.37
-57.67
-65.06
-73.49
-82.57
-91.46
-98.82
-102.95
-102.16
-95.38
-82.65
-65.22
-45.27
-25.22
-6.99
8.38
20.65
30.12
37.13
41.92
44.58
45.20
44.09
41.83
39.28
37.35
36.75
37.78
40.27
43.68
47.36
50.80
53.76
56.15
57.89
58.75
58.43
56.69
53.52
49.27
44.47
39.74
35.44
31.70
28.36
25.02
21.32
17.01
12.16
7.12
2.42
-1.47
-4.37
-6.47
-8.24
-10.22
-12.89
-16.41
-20.75
-25.65
-30.74
-35.66
-40.14
-44.19
-48.13
-52.58
-58.20
-65.40
-73.94
-82.78
-90.22
-94.17
-92.83
-85.21
-71.50
-53.14
-32.41
-11.85
6.45
21.26
32.21
39.58
43.77
45.18
44.14
41.16
37.08
33.02
30.06
28.89
29.65
31.85
34.77
37.70
40.22
42.19
43.70
44.78
45.36
45.16
43.92
41.47
37.92
33.69
29.39
25.51
22.26
19.46
16.64
13.31
9.28
4.74
0.17
-3.87
-7.10
-9.57
-11.70
-14.03
-17.02
-20.77
-25.08
-29.58
-33.90
-37.88
-41.65
-45.54
-49.93
-55.18
-61.51
-69.01
-77.44
-86.16
-93.89
-98.82
-99.01
-92.99
-80.42
-62.39
-41.16
-19.53
0.06
16.08
28.08
36.38
41.60
44.32
44.94
43.85
41.58
38.84
36.42
35.03
35.04
36.43
38.89
41.95
45.18
48.26
50.99
53.22
54.79
55.47
55.05
53.37
50.43
46.40
41.65
36.66
31.89
27.67
24.08
20.93
17.85
14.46
10.57
6.27
1.88
-2.31
-6.16
-9.84
-13.66
-17.94
-22.73
-27.76
-32.65
-37.06
-40.91
-44.45
-48.24
-52.99
-59.37
-67.72
-77.78
-88.52
-98.10
-104.30
-104.99
-98.87
-85.88
-67.35
-45.62
-23.44
-3.20
13.54
26.26
35.30
41.40
45.30
47.48
48.16
47.48
45.81
43.71
41.90
40.94
41.13
42.43
44.57
47.30
50.36
53.51
56.47
58.81
60.07
59.86
57.92
54.27
49.26
43.44
37.55
32.28
28.06
24.92
22.43
19.97
16.97
13.16
8.67
3.89
-0.73
-4.92
-8.68
-12.20
-15.75
-19.53
-23.51
-27.57
-31.47
-35.01
-38.25
-41.44
-45.06
-49.70
-55.82
-63.65
-72.92
-82.85
-92.04
-98.68
-100.92
-97.35
-87.58
-72.39
-53.65
-33.65
-14.50
2.36
16.33
27.33
35.55
41.12
44.11
44.68
43.18
40.28
36.81
33.71
31.75
31.38
32.73
35.51
39.28
43.52
47.75
51.57
54.56
56.18
55.95
53.60
49.29
43.69
37.76
32.37
27.98
24.50
21.48
18.40
14.85
10.72
6.18
1.57
-2.71
-6.35
-9.20
-11.42
-13.39
-15.60
-18.44
-22.02
-26.22
-30.77
-35.41
-40.01
-44.60
-49.33
-54.46
-60.28
-66.97
-74.40
-81.94
-88.31
-91.85
-90.96
-84.60
-72.74
-56.42
-37.38
-17.75
0.61
16.38
28.84
37.79
43.36
45.76
45.30
42.48
38.11
33.29
29.28
27.09
27.27
29.72
33.80
38.61
43.34
47.33
50.20
51.80
52.09
51.11
49.01
45.97
42.23
38.07
33.81
29.78
26.19
22.95
19.76
16.16
11.86
6.90
1.78
-2.87
-6.49
-8.99
-10.75
-12.42
-14.66
-17.91
-22.25
-27.42
-32.95
-38.36
-43.24
-47.48
-51.41
-55.64
-60.97
-67.98
-76.66
-86.22
-95.04
-100.97
-101.90
-96.39
-84.18
-66.41
-45.32
-23.64
-3.79
12.67
25.30
34.40
40.64
44.61
46.70
47.18
46.39
44.90
43.45
42.69
43.05
44.60
47.08
50.00
52.84
55.21
56.91
57.99
58.56
58.72
58.37
57.28
55.16
51.90
47.68
42.87
37.95
33.29
29.05
25.20
21.55
17.92
14.23
10.51
6.96
3.71
0.87
-1.70
-4.32
-7.40
-11.23
-15.92
-21.23
-26.78
-32.12
-36.96
-41.20
-45.00
-48.66
-52.71
-57.69
-64.09
-72.06
-81.18
-90.31
-97.72
-101.42
-99.69
-91.68
-77.73
-59.35
-38.85
-18.67
-0.76
13.84
24.97
33.10
38.81
42.54
44.45
44.65
43.39
41.24
38.98
37.33
36.81
37.55
39.38
42.01
45.09
48.30
51.34
53.85
55.48
55.92
54.94
52.43
48.47
43.41
37.80
32.35
27.74
24.31
21.95
20.06
17.87
14.78
10.62
5.73
0.78
-3.55
-6.89
-9.25
-11.05
-12.86
-15.17
-18.26
-22.11
-26.46
-30.98
-35.43
-39.79
-44.26
-49.21
-54.99
-61.85
-69.84
-78.62
-87.48
-95.19
-100.14
-100.65
-95.43
-84.13
-67.52
-47.49
-26.46
-6.74
9.99
23.00
32.25
38.10
40.96
41.16
39.11
35.45
31.20
27.54
25.50
25.65
27.91
31.70
36.21
40.75
44.83
48.21
50.74
52.23
52.46
51.24
48.54
44.61
39.87
34.87
30.06
25.74
21.95
18.53
15.18
11.61
7.64
3.31
-1.16
-5.44
-9.25
-12.51
-15.32
-18.04
-21.08
-24.77
-29.21
-34.19
-39.33
-44.20
-48.62
-52.81
-57.33
-62.90
-70.09
-78.96
-88.84
-98.30
-105.39
-108.06
-104.71
-94.71
-78.61
-58.14
-35.72
-13.85
5.46
21.12
32.85
40.96
45.97
48.36
48.52
46.95
44.33
41.50
39.34
38.48
39.20
41.36
44.51
48.09
51.62
54.78
57.45
59.55
60.97
61.48
60.80
58.71
55.19
50.56
45.33
40.10
35.26
30.92
26.88
22.75
18.25
13.37
8.31
3.48
-0.77
-4.28
-7.21
-9.94
-12.95
-16.58
-20.95
-25.92
-31.13
-36.22
-40.95
-45.33
-49.59
-54.13
-59.45
-65.99
-73.93
-82.91
-91.92
-99.27
-102.92
-101.03
-92.59
-77.83
-58.23
-36.12
-14.02
6.00
22.67
35.55
44.73
50.58
53.53
54.00
52.51
49.70
46.39
43.48
41.80
41.80
43.49
46.45
49.99
53.42
56.30
58.53
60.25
61.55
62.34
62.25
60.83
57.78
53.21
47.62
41.74
36.23
31.43
27.31
23.57
19.88
15.97
11.86
7.70
3.76
0.22
-2.86
-5.63
-8.34
-11.31
-14.81
-18.95
-23.68
-28.77
-33.92
-38.88
-43.59
-48.18
-52.96
-58.37
-64.80
-72.40
-80.87
-89.28
-96.19
-99.78
-98.42
-91.16
-78.07
-60.39
-40.14
-19.65
-0.92
14.74
26.80
35.32
40.66
43.19
43.29
41.38
38.08
34.23
30.79
28.65
28.38
30.12
33.57
38.12
43.05
47.69
51.46
54.00
55.06
54.53
52.49
49.17
44.99
40.45
35.99
31.90
28.17
24.53
20.61
16.14
11.03
5.49
-0.09
-5.25
-9.63
-13.13
-15.94
-18.48
-21.25
-24.61
-28.59
-32.94
-37.25
-41.26
-44.99
-48.87
-53.56
-59.70
-67.61
-77.05
-87.14
-96.43
-103.05
-105.09
-101.10
-90.52
-73.99
-53.25
-30.77
-9.07
9.92
25.10
36.25
43.71
48.04
49.77
49.37
47.35
44.36
41.21
38.75
37.69
38.38
40.74
44.34
48.53
52.66
56.25
58.96
60.61
61.09
60.30
58.18
54.75
50.24
45.00
39.57
34.47
30.02
26.29
22.97
19.63
15.89
11.65
7.12
2.68
-1.35
-4.94
-8.35
-11.98
-16.14
-20.89
-25.98
-31.08
-35.90
-40.36
-44.52
-48.67
-53.14
-58.37
-64.73
-72.44
-81.28
-90.32
-98.00
-102.28
-101.31
-93.93
-80.28
-61.74
-40.58
-19.34
-0.07
16.01
28.52
37.69
43.88
47.39
48.43
47.32
44.63
41.27
38.27
36.48
36.33
37.73
40.24
43.30
46.46
49.41
52.03
54.20
55.77
56.53
56.20
54.61
51.71
47.68
42.90
37.91
33.23
29.16
25.74
22.73
19.76
16.57
13.07
9.46
6.04
3.08
0.62
-1.54
-3.82
-6.70
-10.53
-15.37
-20.93
-26.66
-32.05
-36.74
-40.79
-44.61
-48.80
-54.02
-60.70
-68.89
-78.08
-87.14
-94.43
-98.01
-96.20
-88.09
-73.94
-55.21
-34.21
-13.43
5.05
19.99
30.99
38.32
42.54
44.28
44.12
42.60
40.24
37.58
35.12
33.30
32.41
32.56
33.70
35.68
38.25
41.10
43.90
46.30
48.00
48.74
48.40
46.98
44.53
41.16
37.06
32.49
27.77
23.24
19.17
15.65
12.59
9.79
6.98
4.04
0.93
-2.21
-5.20
-7.85
-10.14
-12.18
-14.25
-16.76
-20.04
-24.18
-29.03
-34.15
-39.07
-43.49
-47.41
-51.17
-55.26
-60.18
-66.18
-73.06
-80.09
-86.02
-89.22
-88.04
-81.38
-69.09
-52.19
-32.64
-12.83
5.03
19.49
29.98
36.68
40.20
41.22
40.35
38.08
34.94
31.56
28.64
26.88
26.77
28.45
31.61
35.66
39.85
43.57
46.42
48.27
49.08
48.88
47.69
45.51
42.43
38.64
34.47
30.22
26.17
22.46
19.09
15.93
12.78
9.42
5.75
1.79
-2.22
-5.87
-8.80
-10.86
-12.23
-13.46
-15.20
-17.98
-21.98
-26.96
-32.38
-37.61
-42.20
-46.00
-49.24
-52.50
-56.51
-61.94
-69.11
-77.69
-86.60
-94.08
-98.04
-96.65
-88.90
-75.05
-56.61
-35.99
-15.77
1.94
16.00
26.20
33.03
37.16
39.15
39.36
38.09
35.77
33.05
30.72
29.46
29.60
31.05
33.43
36.22
39.05
41.71
44.14
46.31
48.09
49.21
49.39
48.37
46.11
42.77
38.70
34.31
30.00
26.05
22.50
19.28
16.22
13.14
9.94
6.63
3.30
0.11
-2.88
-5.63
-8.21
-10.79
-13.57
-16.75
-20.44
-24.58
-28.99
-33.39
-37.57
-41.49
-45.31
-49.42
-54.27
-60.26
-67.53
-75.79
-84.16
-91.22
-95.20
-94.45
-87.96
-75.73
-58.91
-39.50
-19.79
-1.78
13.25
24.79
32.96
38.20
41.05
42.02
41.48
39.83
37.46
34.86
32.60
31.30
31.40
33.09
36.15
39.95
43.78
46.98
49.24
50.48
50.79
50.20
48.59
45.86
42.11
37.74
33.41
29.77
27.13
25.33
23.82
21.92
19.13
15.30
10.65
5.68
0.91
-3.17
-6.31
-8.55
-10.23
-11.94
-14.29
-17.63
-21.99
-26.97
-31.99
-36.56
-40.50
-43.99
-47.44
-51.37
-56.24
-62.29
-69.45
-77.08
-84.00
-88.55
-88.97
-83.98
-73.23
-57.50
-38.61
-18.89
-0.61
14.56
25.79
33.02
36.67
37.34
35.64
32.16
27.55
22.72
18.70
16.48
16.65
19.21
23.56
28.70
33.65
37.74
40.68
42.47
43.17
42.85
41.53
39.26
36.22
32.72
29.12
25.75
22.78
20.20
17.89
15.60
13.07
10.12
6.66
2.81
-1.15
-4.87
-8.10
-10.82
-13.32
-16.10
-19.53
-23.73
-28.44
-33.10
-37.20
-40.55
-43.39
-46.40
-50.41
-56.06
-63.55
-72.39
-81.44
-89.06
-93.42
-92.93
-86.66
-74.67
-57.99
-38.52
-18.47
0.09
15.66
27.51
35.66
40.60
42.98
43.40
42.31
40.11
37.31
34.59
32.67
32.21
33.41
36.07
39.61
43.35
46.75
49.54
51.67
53.13
53.83
53.57
52.13
49.44
45.68
41.24
36.61
32.20
28.28
24.86
21.83
18.94
15.96
12.74
9.20
5.45
1.65
-2.06
-5.64
-9.25
-13.18
-17.63
-22.61
-27.85
-32.91
-37.43
-41.33
-44.89
-48.67
-53.24
-59.08
-66.34
-74.81
-83.81
-92.19
-98.37
-100.66
-97.65
-88.66
-74.11
-55.47
-34.92
-14.77
3.11
17.65
28.63
36.43
41.66
44.83
46.20
45.94
44.28
41.72
39.03
37.03
36.38
37.35
39.76
43.15
46.98
50.72
53.98
56.47
57.94
58.21
57.16
54.82
51.34
47.01
42.22
37.40
32.92
28.98
25.56
22.44
19.27
15.79
11.95
7.92
4.03
0.58
-2.27
-4.59
-6.74
-9.14
-12.20
-16.11
-20.76
-25.75
-30.62
-35.00
-38.83
-42.39
-46.28
-51.11
-57.33
-64.94
-73.41
-81.64
-88.06
-90.93
-88.75
-80.74
-67.18
-49.51
-29.96
-10.94
5.66
18.86
28.59
35.37
39.79
42.22
42.80
41.64
39.08
35.83
32.77
30.74
30.24
31.33
33.73
36.97
40.58
44.17
47.41
49.97
51.57
51.99
51.15
49.20
46.40
43.11
39.63
36.10
32.55
28.91
25.08
20.96
16.54
11.89
7.22
2.81
-1.08
-4.29
-6.93
-9.29
-11.82
-14.93
-18.80
-23.32
-28.15
-32.86
-37.08
-40.74
-44.07
-47.62
-52.07
-57.93
-65.26
-73.40
-80.99
-86.16
-87.07
-82.40
-71.87
-56.34
-37.64
-18.08
0.13
15.36
26.85
34.54
38.89
40.51
39.98
37.83
34.65
31.13
28.04
26.05
25.62
26.81
29.42
33.02
37.07
41.05
44.46
46.92
48.21
48.24
47.12
44.97
42.00
38.40
34.41
30.33
26.40
22.69
19.08
15.26
10.93
6.02
0.76
-4.40
-9.00
-12.78
-15.91
-18.77
-21.82
-25.34
-29.31
-33.51
-37.59
-41.41
-45.00
-48.70
-53.02
-58.49
-65.47
-73.89
-83.06
-91.60
-97.63
-99.15
-94.69
-83.84
-67.39
-47.31
-26.04
-5.95
11.35
25.06
35.14
41.91
45.79
47.15
46.37
44.04
40.97
38.10
36.28
36.09
37.54
40.27
43.63
47.03
50.09
52.68
54.79
56.36
57.11
56.72
54.92
51.70
47.37
42.47
37.56
33.00
28.87
24.99
21.05
16.83
12.25
7.42
2.56
-2.11
-6.49
-10.61
-14.63
-18.76
-23.13
-27.69
-32.19
-36.35
-39.94
-43.03
-45.97
-49.30
-53.63
-59.44
-66.87
-75.53
-84.43
-91.93
-96.03
-94.84
-87.20
-73.16
-54.15
-32.60
-11.21
7.76
23.07
34.40
42.13
46.86
49.08
49.21
47.64
44.92
41.77
39.07
37.51
37.53
39.10
41.84
45.15
48.49
51.50
54.09
56.29
58.05
59.15
59.14
57.58
54.26
49.38
43.56
37.68
32.43
28.20
24.85
21.92
18.84
15.22
11.03
6.55
2.19
-1.70
-5.02
-7.97
-10.92
-14.33
-18.47
-23.30
-28.51
-33.62
-38.16
-41.96
-45.18
-48.33
-52.07
-56.97
-63.36
-71.14
-79.66
-87.75
-93.77
-95.94
-92.75
-83.50
-68.61
-49.63
-28.85
-8.66
9.02
23.11
33.32
39.93
43.38
44.17
42.75
39.65
35.53
31.23
27.61
25.39
25.00
26.43
29.33
33.08
37.06
40.80
43.99
46.44
48.01
48.50
47.68
45.41
41.80
37.22
32.17
27.15
22.43
18.02
13.76
9.45
5.04
0.66
-3.44
-7.02
-10.02
-12.57
-14.98
-17.66
-20.88
-24.73
-29.03
-33.44
-37.64
-41.51
-45.19
-49.16
-53.97
-60.10
-67.68
-76.28
-84.84
-91.78
-95.25
-93.56
-85.77
-72.03
-53.67
-32.92
-12.23
6.36
21.62
33.20
41.31
46.28
48.42
47.98
45.41
41.52
37.39
34.12
32.51
32.83
34.81
37.92
41.56
45.23
48.64
51.55
53.71
54.80
54.56
52.85
49.78
45.70
41.11
36.44
31.96
27.65
23.30
18.65
13.55
8.10
2.58
-2.65
-7.29
-11.25
-14.70
-17.99
-21.55
-25.67
-30.37
-35.41
-40.36
-44.85
-48.78
-52.38
-56.17
-60.84
-67.01
-75.00
-84.54
-94.66
-103.64
-109.33
-109.69
-103.40
-90.38
-71.83
-49.99
-27.45
-6.51
11.27
25.19
35.24
41.77
45.28
46.33
45.50
43.42
40.82
38.38
36.72
36.24
37.11
39.24
42.36
46.07
49.95
53.58
56.57
58.58
59.35
58.68
56.49
52.91
48.27
43.15
38.19
33.91
30.48
27.66
24.93
21.76
17.88
13.38
8.61
4.00
-0.27
-4.23
-8.12
-12.18
-16.46
-20.88
-25.28
-29.56
-33.77
-38.07
-42.66
-47.73
-53.44
-59.96
-67.40
-75.67
-84.25
-92.09
-97.64
-99.15
-95.20
-85.14
-69.36
-49.30
-27.10
-5.06
14.84
31.24
43.54
51.74
56.18
57.39
55.97
52.66
48.33
44.00
40.67
39.11
39.62
41.99
45.63
49.78
53.75
57.10
59.60
61.13
61.66
61.08
59.30
56.33
52.30
47.57
42.59
37.84
33.61
29.93
26.58
23.20
19.52
15.41
11.01
6.60
2.46
-1.27
-4.60
-7.76
-11.04
-14.75
-19.08
-23.96
-29.10
-34.01
-38.28
-41.79
-44.88
-48.21
-52.61
-58.63
-66.36
-75.18
-83.87
-90.78
-94.12
-92.36
-84.65
-71.04
-52.72
-31.69
-10.37
9.03
25.00
36.88
44.71
48.90
49.97
48.41
44.87
40.19
35.48
31.85
30.15
30.68
33.16
36.91
41.16
45.26
48.82
51.60
53.45
54.24
53.78
52.00
48.98
44.91
40.14
35.04
29.98
25.23
20.93
17.05
13.43
9.92
6.39
2.92
-0.31
-3.12
-5.47
-7.65
-10.14
-13.45
-17.86
-23.26
-29.15
-34.89
-39.95
-44.16
-47.76
-51.24
-55.21
-60.12
-66.28
-73.60
-81.58
-89.16
-94.80
-96.69
-93.23
-83.65
-68.30
-48.77
-27.41
-6.64
11.58
26.18
36.88
43.95
47.84
49.11
48.30
46.05
43.10
40.15
37.84
36.60
36.62
37.84
39.98
42.60
45.27
47.69
49.72
51.42
52.79
53.74
53.94
52.97
50.55
46.66
41.61
35.96
30.31
25.08
20.55
16.74
13.48
10.49
7.48
4.27
0.90
-2.36
-5.23
-7.60
-9.72
-12.17
-15.53
-20.09
-25.66
-31.63
-37.27
-42.13
-46.21
-49.89
-53.81
-58.49
-64.23
-70.99
-78.40
-85.69
-91.72
-94.97
-93.95
-87.57
-75.62
-58.99
-39.53
-19.54
-1.14
14.22
25.98
34.32
39.81
43.09
44.61
44.65
43.43
41.27
38.66
36.23
34.58
34.14
34.99
36.97
39.71
42.82
45.93
48.72
50.84
51.96
51.86
50.51
48.10
44.97
41.46
37.76
33.94
29.97
25.86
21.73
17.78
14.14
10.80
7.65
4.50
1.30
-1.87
-4.82
-7.43
-9.74
-12.00
-14.57
-17.70
-21.46
-25.70
-30.16
-34.59
-38.81
-42.81
-46.63
-50.38
-54.22
-58.44
-63.32
-69.14
-75.79
-82.68
-88.63
-91.98
-91.07
-84.75
-72.78
-56.10
-36.63
-16.73
1.47
16.50
27.74
35.21
39.27
40.34
38.89
35.53
31.12
26.68
23.20
21.29
21.12
22.43
24.74
27.55
30.48
33.30
35.91
38.18
39.98
41.14
41.46
40.78
39.04
36.34
32.84
28.79
24.43
20.01
15.71
11.71
8.11
4.96
2.18
-0.36
-2.78
-5.16
-7.42
-9.55
-11.56
-13.66
-16.12
-19.19
-22.96
-27.29
-31.89
-36.36
-40.38
-43.82
-46.79
-49.69
-53.09
-57.53
-63.38
-70.53
-78.34
-85.67
-91.03
-92.94
-90.23
-82.35
-69.56
-52.96
-34.26
-15.43
1.70
15.86
26.49
33.67
37.84
39.48
39.07
37.01
33.76
30.00
26.51
24.06
23.14
23.92
26.21
29.60
33.57
37.65
41.37
44.37
46.35
47.11
46.62
44.92
42.19
38.66
34.62
30.40
26.31
22.55
19.15
15.92
12.60
8.94
4.86
0.51
-3.75
-7.52
-10.57
-12.94
-15.00
-17.33
-20.48
-24.75
-30.06
-35.98
-41.91
-47.32
-52.00
-56.11
-60.08
-64.53
-70.05
-76.94
-84.96
-93.23
-100.17
-103.81
-102.35
-94.73
-81.03
-62.57
-41.50
-20.25
-0.87
15.31
27.79
36.64
42.28
45.19
45.79
44.52
41.94
38.73
35.66
33.46
32.61
33.29
35.35
38.47
42.24
46.23
50.06
53.43
56.05
57.74
58.32
57.66
55.69
52.49
48.32
43.64
38.95
34.63
30.73
27.04
23.20
18.99
14.46
9.93
5.81
2.39
-0.34
-2.67
-5.02
-7.86
-11.50
-16.00
-21.21
-26.73
-32.07
-36.82
-40.82
-44.20
-47.47
-51.33
-56.54
-63.63
-72.69
-83.08
-93.32
-101.24
-104.44
-101.01
-90.17
-72.69
-50.71
-27.17
-4.91
13.97
28.52
38.78
45.42
49.25
50.93
50.87
49.40
46.94
44.09
41.56
40.07
40.01
41.47
44.15
47.58
51.26
54.77
57.86
60.32
61.96
62.56
61.91
59.91
56.64
52.35
47.44
42.37
37.51
33.12
29.21
25.60
21.97
18.00
13.56
8.80
4.13
-0.03
-3.39
-6.00
-8.29
-10.88
-14.26
-18.67
-23.89
-29.41
-34.65
-39.28
-43.34
-47.30
-51.87
-57.68
-65.10
-73.92
-83.30
-91.83
-97.70
-99.08
-94.54
-83.56
-66.79
-45.99
-23.64
-2.22
16.32
30.96
41.56
48.46
52.19
53.22
51.99
49.03
45.00
40.73
37.02
34.61
33.93
35.19
38.24
42.61
47.65
52.60
56.77
59.60
60.75
60.02
57.42
53.18
47.83
42.06
36.65
32.11
28.58
25.73
22.93
19.62
15.38
10.23
4.49
-1.32
-6.66
-11.23
-15.01
-18.28
-21.48
-25.01
-29.03
-33.43
-38.01
-42.54
-47.05
-51.71
-56.91
-63.03
-70.37
-78.88
-87.97
-96.34
-102.09
-103.16
-98.03
-86.26
-68.80
-47.73
-25.58
-4.63
13.56
28.28
39.38
46.95
51.17
52.29
50.77
47.34
43.02
38.96
36.14
35.22
36.31
39.08
42.90
47.11
51.22
54.96
58.18
60.71
62.28
62.52
61.20
58.32
54.18
49.29
44.22
39.38
34.94
30.83
26.83
22.66
18.12
13.13
7.85
2.65
-2.06
-5.96
-9.09
-11.86
-14.93
-18.87
-23.95
-29.91
-36.09
-41.73
-46.33
-49.89
-52.93
-56.35
-61.08
-67.72
-76.29
-86.07
-95.66
-103.16
-106.55
-104.19
-95.27
-80.07
-59.99
-37.25
-14.34
6.48
23.70
36.62
45.30
50.26
52.16
51.66
49.34
45.90
42.12
38.92
37.11
37.19
39.18
42.60
46.67
50.56
53.69
55.86
57.15
57.78
57.93
57.55
56.41
54.28
51.04
46.81
41.90
36.71
31.61
26.87
22.61
18.83
15.50
12.50
9.73
7.09
4.49
1.85
-0.95
-4.04
-7.58
-11.67
-16.28
-21.21
-26.19
-30.95
-35.27
-39.09
-42.51
-45.69
-48.98
-52.83
-57.67
-63.87
-71.51
-80.19
-88.93
-96.23
-100.27
-99.36
-92.37
-79.22
-61.05
-39.95
-18.46
1.08
17.18
29.29
37.63
42.74
45.13
45.13
43.10
39.59
35.43
31.67
29.20
28.55
29.79
32.54
36.27
40.42
44.49
48.06
50.80
52.41
52.75
51.76
49.53
46.19
41.96
37.19
32.27
27.63
23.60
20.23
17.35
14.57
11.55
8.11
4.33
0.50
-3.03
-6.02
-8.47
-10.58
-12.70
-15.21
-18.41
-22.40
-27.04
-31.97
-36.79
-41.12
-44.80
-47.92
-50.84
-54.18
-58.63
-64.75
-72.59
-81.43
-89.69
-95.16
-95.61
-89.58
-76.88
-58.80
-37.70
-16.28
3.16
19.16
31.23
39.50
44.41
46.47
46.15
43.95
40.51
36.64
33.20
31.00
30.48
31.75
34.48
38.09
41.94
45.53
48.49
50.67
51.99
52.34
51.65
49.80
46.77
42.71
37.94
32.89
28.00
23.58
19.77
16.45
13.36
10.22
6.85
3.30
-0.28
-3.68
-6.81
-9.75
-12.75
-16.12
-20.08
-24.68
-29.76
-34.95
-39.83
-44.03
-47.48
-50.38
-53.33
-57.10
-62.43
-69.73
-78.77
-88.51
-97.20
-102.66
-102.86
-96.53
-83.62
-65.45
-44.30
-22.82
-3.31
12.73
24.73
32.90
37.86
40.33
40.94
40.19
38.52
36.33
34.10
32.35
31.56
32.01
33.77
36.58
40.04
43.71
47.25
50.45
53.11
54.93
55.51
54.46
51.67
47.36
42.12
36.71
31.78
27.67
24.38
21.58
18.85
15.79
12.22
8.24
4.15
0.37
-2.80
-5.31
-7.48
-9.84
-12.98
-17.18
-22.34
-27.99
-33.52
-38.46
-42.67
-46.42
-50.23
-54.72
-60.35
-67.27
-75.11
-83.01
-89.57
-93.15
-92.18
-85.69
-73.64
-57.13
-38.07
-18.73
-1.11
13.47
24.51
32.13
36.76
38.89
38.95
37.36
34.65
31.46
28.52
26.46
25.72
26.48
28.67
31.96
35.86
39.80
43.23
45.72
47.02
47.09
46.00
43.93
41.09
37.73
34.17
30.67
27.47
24.63
22.00
19.34
16.38
12.93
9.06
4.98
1.05
-2.42
-5.29
-7.69
-10.01
-12.73
-16.21
-20.50
-25.30
-30.12
-34.54
-38.39
-41.92
-45.62
-50.07
-55.68
-62.49
-70.08
-77.52
-83.43
-86.21
-84.40
-77.13
-64.47
-47.51
-28.16
-8.63
9.10
23.67
34.47
41.50
45.13
45.87
44.29
41.05
36.94
32.85
29.72
28.22
28.67
30.91
34.35
38.24
41.94
45.01
47.27
48.68
49.20
48.68
47.06
44.36
40.78
36.73
32.61
28.75
25.23
21.90
18.46
14.62
10.23
5.36
0.34
-4.40
-8.46
-11.71
-14.36
-16.85
-19.71
-23.22
-27.36
-31.81
-36.13
-39.96
-43.23
-46.24
-49.55
-53.93
-60.02
-68.08
-77.64
-87.47
-95.57
-99.70
-97.92
-89.31
-74.26
-54.47
-32.49
-11.00
7.86
22.88
33.77
40.90
44.83
46.10
45.13
42.42
38.67
34.86
31.92
30.57
30.99
32.89
35.65
38.75
41.85
44.88
47.80
50.41
52.32
52.98
52.00
49.35
45.41
40.87
36.37
32.33
28.75
25.35
21.73
17.65
13.15
8.52
4.17
0.39
-2.81
-5.66
-8.60
-12.03
-16.20
-21.06
-26.29
-31.44
-36.05
-39.82
-42.79
-45.39
-48.30
-52.34
-58.17
-65.97
-75.20
-84.46
-91.72
-94.69
-91.51
-81.38
-64.94
-44.22
-22.03
-1.23
16.07
28.89
37.29
41.95
43.77
43.52
41.87
39.47
36.97
34.93
33.75
33.55
34.23
35.59
37.43
39.65
42.14
44.78
47.34
49.57
51.14
51.72
51.04
48.96
45.53
41.02
35.90
30.62
25.57
20.86
16.50
12.34
8.35
4.53
0.97
-2.30
-5.29
-8.12
-10.99
-14.08
-17.54
-21.37
-25.46
-29.58
-33.56
-37.33
-41.07
-45.15
-50.10
-56.33
-63.90
-72.36
-80.60
-87.02
-89.81
-87.51
-79.40
-65.88
-48.40
-29.15
-10.43
5.88
18.69
27.74
33.39
36.27
37.00
36.12
34.06
31.27
28.37
26.01
24.89
25.40
27.55
30.94
34.89
38.69
41.83
44.08
45.41
45.83
45.33
43.85
41.40
38.11
34.27
30.14
25.94
21.70
17.43
13.11
8.79
4.55
0.47
-3.45
-7.26
-11.00
-14.70
-18.40
-22.09
-25.82
-29.49
-33.05
-36.35
-39.38
-42.36
-45.80
-50.36
-56.67
-64.95
-74.71
-84.65
-92.79
-96.87
-94.97
-86.24
-71.19
-51.66
-30.33
-9.86
7.75
21.55
31.54
38.25
42.31
44.23
44.35
43.04
40.77
38.22
36.08
34.90
34.99
36.32
38.67
41.67
44.93
48.10
50.90
53.05
54.21
54.09
52.48
49.37
45.03
39.95
34.76
29.93
25.73
22.12
18.87
15.69
12.36
8.84
5.21
1.57
-2.05
-5.77
-9.78
-14.25
-19.19
-24.34
-29.34
-33.86
-37.82
-41.47
-45.36
-50.16
-56.44
-64.44
-73.91
-83.96
-93.11
-99.41
-100.90
-96.13
-84.71
-67.60
-46.85
-25.09
-4.72
12.66
26.43
36.73
44.01
48.68
50.97
51.09
49.42
46.63
43.65
41.40
40.49
41.08
42.89
45.43
48.23
51.03
53.76
56.37
58.61
60.09
60.26
58.76
55.54
50.99
45.76
40.54
35.84
31.90
28.64
25.74
22.83
19.55
15.73
11.38
6.82
2.50
-1.19
-4.11
-6.50
-8.90
-11.88
-15.82
-20.66
-26.01
-31.37
-36.35
-40.89
-45.27
-50.03
-55.71
-62.69
-70.90
-79.77
-88.13
-94.41
-96.88
-94.12
-85.46
-71.22
-52.73
-32.02
-11.36
7.32
22.71
34.35
42.30
47.00
48.95
48.63
46.56
43.37
39.89
37.00
35.42
35.52
37.22
40.07
43.44
46.74
49.57
51.74
53.22
53.95
53.88
52.83
50.68
47.45
43.37
38.87
34.39
30.26
26.56
23.13
19.72
16.07
12.05
7.72
3.29
-0.95
-4.66
-7.62
-9.84
-11.61
-13.44
-15.89
-19.29
-23.63
-28.56
-33.64
-38.54
-43.22
-47.86
-52.77
-58.23
-64.42
-71.35
-78.81
-86.19
-92.37
-95.77
-94.73
-88.00
-75.35
-57.73
-37.16
-16.13
3.08
18.87
30.61
38.43
42.91
44.70
44.42
42.49
39.38
35.71
32.24
29.86
29.21
30.56
33.63
37.75
42.08
45.89
48.72
50.38
50.86
50.26
48.67
46.22
43.04
39.31
35.17
30.72
26.03
21.12
16.01
10.75
5.46
0.34
-4.37
-8.48
-11.92
-14.79
-17.37
-20.04
-23.10
-26.67
-30.65
-34.82
-38.95
-42.85
-46.53
-50.15
-54.14
-59.00
-65.27
-73.16
-82.25
-91.27
-98.23
-100.82
-97.21
-86.66
-69.90
-48.94
-26.48
-5.17
13.10
27.39
37.60
44.15
47.61
48.52
47.38
44.76
41.40
38.11
35.63
34.51
34.94
36.76
39.58
42.92
46.31
49.37
51.83
53.50
54.23
53.92
52.47
49.90
46.33
42.05
37.45
32.98
28.93
25.39
22.24
19.23
16.13
12.83
9.32
5.71
2.09
-1.44
-4.86
-8.22
-11.62
-15.22
-19.13
-23.32
-27.64
-31.81
-35.61
-38.99
-42.17
-45.65
-50.01
-55.80
-63.27
-72.28
-82.19
-91.83
-99.55
-103.53
-102.22
-94.76
-81.39
-63.43
-43.02
-22.47
-3.79
11.84
24.00
32.92
39.03
42.76
44.37
44.05
42.18
39.38
36.50
34.40
33.73
34.69
37.06
40.34
44.01
47.58
50.77
53.38
55.21
56.06
55.77
54.25
51.57
48.00
43.91
39.71
35.76
32.22
29.06
26.11
23.13
19.99
16.68
13.34
10.08
6.99
4.06
1.24
-1.45
-4.03
-6.55
-9.20
-12.28
-16.04
-20.55
-25.65
-30.96
-36.04
-40.62
-44.61
-48.20
-51.80
-55.95
-61.16
-67.77
-75.76
-84.51
-92.77
-98.78
-100.63
-96.82
-86.69
-70.73
-50.56
-28.58
-7.38
10.89
24.97
34.55
40.09
42.41
42.31
40.52
37.58
34.10
30.71
28.09
26.80
27.10
28.93
31.94
35.63
39.47
43.10
46.20
48.63
50.22
50.80
50.19
48.31
45.19
41.11
36.49
31.87
27.72
24.29
21.58
19.39
17.35
15.10
12.38
9.12
5.42
1.59
-2.00
-5.14
-7.76
-10.10
-12.55
-15.51
-19.19
-23.55
-28.28
-32.96
-37.28
-41.14
-44.72
-48.39
-52.63
-57.84
-64.32
-72.02
-80.57
-89.01
-95.90
-99.42
-97.86
-90.09
-76.12
-57.22
-35.64
-14.01
5.35
21.02
32.55
40.23
44.69
46.54
46.26
44.25
41.07
37.44
34.22
32.18
31.79
33.13
35.90
39.59
43.65
47.58
50.98
53.54
55.04
55.33
54.40
52.39
49.59
46.30
42.82
39.32
35.87
32.46
29.08
25.71
22.33
18.92
15.38
11.62
7.62
3.52
-0.44
-3.97
-6.87
-9.24
-11.38
-13.80
-16.93
-20.98
-25.82
-31.04
-36.17
-40.85
-45.03
-48.91
-52.91
-57.52
-63.21
-70.26
-78.64
-87.79
-96.53
-103.02
-105.23
-101.44
-90.88
-74.16
-53.20
-30.69
-9.37
8.74
22.68
32.47
38.75
42.24
43.52
42.96
40.88
37.81
34.49
31.83
30.60
31.19
33.53
37.16
41.39
45.58
49.28
52.24
54.36
55.55
55.76
54.85
52.78
49.64
45.69
41.34
37.06
33.21
29.89
26.98
24.12
20.99
17.40
13.42
9.29
5.29
1.64
-1.64
-4.60
-7.38
-10.11
-12.88
-15.79
-18.93
-22.42
-26.33
-30.57
-34.97
-39.28
-43.35
-47.28
-51.44
-56.36
-62.58
-70.23
-78.88
-87.39
-94.08
-97.06
-94.77
-86.46
-72.46
-54.17
-33.71
-13.43
4.69
19.39
30.18
37.26
41.15
42.48
41.82
39.73
36.73
33.47
30.59
28.71
28.27
29.40
31.92
35.36
39.09
42.55
45.30
47.13
48.01
47.97
47.03
45.20
42.49
39.06
35.17
31.17
27.34
23.83
20.57
17.40
14.12
10.63
6.93
3.11
-0.68
-4.28
-7.58
-10.54
-13.25
-15.87
-18.67
-21.80
-25.34
-29.15
-32.99
-36.65
-40.07
-43.42
-47.11
-51.73
-57.81
-65.53
-74.51
-83.61
-91.07
-94.80
-92.97
-84.67
-70.28
-51.40
-30.45
-9.91
8.29
23.06
34.05
41.33
45.14
45.77
43.75
39.93
35.49
31.66
29.33
28.85
29.97
32.15
34.89
37.93
41.24
44.78
48.33
51.49
53.75
54.66
53.99
51.78
48.24
43.75
38.78
33.77
29.13
25.08
21.61
18.39
14.96
10.96
6.34
1.42
-3.23
-7.07
-9.95
-12.15
-14.33
-17.15
-21.01
-25.77
-30.89
-35.67
-39.71
-43.07
-46.30
-50.19
-55.47
-62.49
-71.09
-80.57
-89.71
-96.87
-100.31
-98.44
-90.36
-76.22
-57.36
-36.03
-14.78
4.19
19.58
31.02
38.86
43.67
46.03
46.34
45.04
42.64
39.87
37.47
36.05
35.92
37.05
39.16
41.90
44.95
48.07
51.11
53.88
56.11
57.48
57.67
56.46
53.83
49.97
45.24
40.11
35.02
30.27
25.95
21.99
18.10
14.09
9.87
5.58
1.57
-1.87
-4.62
-6.92
-9.22
-12.04
-15.64
-19.98
-24.68
-29.28
-33.46
-37.23
-40.93
-45.15
-50.51
-57.43
-65.88
-75.15
-83.87
-90.19
-92.22
-88.63
-79.05
-64.32
-46.17
-26.80
-8.27
7.98
21.16
31.15
38.15
42.48
44.42
44.25
42.30
39.13
35.50
32.28
30.30
30.09
31.70
34.79
38.69
42.65
46.13
48.81
50.60
51.52
51.53
50.53
48.41
45.20
41.14
36.71
32.44
28.70
25.49
22.50
19.22
15.27
10.61
5.56
0.67
-3.53
-6.82
-9.29
-11.38
-13.60
-16.42
-20.01
-24.24
-28.76
-33.09
-36.93
-40.25
-43.45
-47.18
-52.14
-58.69
-66.65
-75.09
-82.47
-86.90
-86.60
-80.46
-68.45
-51.68
-32.21
-12.46
5.37
19.85
30.42
37.28
40.93
41.95
40.84
38.06
34.23
30.20
26.93
25.16
25.24
26.96
29.77
33.05
36.36
39.55
42.58
45.32
47.41
48.36
47.72
45.39
41.60
36.92
31.96
27.22
22.93
19.07
15.50
12.01
8.41
4.66
0.80
-3.03
-6.67
-10.05
-13.23
-16.44
-19.92
-23.83
-28.08
-32.39
-36.41
-39.92
-43.02
-46.11
-49.82
-54.81
-61.46
-69.73
-78.90
-87.65
-94.20
-96.62
-93.39
-83.88
-68.66
-49.46
-28.75
-9.03
7.82
20.92
30.29
36.54
40.39
42.36
42.69
41.53
39.18
36.23
33.40
31.41
30.75
31.57
33.67
36.73
40.35
44.17
47.79
50.81
52.74
53.17
51.77
48.54
43.80
38.17
32.42
27.26
23.01
19.62
16.69
13.72
10.40
6.72
2.92
-0.71
-4.03
-7.08
-10.14
-13.44
-17.13
-21.18
-25.39
-29.46
-33.21
-36.60
-39.91
-43.61
-48.25
-54.23
-61.65
-70.14
-78.83
-86.40
-91.26
-91.84
-87.03
-76.54
-61.24
-42.95
-23.96
-6.38
8.44
20.04
28.63
34.67
38.52
40.38
40.38
38.86
36.29
33.33
30.69
28.96
28.51
29.51
31.86
35.24
39.17
43.10
46.56
49.16
50.54
50.43
48.70
45.42
40.98
36.01
31.16
26.97
23.57
20.71
17.94
14.83
11.12
6.91
2.55
-1.50
-4.90
-7.53
-9.59
-11.51
-13.71
-16.42
-19.61
-23.07
-26.64
-30.36
-34.42
-39.05
-44.38
-50.36
-56.86
-63.76
-70.81
-77.50
-82.76
-85.12
-83.02
-75.48
-62.60
-45.64
-26.76
-8.22
8.12
21.19
30.67
36.69
39.59
39.81
37.86
34.44
30.43
26.76
24.26
23.48
24.60
27.43
31.53
36.30
41.11
45.34
48.35
49.64
48.95
46.37
42.36
37.66
33.01
28.94
25.62
22.87
20.34
17.66
14.55
10.87
6.64
2.09
-2.46
-6.60
-10.09
-12.92
-15.41
-18.01
-21.18
-25.05
-29.51
-34.25
-38.94
-43.43
-47.81
-52.34
-57.46
-63.62
-71.02
-79.44
-87.96
-94.91
-98.28
-96.19
-87.60
-72.77
-53.26
-31.50
-10.12
8.74
23.84
34.86
42.13
46.25
47.80
47.27
45.18
42.23
39.23
37.09
36.44
37.52
40.08
43.58
47.42
51.15
54.46
57.16
59.01
59.72
59.02
56.80
53.22
48.71
43.80
38.99
34.59
30.64
26.93
23.13
18.96
14.34
9.47
4.74
0.55
-2.93
-5.83
-8.61
-11.83
-15.87
-20.83
-26.39
-32.02
-37.20
-41.63
-45.37
-48.79
-52.48
-57.09
-63.13
-70.72
-79.50
-88.46
-96.04
-100.31
-99.47
-92.38
-78.97
-60.48
-39.10
-17.42
2.25
18.45
30.70
39.28
44.83
47.92
48.98
48.34
46.43
43.84
41.34
39.64
39.24
40.24
42.45
45.45
48.75
51.92
54.65
56.73
58.06
58.58
58.25
57.00
54.79
51.62
47.58
42.85
37.73
32.60
27.80
23.58
20.00
16.92
14.09
11.26
8.29
5.26
2.31
-0.46
-3.12
-5.93
-9.21
-13.19
-17.85
-22.98
-28.19
-33.13
-37.51
-41.29
-44.62
-47.89
-51.63
-56.44
-62.72
-70.56
-79.44
-88.23
-95.28
-98.72
-96.95
-89.11
-75.46
-57.40
-37.12
-17.03
0.89
15.48
26.42
34.04
38.79
41.12
41.32
39.69
36.74
33.15
29.73
27.26
26.26
26.88
28.98
32.18
36.06
40.25
44.58
48.96
53.28
57.23
60.25
61.68
61.03
58.17
53.57
48.03
42.50
37.68
33.80
30.65
27.72
24.44
20.41
15.61
10.33
5.15
0.65
-2.89
-5.61
-8.07
-11.05
-15.17
-20.53
-26.78
-33.21
-39.09
-44.03
-48.11
-51.79
-55.79
-60.79
-67.23
-75.02
-83.48
-91.30
-96.83
-98.33
-94.42
-84.59
-69.37
-50.29
-29.57
-9.54
7.96
21.85
31.96
38.66
42.52
44.01
43.43
41.14
37.73
34.09
31.25
30.02
30.73
33.12
36.56
40.32
43.80
46.70
48.96
50.64
51.69
52.01
51.34
49.55
46.63
42.88
38.77
34.79
31.14
27.70
24.10
19.98
15.22
10.08
5.12
0.86
-2.36
-4.62
-6.29
-7.90
-10.05
-13.15
-17.39
-22.64
-28.48
-34.31
-39.58
-43.95
-47.51
-50.73
-54.37
-59.23
-65.99
-74.90
-85.53
-96.57
-106.00
-111.37
-110.60
-102.62
-87.82
-68.01
-45.86
-24.12
-5.07
9.96
20.67
27.51
31.39
33.28
33.96
33.93
33.42
32.62
31.79
31.34
31.57
32.66
34.54
36.98
39.77
42.78
45.94
49.06
51.80
53.71
54.33
53.46
51.10
47.51
43.06
38.23
33.48
29.24
25.75
22.94
20.47
17.81
14.59
10.74
6.54
2.39
-1.29
-4.36
-6.97
-9.47
-12.23
-15.53
-19.48
-23.98
-28.78
-33.58
-38.20
-42.68
-47.32
-52.57
-58.93
-66.72
-75.85
-85.64
-94.78
-101.42
-103.56
-99.54
-88.80
-72.10
-51.53
-29.85
-9.74
6.96
19.55
28.26
33.83
36.98
38.20
37.76
35.87
32.92
29.61
26.82
25.40
25.90
28.34
32.24
36.80
41.26
45.09
48.09
50.19
51.32
51.27
49.84
46.99
43.00
38.49
34.16
30.54
27.75
25.57
23.51
21.00
17.65
13.34
8.32
3.13
-1.58
-5.31
-7.93
-9.76
-11.45
-13.64
-16.68
-20.62
-25.14
-29.79
-34.20
-38.20
-41.88
-45.57
-49.80
-55.13
-61.90
-70.00
-78.58
-86.16
-90.84
-90.81
-84.90
-72.95
-55.98
-35.95
-15.25
3.87
19.75
31.59
39.32
43.31
44.10
42.32
38.68
34.08
29.58
26.23
24.75
25.41
27.92
31.65
35.93
40.13
43.82
46.72
48.61
49.33
48.82
47.12
44.40
40.93
37.02
32.98
29.11
25.52
22.18
18.88
15.34
11.42
7.27
3.20
-0.39
-3.32
-5.74
-8.10
-10.92
-14.53
-18.96
-23.90
-28.91
-33.57
-37.69
-41.32
-44.80
-48.65
-53.50
-59.91
-68.14
-77.93
-88.25
-97.34
-102.99
-103.07
-96.23
-82.44
-63.13
-40.86
-18.51
1.49
17.70
29.80
38.22
43.68
46.81
47.99
47.48
45.63
43.01
40.40
38.58
38.16
39.36
42.03
45.68
49.72
53.56
56.83
59.30
60.89
61.48
60.91
59.02
55.77
51.38
46.28
41.10
36.37
32.42
29.19
26.31
23.29
19.72
15.55
11.10
6.88
3.36
0.65
-1.62
-4.14
-7.58
-12.25
-17.90
-23.84
-29.29
-33.76
-37.23
-40.14
-43.20
-47.13
-52.54
-59.72
-68.60
-78.50
-88.04
-95.29
-98.12
-94.87
-84.90
-68.98
-49.01
-27.58
-7.14
10.51
24.50
34.74
41.62
45.64
47.23
46.80
44.79
41.86
38.83
36.53
35.55
36.09
37.94
40.66
43.75
46.86
49.82
52.52
54.80
56.38
56.91
56.01
53.53
49.61
44.69
39.44
34.53
30.40
27.14
24.40
21.66
18.38
14.33
9.67
4.90
0.57
-2.97
-5.73
-8.12
-10.67
-13.88
-17.89
-22.51
-27.29
-31.80
-35.77
-39.26
-42.58
-46.21
-50.64
-56.22
-63.03
-70.75
-78.51
-84.94
-88.35
-87.17
-80.40
-68.08
-51.30
-32.01
-12.49
5.32
20.09
31.27
38.93
43.42
45.15
44.53
41.99
38.13
33.76
29.83
27.21
26.46
27.65
30.37
33.92
37.62
40.93
43.57
45.41
46.37
46.36
45.28
43.10
39.98
36.25
32.29
28.45
24.88
21.49
18.08
14.35
10.20
5.70
1.19
-2.87
-6.09
-8.37
-9.96
-11.43
-13.41
-16.32
-20.25
-24.90
-29.76
-34.39
-38.59
-42.49
-46.51
-51.20
-57.06
-64.37
-72.95
-82.07
-90.34
-95.93
-96.90
-91.80
-80.19
-62.99
-42.27
-20.74
-0.95
15.31
27.39
35.53
40.51
43.07
43.78
42.95
40.91
38.13
35.32
33.27
32.59
33.53
35.87
39.11
42.61
45.84
48.48
50.37
51.46
51.66
50.89
49.09
46.28
42.66
38.52
34.24
30.12
26.29
22.64
18.91
14.82
10.24
5.36
0.64
-3.39
-6.37
-8.30
-9.66
-11.14
-13.40
-16.75
-21.08
-25.88
-30.56
-34.69
-38.21
-41.44
-44.96
-49.42
-55.37
-62.98
-71.98
-81.50
-89.96
-95.39
-95.84
-90.03
-77.83
-60.45
-40.12
-19.47
-0.79
14.44
25.68
33.16
37.48
39.38
39.54
38.60
37.08
35.45
34.11
33.37
33.43
34.40
36.19
38.61
41.33
44.04
46.47
48.49
49.97
50.78
50.76
49.71
47.55
44.43
40.66
36.62
32.65
28.92
25.37
21.84
18.11
14.01
9.53
4.87
0.33
-3.70
-6.99
-9.55
-11.72
-13.99
-16.85
-20.47
-24.66
-28.96
-32.88
-36.20
-39.03
-41.84
-45.29
-49.99
-56.32
-64.25
-73.25
-82.25
-89.70
-93.87
-93.20
-86.74
-74.54
-57.70
-38.22
-18.41
-0.33
14.58
25.74
33.27
37.59
39.23
38.65
36.33
32.90
29.19
26.07
24.25
24.02
25.28
27.60
30.51
33.62
36.72
39.63
42.14
43.85
44.35
43.29
40.58
36.51
31.63
26.68
22.34
18.99
16.59
14.76
12.89
10.46
7.23
3.32
-0.88
-4.94
-8.53
-11.59
-14.24
-16.79
-19.51
-22.58
-26.07
-29.82
-33.60
-37.14
-40.37
-43.48
-46.96
-51.51
-57.66
-65.56
-74.60
-83.46
-90.27
-92.97
-90.03
-80.83
-66.04
-47.41
-27.38
-8.34
7.96
20.69
29.87
35.98
39.55
40.93
40.32
38.01
34.57
30.89
28.00
26.72
27.39
29.81
33.35
37.30
41.11
44.50
47.38
49.60
50.88
50.80
48.99
45.46
40.65
35.37
30.45
26.45
23.40
20.93
18.46
15.50
11.90
7.82
3.64
-0.22
-3.50
-6.21
-8.63
-11.20
-14.31
-18.17
-22.66
-27.48
-32.22
-36.57
-40.45
-44.06
-47.81
-52.23
-57.83
-64.97
-73.55
-82.89
-91.57
-97.68
-99.26
-94.88
-84.21
-68.16
-48.65
-28.07
-8.66
8.01
21.22
30.97
37.64
41.71
43.57
43.54
41.99
39.48
36.81
34.84
34.22
35.16
37.48
40.59
43.95
47.15
50.05
52.63
54.85
56.48
57.12
56.37
53.99
50.08
45.09
39.69
34.54
30.10
26.41
23.24
20.14
16.74
12.92
8.87
4.96
1.55
-1.23
-3.56
-5.86
-8.66
-12.34
-17.01
-22.42
-28.09
-33.39
-37.87
-41.40
-44.31
-47.28
-51.15
-56.61
-63.99
-73.02
-82.73
-91.49
-97.26
-97.99
-92.26
-79.82
-61.82
-40.61
-19.02
0.45
16.25
27.94
35.92
40.87
43.41
43.99
42.98
40.89
38.37
36.11
34.63
34.20
34.75
36.06
37.87
39.95
42.16
44.39
46.53
48.40
49.77
50.35
49.84
48.04
44.95
40.78
36.00
31.17
26.72
22.86
19.50
16.33
13.03
9.41
5.55
1.69
-1.87
-4.99
-7.75
-10.44
-13.41
-16.85
-20.76
-24.94
-29.13
-33.15
-36.97
-40.73
-44.73
-49.32
-54.88
-61.63
-69.54
-78.02
-85.78
-91.02
-91.78
-86.63
-75.24
-58.66
-39.01
-18.90
-0.67
14.17
25.09
32.34
36.52
38.28
38.11
36.47
33.80
30.68
27.83
25.95
25.53
26.75
29.45
33.18
37.36
41.45
44.98
47.64
49.18
49.44
48.34
45.94
42.48
38.35
33.97
29.76
25.97
22.58
19.38
16.01
12.22
7.95
3.37
-1.17
-5.36
-9.10
-12.52
-15.85
-19.31
-22.95
-26.67
-30.27
-33.71
-37.15
-40.98
-45.71
-51.80
-59.47
-68.52
-78.19
-87.12
-93.54
-95.67
-92.15
-82.59
-67.66
-49.07
-28.95
-9.45
7.82
21.94
32.68
40.22
44.91
47.10
47.14
45.43
42.55
39.25
36.31
34.46
34.14
35.42
38.05
41.50
45.17
48.51
51.11
52.69
53.04
52.03
49.65
46.09
41.75
37.17
32.87
29.14
25.97
22.97
19.72
15.89
11.47
6.75
2.16
-1.99
-5.65
-8.99
-12.34
-15.94
-19.93
-24.23
-28.66
-33.01
-37.13
-41.06
-45.09
-49.68
-55.39
-62.55
-71.09
-80.19
-88.39
-93.76
-94.40
-89.03
-77.47
-60.70
-40.74
-20.06
-0.95
14.98
27.15
35.77
41.52
45.08
46.86
47.04
45.76
43.45
40.85
38.81
38.07
38.87
40.99
43.90
46.98
49.88
52.46
54.72
56.59
57.82
58.00
56.75
53.94
49.80
44.91
40.00
35.65
32.06
28.99
25.89
22.22
17.72
12.58
7.27
2.40
-1.62
-4.67
-6.95
-8.92
-11.09
-13.89
-17.55
-22.02
-26.99
-32.05
-36.84
-41.23
-45.41
-49.78
-54.82
-60.92
-68.14
-76.08
-83.73
-89.57
-91.72
-88.56
-79.26
-64.25
-45.26
-24.81
-5.45
10.92
23.39
32.07
37.52
40.42
41.24
40.30
37.96
34.83
31.71
29.46
28.72
29.68
32.07
35.28
38.64
41.61
43.96
45.66
46.79
47.33
47.12
45.94
43.65
40.30
36.24
31.98
28.00
24.57
21.65
18.86
15.72
11.91
7.42
2.69
-1.72
-5.33
-8.06
-10.24
-12.42
-15.13
-18.57
-22.58
-26.70
-30.45
-33.61
-36.29
-38.93
-42.19
-46.69
-52.84
-60.56
-69.25
-77.70
-84.30
-87.29
-85.22
-77.31
-63.83
-46.03
-26.03
-6.20
11.34
25.18
34.82
40.50
42.88
42.68
40.53
37.02
32.84
28.82
25.85
24.61
25.36
27.82
31.38
35.30
38.94
41.92
44.08
45.35
45.64
44.87
42.95
39.92
36.00
31.58
27.03
22.69
18.65
14.87
11.15
7.40
3.67
0.16
-2.90
-5.47
-7.74
-10.13
-13.08
-16.80
-21.23
-26.05
-30.79
-35.03
-38.57
-41.49
-44.14
-47.15
-51.27
-57.17
-65.07
-74.45
-83.96
-91.55
-94.98
-92.52
-83.47
-68.45
-49.28
-28.47
-8.52
8.61
21.89
31.22
37.11
40.33
41.57
41.30
39.89
37.71
35.29
33.26
32.18
32.35
33.69
35.87
38.48
41.18
43.79
46.17
48.11
49.34
49.48
48.29
45.76
42.17
37.97
33.62
29.40
25.39
21.44
17.36
13.06
8.60
4.20
0.13
-3.44
-6.52
-9.34
-12.19
-15.35
-18.94
-22.90
-26.98
-30.89
-34.44
-37.64
-40.75
-44.28
-48.82
-54.83
-62.49
-71.40
-80.47
-88.04
-92.19
-91.21
-84.17
-71.26
-53.87
-34.21
-14.72
2.56
16.42
26.59
33.45
37.59
39.51
39.50
37.80
34.79
31.23
28.12
26.39
26.54
28.45
31.48
34.82
37.86
40.36
42.44
44.24
45.76
46.65
46.45
44.82
41.76
37.66
33.17
28.87
25.14
21.96
19.03
15.96
12.44
8.42
4.14
-0.01
-3.67
-6.69
-9.20
-11.61
-14.32
-17.62
-21.46
-25.50
-29.32
-32.63
-35.47
-38.21
-41.48
-45.92
-52.02
-59.88
-69.09
-78.60
-86.78
-91.72
-91.62
-85.44
-73.24
-56.32
-36.81
-17.15
0.59
15.06
25.73
32.66
36.30
37.20
36.00
33.35
30.00
26.69
24.10
22.76
22.93
24.64
27.62
31.47
35.65
39.66
43.02
45.35
46.42
46.07
44.31
41.28
37.28
32.73
28.08
23.75
19.98
16.79
13.99
11.29
8.35
5.03
1.40
-2.31
-5.85
-9.05
-12.04
-15.15
-18.82
-23.33
-28.63
-34.29
-39.67
-44.19
-47.70
-50.59
-53.69
-57.94
-64.06
-72.14
-81.50
-90.64
-97.55
-100.11
-96.68
-86.61
-70.53
-50.29
-28.39
-7.36
10.88
25.36
35.90
42.86
46.74
48.05
47.25
44.94
41.87
38.92
36.82
36.08
36.83
38.86
41.78
45.17
48.64
51.94
54.83
57.04
58.26
58.17
56.60
53.58
49.43
44.62
39.71
35.09
30.93
27.16
23.55
19.83
15.82
11.53
7.15
2.97
-0.77
-3.99
-6.83
-9.71
-13.07
-17.24
-22.19
-27.58
-32.89
-37.69
-41.94
-45.98
-50.47
-56.02
-63.03
-71.34
-80.31
-88.75
-95.05
-97.46
-94.48
-85.35
-70.43
-51.26
-30.17
-9.61
8.55
23.38
34.82
43.22
48.93
52.05
52.65
51.00
47.82
44.17
41.14
39.51
39.49
40.88
43.21
46.04
49.06
52.10
54.96
57.36
58.91
59.25
58.14
55.60
51.93
47.65
43.30
39.32
35.91
32.94
30.09
26.99
23.37
19.17
14.54
9.78
5.24
1.19
-2.22
-5.15
-7.85
-10.76
-14.23
-18.40
-23.16
-28.16
-33.01
-37.45
-41.49
-45.43
-49.78
-55.10
-61.84
-70.02
-79.11
-87.83
-94.38
-96.72
-93.28
-83.48
-67.99
-48.58
-27.67
-7.62
9.86
23.86
34.19
41.09
44.92
46.04
44.88
42.03
38.35
34.79
32.26
31.32
32.08
34.28
37.38
40.83
44.17
47.05
49.24
50.57
50.85
50.01
48.03
45.03
41.23
36.97
32.57
28.32
24.41
20.84
17.44
13.96
10.15
5.95
1.50
-2.92
-6.95
-10.39
-13.26
-15.81
-18.39
-21.31
-24.64
-28.30
-32.04
-35.70
-39.26
-43.01
-47.34
-52.73
-59.47
-67.53
-76.33
-84.67
-90.86
-93.01
-89.59
-79.90
-64.53
-45.19
-24.28
-4.23
13.14
26.91
36.88
43.32
46.58
47.04
45.13
41.53
37.19
33.12
30.24
29.08
29.78
32.06
35.45
39.34
43.14
46.35
48.59
49.64
49.41
47.95
45.41
42.01
38.00
33.64
29.11
24.53
19.90
15.23
10.54
5.98
1.68
-2.26
-5.89
-9.39
-13.06
-17.11
-21.56
-26.25
-30.84
-35.04
-38.64
-41.74
-44.67
-48.02
-52.47
-58.57
-66.43
-75.53
-84.60
-91.78
-95.01
-92.60
-83.80
-69.11
-50.19
-29.46
-9.39
8.13
22.10
32.44
39.56
44.09
46.45
46.98
45.96
43.83
41.18
38.73
37.06
36.51
37.12
38.74
41.08
43.81
46.57
48.97
50.60
51.14
50.42
48.44
45.45
41.77
37.74
33.60
29.45
25.24
20.95
16.53
12.03
7.55
3.21
-0.89
-4.73
-8.31
-11.74
-15.10
-18.50
-21.99
-25.57
-29.22
-32.89
-36.61
-40.47
-44.67
-49.50
-55.26
-62.13
-70.07
-78.58
-86.66
-92.78
-95.19
-92.35
-83.52
-69.08
-50.59
-30.38
-10.83
6.18
19.72
29.67
36.50
40.77
42.91
43.20
41.91
39.54
36.81
34.56
33.55
34.16
36.35
39.67
43.49
47.19
50.30
52.51
53.68
53.71
52.55
50.22
46.83
42.66
38.09
33.55
29.39
25.77
22.59
19.56
16.29
12.47
8.07
3.32
-1.36
-5.54
-8.95
-11.66
-13.99
-16.40
-19.26
-22.74
-26.68
-30.79
-34.75
-38.44
-42.00
-45.80
-50.32
-55.96
-62.86
-70.72
-78.75
-85.61
-89.63
-89.19
-83.16
-71.40
-54.85
-35.45
-15.54
2.65
17.62
28.75
36.10
40.18
41.56
40.77
38.30
34.73
30.80
27.31
25.02
24.39
25.52
28.13
31.68
35.57
39.28
42.40
44.66
45.82
45.71
44.22
41.44
37.59
33.09
28.40
23.92
19.85
16.14
12.59
8.92
5.02
0.99
-2.85
-6.16
-8.80
-10.90
-12.88
-15.24
-18.33
-22.21
-26.67
-31.34
-35.91
-40.24
-44.42
-48.68
-53.37
-58.81
-65.22
-72.42
-79.73
-85.85
-89.06
-87.69
-80.70
-68.17
-51.30
-32.11
-12.84
4.66
19.28
30.60
38.69
43.78
46.14
46.08
44.07
40.81
37.20
34.10
32.18
31.81
32.93
35.19
38.00
40.76
43.02
44.56
45.37
45.58
45.26
44.40
42.86
40.55
37.47
33.74
29.48
24.74
19.52
13.86
7.97
2.31
-2.64
-6.60
-9.60
-12.07
-14.61
-17.70
-21.52
-25.97
-30.72
-35.42
-39.81
-43.81
-47.53
-51.34
-55.71
-61.17
-68.01
-75.98
-84.21
-91.16
-94.90
-93.64
-86.31
-72.93
-54.78
-33.95
-12.88
6.36
22.41
34.74
43.39
48.70
51.06
50.87
48.67
45.23
41.48
38.40
36.70
36.69
38.24
40.92
44.21
47.60
50.77
53.43
55.37
56.37
56.20
54.74
51.98
48.15
43.57
38.66
33.73
28.94
24.27
19.59
14.83
10.04
5.45
1.31
-2.24
-5.27
-8.08
-11.08
-14.60
-18.79
-23.60
-28.77
-33.99
-38.95
-43.48
-47.70
-51.99
-56.95
-63.12
-70.67
-79.06
-86.96
-92.49
-93.72
-89.30
-78.84
-63.14
-43.92
-23.36
-3.59
13.78
27.87
38.41
45.57
49.66
51.09
50.25
47.72
44.25
40.74
38.01
36.64
36.77
38.19
40.42
43.02
45.67
48.18
50.44
52.23
53.29
53.29
52.06
49.59
46.13
41.99
37.54
33.01
28.53
24.10
19.65
15.13
10.50
5.85
1.37
-2.72
-6.22
-9.10
-11.57
-14.05
-16.95
-20.54
-24.80
-29.40
-33.94
-38.10
-41.84
-45.45
-49.42
-54.31
-60.54
-68.18
-76.73
-85.00
-91.22
-93.41
-89.93
-80.14
-64.65
-45.26
-24.45
-4.65
12.32
25.53
34.83
40.56
43.22
43.36
41.53
38.35
34.57
31.02
28.46
27.45
28.16
30.44
33.81
37.69
41.54
44.97
47.73
49.62
50.42
49.88
47.86
44.48
40.11
35.32
30.66
26.44
22.66
19.08
15.40
11.48
7.42
3.49
-0.04
-3.04
-5.69
-8.36
-11.54
-15.56
-20.45
-25.92
-31.45
-36.53
-40.86
-44.42
-47.53
-50.75
-54.77
-60.22
-67.43
-76.09
-85.13
-92.68
-96.61
-95.03
-86.99
-72.86
-54.20
-33.31
-12.55
6.20
21.83
33.86
42.32
47.43
49.60
49.38
47.46
44.63
41.70
39.36
38.02
37.82
38.67
40.35
42.57
45.12
47.76
50.25
52.33
53.67
53.99
53.08
50.84
47.42
43.15
38.50
33.89
29.61
25.67
21.83
17.78
13.33
8.56
3.77
-0.65
-4.50
-7.77
-10.68
-13.52
-16.50
-19.70
-23.10
-26.68
-30.34
-34.02
-37.71
-41.53
-45.77
-50.89
-57.30
-65.16
-74.09
-83.01
-90.26
-93.96
-92.47
-84.90
-71.46
-53.51
-33.29
-13.23
4.65
19.17
30.16
38.06
43.51
46.96
48.55
48.30
46.35
43.14
39.34
35.79
33.25
32.18
32.86
35.16
38.74
43.00
47.24
50.74
52.94
53.42
52.03
48.88
44.32
38.95
33.51
28.62
24.71
21.79
19.47
17.16
14.35
10.71
6.31
1.46
-3.42
-7.96
-11.93
-15.31
-18.28
-21.06
-23.92
-27.00
-30.26
-33.60
-36.81
-39.86
-42.92
-46.46
-51.05
-57.20
-64.93
-73.64
-82.01
-88.27
-90.55
-87.52
-78.69
-64.63
-46.85
-27.38
-8.32
8.64
22.40
32.53
39.03
42.22
42.53
40.48
36.71
32.04
27.39
23.68
21.62
21.51
23.20
26.22
29.94
33.79
37.40
40.54
43.02
44.63
45.03
43.93
41.21
37.10
32.14
27.00
22.22
18.03
14.34
10.85
7.29
3.57
-0.16
-3.73
-6.98
-9.97
-12.91
-16.07
-19.66
-23.74
-28.23
-32.96
-37.73
-42.29
-46.42
-49.94
-52.90
-55.62
-58.73
-62.88
-68.39
-74.83
-80.96
-84.92
-84.83
-79.34
-68.18
-52.22
-33.21
-13.27
5.63
21.95
34.82
43.89
49.24
51.20
50.31
47.25
42.86
38.07
33.83
30.93
29.79
30.47
32.61
35.61
38.84
41.81
44.15
45.70
46.43
46.32
45.42
43.73
41.29
38.19
34.57
30.69
26.78
22.97
19.22
15.36
11.20
6.71
2.16
-2.01
-5.36
-7.82
-9.65
-11.50
-13.94
-17.28
-21.42
-25.99
-30.50
-34.64
-38.34
-41.74
-45.17
-49.08
-53.96
-60.28
-68.17
-77.24
-86.30
-93.46
-96.53
-93.72
-84.23
-68.66
-48.83
-27.31
-6.65
11.22
25.25
35.22
41.41
44.34
44.60
42.82
39.75
36.24
33.18
31.24
30.81
31.88
34.12
37.10
40.33
43.45
46.20
48.43
50.06
51.02
51.21
50.50
48.77
46.02
42.39
38.20
33.80
29.51
25.39
21.32
17.07
12.49
7.65
2.86
-1.53
-5.27
-8.40
-11.20
-14.09
-17.43
-21.36
-25.77
-30.29
-34.55
-38.27
-41.42
-44.25
-47.25
-51.03
-56.17
-62.98
-71.24
-80.08
-87.91
-92.70
-92.51
-86.07
-73.34
-55.59
-35.07
-14.40
4.22
19.39
30.64
38.16
42.44
43.94
43.08
40.27
36.07
31.27
26.75
23.34
21.55
21.54
23.10
25.83
29.20
32.80
36.31
39.43
41.83
43.16
43.08
41.42
38.23
33.84
28.71
23.29
17.96
12.90
8.25
4.07
0.38
-2.84
-5.72
-8.48
-11.38
-14.59
-18.12
-21.84
-25.53
-28.96
-32.05
-34.87
-37.66
-40.77
-44.65
-49.72
-56.23
-64.12
-72.73
-80.73
-86.26
-87.28
-82.30
-70.90
-54.05
-33.84
-12.92
6.32
22.25
34.25
42.41
47.17
49.01
48.33
45.62
41.53
36.97
32.93
30.30
29.60
30.87
33.72
37.44
41.26
44.51
46.78
47.97
48.18
47.51
46.06
43.79
40.62
36.53
31.60
26.11
20.40
14.88
9.84
5.36
1.30
-2.65
-6.84
-11.55
-16.80
-22.34
-27.76
-32.62
-36.66
-39.87
-42.54
-45.15
-48.31
-52.64
-58.62
-66.41
-75.57
-84.93
-92.63
-96.51
-94.71
-86.27
-71.49
-51.98
-30.13
-8.48
10.95
26.93
39.01
47.30
52.12
53.86
53.00
50.19
46.34
42.47
39.52
38.12
38.45
40.25
43.05
46.31
49.55
52.45
54.77
56.36
57.10
56.91
55.70
53.46
50.21
46.03
41.07
35.52
29.60
23.50
17.48
11.75
6.61
2.21
-1.43
-4.55
-7.54
-10.86
-14.75
-19.19
-23.92
-28.57
-32.91
-36.91
-40.81
-45.00
-49.90
-55.90
-63.14
-71.44
-80.09
-87.79
-92.74
-93.02
-87.19
-74.84
-56.86
-35.27
-12.72
8.27
25.87
39.23
48.34
53.67
55.83
55.38
52.87
48.94
44.52
40.61
38.15
37.66
39.13
42.04
45.65
49.24
52.30
54.62
56.11
56.70
56.33
54.90
52.39
48.93
44.80
40.31
35.76
31.33
27.06
22.87
18.67
14.37
10.06
5.89
2.08
-1.22
-4.01
-6.53
-9.15
-12.26
-16.11
-20.67
-25.62
-30.51
-34.91
-38.66
-41.94
-45.23
-49.15
-54.33
-61.09
-69.35
-78.40
-86.87
-92.93
-94.63
-90.41
-79.62
-62.90
-42.05
-19.68
1.58
19.62
33.32
42.47
47.47
49.04
47.89
44.75
40.33
35.45
30.96
27.67
26.17
26.65
28.91
32.38
36.33
40.08
43.16
45.37
46.71
47.24
46.92
45.65
43.28
39.85
35.62
30.96
26.29
21.79
17.47
13.21
8.93
4.67
0.60
-3.04
-6.17
-8.87
-11.42
-14.21
-17.55
-21.60
-26.26
-31.19
-35.95
-40.18
-43.80
-47.06
-50.53
-54.92
-60.82
-68.47
-77.44
-86.59
-94.15
-98.04
-96.42
-88.30
-73.88
-54.64
-32.91
-11.25
8.20
24.10
35.98
44.00
48.65
50.46
49.99
47.81
44.63
41.23
38.40
36.71
36.45
37.56
39.72
42.48
45.39
48.13
50.49
52.39
53.76
54.47
54.30
53.00
50.42
46.57
41.74
36.42
31.14
26.29
22.03
18.22
14.57
10.77
6.63
2.21
-2.26
-6.45
-10.12
-13.22
-15.96
-18.69
-21.73
-25.26
-29.24
-33.49
-37.74
-41.88
-45.92
-50.07
-54.71
-60.22
-67.00
-75.13
-84.25
-93.34
-100.71
-104.31
-102.29
-93.66
-78.65
-58.87
-36.80
-15.13
3.98
19.35
30.77
38.70
43.74
46.35
46.79
45.30
42.37
38.81
35.60
33.61
33.36
34.84
37.68
41.30
45.13
48.75
51.85
54.21
55.63
55.90
54.91
52.72
49.53
45.77
41.88
38.22
34.95
32.01
29.13
26.02
22.44
18.26
13.56
8.53
3.50
-1.16
-5.11
-8.20
-10.56
-12.59
-14.90
-18.04
-22.32
-27.64
-33.54
-39.41
-44.67
-49.07
-52.73
-56.18
-60.15
-65.37
-72.26
-80.57
-89.31
-96.74
-100.75
-99.43
-91.68
-77.54
-58.35
-36.31
-14.00
6.31
23.02
35.45
43.56
47.75
48.62
46.83
43.17
38.59
34.16
30.81
29.21
29.49
31.38
34.33
37.79
41.34
44.73
47.76
50.20
51.80
52.36
51.78
50.12
47.52
44.12
40.11
35.65
30.95
26.22
21.64
17.25
13.00
8.74
4.41
0.05
-4.16
-8.00
-11.36
-14.26
-16.93
-19.67
-22.73
-26.25
-30.15
-34.15
-37.97
-41.39
-44.45
-47.41
-50.78
-55.11
-60.89
-68.30
-76.98
-85.99
-93.74
-98.32
-97.92
-91.35
-78.47
-60.33
-38.93
-16.74
3.95
21.48
35.05
44.60
50.55
53.41
53.58
51.45
47.46
42.32
37.04
32.71
30.19
29.90
31.69
35.05
39.31
43.92
48.44
52.46
55.52
57.07
56.67
54.17
49.88
44.40
38.52
32.86
27.80
23.44
19.67
16.27
12.93
9.36
5.38
0.95
-3.70
-8.17
-12.06
-15.26
-18.01
-20.88
-24.43
-28.91
-34.15
-39.63
-44.75
-49.13
-52.83
-56.31
-60.29
-65.46
-72.25
-80.57
-89.72
-98.39
-104.83
-107.18
-103.96
-94.45
-79.01
-59.06
-36.74
-14.39
5.96
22.96
36.03
45.16
50.71
53.10
52.86
50.56
46.94
42.85
39.19
36.68
35.81
36.75
39.33
43.12
47.47
51.70
55.22
57.69
58.95
59.05
58.04
55.98
52.94
49.09
44.72
40.17
35.72
31.47
27.31
23.04
18.50
13.70
8.77
3.97
-0.39
-4.09
-7.08
-9.55
-11.83
-14.42
-17.73
-21.94
-26.94
-32.35
-37.72
-42.67
-47.08
-51.11
-55.22
-60.03
-66.17
-73.96
-83.13
-92.62
-100.61
-104.90
-103.50
-95.26
-80.32
-60.17
-37.18
-14.05
6.95
24.33
37.49
46.53
51.86
53.94
53.22
50.23
45.75
40.82
36.58
33.92
33.32
34.67
37.46
41.05
44.89
48.57
51.90
54.78
57.04
58.43
58.67
57.45
54.66
50.41
45.08
39.30
33.66
28.61
24.20
20.22
16.31
12.21
7.91
3.59
-0.46
-4.05
-7.17
-10.06
-13.05
-16.47
-20.52
-25.16
-30.07
-34.80
-38.91
-42.21
-44.85
-47.37
-50.57
-55.23
-61.86
-70.38
-79.97
-89.05
-95.60
-97.53
-93.32
-82.50
-65.82
-45.13
-22.87
-1.50
17.07
31.69
41.97
48.07
50.50
49.90
46.97
42.43
37.07
31.68
27.08
23.98
22.84
23.81
26.64
30.82
35.70
40.63
45.09
48.60
50.81
51.38
50.16
47.21
42.88
37.70
32.23
26.82
21.66
16.78
12.18
7.95
4.18
0.91
-1.97
-4.71
-7.66
-11.08
-15.07
-19.55
-24.28
-29.00
-33.49
-37.68
-41.59
-45.42
-49.48
-54.22
-60.15
-67.64
-76.60
-86.21
-94.79
-100.11
-99.94
-92.89
-78.93
-59.54
-37.23
-14.78
5.54
22.36
35.19
44.15
49.54
51.73
51.12
48.31
44.15
39.64
35.74
33.18
32.29
33.06
35.26
38.49
42.41
46.62
50.68
54.12
56.42
57.16
56.17
53.53
49.59
44.82
39.73
34.67
29.86
25.32
20.95
16.55
11.96
7.07
1.94
-3.22
-8.18
-12.71
-16.77
-20.46
-24.02
-27.58
-31.17
-34.64
-37.80
-40.62
-43.31
-46.35
-50.38
-56.02
-63.61
-72.95
-83.17
-92.71
-99.53
-101.59
-97.32
-86.15
-68.81
-47.23
-24.04
-1.97
16.88
31.37
41.41
47.56
50.65
51.39
50.31
47.79
44.32
40.54
37.25
35.16
34.71
35.94
38.54
42.02
45.86
49.63
53.01
55.72
57.42
57.82
56.67
53.91
49.77
44.74
39.46
34.50
30.18
26.50
23.16
19.77
16.04
11.89
7.48
3.08
-1.07
-4.90
-8.52
-12.15
-16.00
-20.16
-24.58
-29.07
-33.44
-37.54
-41.41
-45.30
-49.67
-55.03
-61.79
-69.90
-78.73
-86.95
-92.69
-94.05
-89.55
-78.75
-62.43
-42.47
-21.31
-1.33
15.73
28.98
38.28
43.92
46.35
46.04
43.51
39.43
34.63
30.06
26.57
24.69
24.62
26.16
28.91
32.39
36.14
39.78
42.97
45.39
46.72
46.72
45.26
42.48
38.71
34.46
30.22
26.25
22.49
18.66
14.44
9.68
4.54
-0.57
-5.17
-8.95
-11.87
-14.18
-16.27
-18.52
-21.14
-24.14
-27.38
-30.68
-33.95
-37.23
-40.69
-44.66
-49.52
-55.66
-63.25
-71.98
-80.85
-88.15
-91.75
-89.69
-80.90
-65.64
-45.63
-23.54
-2.20
16.14
30.29
40.03
45.83
48.35
48.21
45.95
42.18
37.66
33.34
30.14
28.72
29.30
31.63
35.08
38.99
42.71
45.88
48.27
49.79
50.35
49.85
48.18
45.36
41.55
37.08
32.38
27.86
23.79
20.18
16.85
13.51
9.92
6.05
2.07
-1.70
-5.00
-7.82
-10.47
-13.40
-17.05
-21.54
-26.63
-31.80
-36.54
-40.54
-43.91
-47.07
-50.67
-55.34
-61.58
-69.43
-78.35
-87.10
-93.85
-96.56
-93.54
-84.09
-68.76
-49.26
-27.98
-7.34
10.78
25.29
35.90
42.83
46.57
47.71
46.81
44.44
41.23
37.86
35.03
33.33
33.15
34.49
37.10
40.48
44.08
47.51
50.50
52.91
54.50
54.99
54.07
51.59
47.70
42.90
37.88
33.32
29.58
26.63
24.16
21.64
18.63
14.91
10.53
5.85
1.39
-2.37
-5.20
-7.23
-8.98
-11.13
-14.19
-18.39
-23.38
-28.63
-33.56
-37.85
-41.60
-45.20
-49.23
-54.20
-60.49
-68.05
-76.35
-84.22
-89.91
-91.50
-87.41
-77.06
-61.17
-41.68
-21.19
-2.17
13.68
25.68
33.97
39.13
41.72
42.11
40.60
37.56
33.62
29.64
26.52
24.90
25.02
26.62
29.19
32.10
34.88
37.33
39.45
41.31
42.89
44.00
44.26
43.34
41.04
37.46
33.00
28.21
23.64
19.63
16.28
13.39
10.59
7.50
3.93
-0.03
-4.06
-7.73
-10.76
-13.21
-15.38
-17.69
-20.46
-23.73
-27.35
-31.02
-34.57
-37.98
-41.43
-45.19
-49.61
-54.98
-61.52
-69.07
-77.01
-84.09
-88.65
-88.97
-83.83
-72.94
-57.14
-38.20
-18.42
0.05
15.60
27.53
35.86
41.01
43.47
43.54
41.47
37.65
32.82
28.03
24.37
22.61
22.98
25.19
28.59
32.54
36.50
40.10
43.06
45.09
45.96
45.54
43.80
40.92
37.14
32.87
28.51
24.46
20.97
18.07
15.49
12.77
9.48
5.40
0.69
-4.17
-8.59
-12.11
-14.67
-16.60
-18.56
-21.18
-24.82
-29.41
-34.49
-39.46
-43.81
-47.44
-50.60
-53.91
-58.06
-63.65
-70.89
-79.36
-87.95
-94.90
-98.12
-95.79
-87.02
-72.23
-53.09
-32.04
-11.55
6.50
21.05
31.85
39.03
42.95
44.01
42.69
39.65
35.75
31.90
28.99
27.68
28.24
30.56
34.18
38.37
42.44
45.87
48.41
50.05
50.88
50.88
49.99
48.11
45.24
41.57
37.45
33.28
29.35
25.77
22.43
19.08
15.49
11.57
7.43
3.37
-0.23
-3.13
-5.32
-7.14
-9.16
-11.94
-15.85
-20.82
-26.42
-31.97
-36.82
-40.63
-43.55
-46.13
-49.22
-53.66
-60.04
-68.40
-78.09
-87.74
-95.36
-98.79
-96.22
-86.81
-71.06
-50.83
-28.82
-7.80
10.11
23.83
33.31
39.03
41.70
41.92
40.28
37.40
33.99
30.80
28.40
27.13
27.03
27.98
29.84
32.47
35.72
39.34
42.97
46.16
48.46
49.56
49.23
47.45
44.38
40.38
35.93
31.53
27.51
23.94
20.65
17.36
13.80
9.89
5.79
1.77
-1.86
-4.93
-7.51
-9.90
-12.51
-15.70
-19.63
-24.14
-28.84
-33.27
-37.14
-40.46
-43.69
-47.52
-52.69
-59.58
-68.00
-76.97
-84.86
-89.64
-89.44
-83.04
-70.36
-52.54
-31.71
-10.45
8.85
24.50
35.74
42.58
45.59
45.57
43.34
39.67
35.33
31.05
27.56
25.41
25.02
26.46
29.52
33.70
38.31
42.69
46.26
48.71
49.96
50.07
49.11
47.20
44.39
40.82
36.70
32.30
27.82
23.37
18.88
14.29
9.55
4.77
0.15
-4.15
-8.09
-11.77
-15.41
-19.20
-23.29
-27.68
-32.24
-36.74
-40.97
-44.81
-48.35
-52.03
-56.53
-62.58
-70.57
-80.15
-90.07
-98.24
-102.21
-99.85
-90.16
-73.55
-51.93
-28.10
-4.99
15.13
31.04
42.45
49.70
53.29
53.72
51.53
47.52
42.74
38.42
35.60
34.85
36.14
38.97
42.64
46.48
50.03
53.07
55.58
57.58
59.00
59.63
59.16
57.31
54.04
49.61
44.56
39.44
34.59
30.01
25.50
20.81
15.92
11.03
6.50
2.63
-0.52
-3.15
-5.65
-8.46
-11.96
-16.25
-21.22
-26.57
-31.84
-36.69
-41.01
-44.97
-49.08
-54.03
-60.40
-68.49
-77.85
-87.17
-94.39
-97.18
-93.63
-82.97
-65.93
-44.53
-21.53
0.37
19.14
33.63
43.56
49.21
51.25
50.48
47.88
44.39
40.85
37.89
35.89
35.03
35.35
36.71
38.91
41.64
44.54
47.25
49.52
51.14
51.89
51.60
50.16
47.61
44.15
40.10
35.72
31.22
26.66
22.01
17.32
12.70
8.33
4.35
0.79
-2.47
-5.63
-8.96
-12.67
-16.82
-21.26
-25.72
-29.86
-33.42
-36.40
-39.07
-41.93
-45.63
-50.76
-57.68
-66.32
-75.97
-85.17
-91.92
-94.06
-89.98
-79.12
-62.29
-41.50
-19.36
1.55
19.24
32.56
41.21
45.52
46.26
44.33
40.67
36.17
31.64
27.84
25.42
24.88
26.33
29.49
33.72
38.20
42.21
45.28
47.30
48.27
48.22
47.06
44.66
41.03
36.37
31.13
25.82
20.81
16.29
12.17
8.30
4.53
0.80
-2.89
-6.54
-10.26
-14.23
-18.60
-23.33
-28.20
-32.84
-36.90
-40.30
-43.24
-46.21
-49.84
-54.74
-61.25
-69.27
-78.10
-86.38
-92.26
-93.79
-89.45
-78.72
-62.38
-42.33
-21.10
-1.07
16.04
29.41
38.99
45.14
48.35
49.11
47.96
45.60
42.82
40.45
39.07
38.95
39.97
41.76
43.90
46.06
48.10
49.93
51.45
52.51
52.91
52.47
51.10
48.81
45.69
41.85
37.44
32.71
27.89
23.14
18.54
14.01
9.45
4.84
0.36
-3.77
-7.37
-10.57
-13.74
-17.35
-21.68
-26.56
-31.51
-35.93
-39.49
-42.29
-44.90
-48.20
-53.02
-59.96
-69.03
-79.52
-89.86
-97.87
-101.17
-97.92
-87.41
-70.44
-49.16
-26.40
-4.86
13.53
27.87
38.15
44.86
48.59
49.91
49.30
47.30
44.53
41.67
39.37
38.09
38.02
39.07
40.98
43.41
46.08
48.76
51.28
53.38
54.72
54.94
53.71
50.97
46.83
41.75
36.32
31.19
26.80
23.33
20.58
18.10
15.37
12.02
8.05
3.78
-0.34
-3.97
-7.12
-10.08
-13.34
-17.22
-21.80
-26.81
-31.75
-36.18
-39.82
-42.81
-45.64
-49.08
-53.90
-60.52
-68.82
-77.95
-86.43
-92.43
-94.18
-90.36
-80.52
-65.24
-46.18
-25.63
-5.97
10.96
24.09
33.34
39.10
42.01
42.54
41.07
38.02
34.06
30.04
26.86
25.14
25.09
26.46
28.84
31.76
34.89
38.03
40.99
43.49
45.11
45.40
43.99
40.92
36.59
31.77
27.21
23.45
20.53
18.08
15.56
12.54
8.89
4.75
0.40
-3.90
-7.97
-11.79
-15.41
-18.92
-22.42
-25.95
-29.47
-32.89
-36.09
-39.13
-42.26
-45.95
-50.70
-56.88
-64.48
-73.06
-81.67
-88.96
-93.30
-93.07
-87.11
-75.22
-58.39
-38.60
-18.33
0.19
15.55
27.31
35.74
41.35
44.57
45.63
44.74
42.22
38.65
34.85
31.70
29.92
29.94
31.80
35.15
39.39
43.80
47.80
50.97
52.99
53.59
52.51
49.64
45.15
39.64
33.98
28.98
25.08
22.18
19.71
17.00
13.47
8.98
3.84
-1.38
-6.05
-9.71
-12.30
-14.17
-15.93
-18.26
-21.59
-25.87
-30.79
-35.81
-40.52
-44.80
-48.90
-53.26
-58.41
-64.76
-72.39
-80.78
-88.83
-94.82
-96.94
-93.73
-84.58
-70.03
-51.63
-31.53
-11.92
5.45
19.57
30.14
37.38
41.82
43.98
44.35
43.33
41.37
38.99
36.87
35.67
35.84
37.48
40.25
43.55
46.73
49.22
50.70
51.11
50.56
49.25
47.39
45.06
42.34
39.25
35.89
32.41
28.97
25.64
22.31
18.76
14.74
10.20
5.36
0.70
-3.30
-6.35
-8.58
-10.50
-12.72
-15.76
-19.81
-24.62
-29.69
-34.45
-38.52
-41.90
-44.99
-48.45
-53.00
-59.17
-67.02
-76.05
-85.05
-92.29
-95.75
-93.75
-85.33
-70.74
-51.45
-29.83
-8.51
10.23
24.99
35.27
41.28
43.66
43.17
40.61
36.83
32.68
28.97
26.40
25.34
25.90
27.83
30.66
33.85
36.91
39.54
41.54
42.87
43.48
43.28
42.13
39.98
36.96
33.36
29.50
25.64
21.84
18.02
14.09
10.12
6.29
2.85
-0.09
-2.60
-4.93
-7.41
-10.38
-14.06
-18.54
-23.67
-29.13
-34.44
-39.13
-43.00
-46.21
-49.40
-53.41
-58.99
-66.43
-75.31
-84.46
-92.05
-96.08
-94.75
-87.08
-73.19
-54.46
-33.16
-11.86
7.17
22.51
33.68
40.98
45.06
46.60
46.12
44.04
40.87
37.27
34.04
31.87
31.21
32.08
34.20
37.13
40.39
43.61
46.53
48.91
50.46
50.93
50.04
47.73
44.14
39.60
34.47
29.09
23.65
18.26
12.97
7.94
3.33
-0.76
-4.34
-7.64
-11.00
-14.72
-18.92
-23.46
-28.04
-32.37
-36.28
-39.82
-43.31
-47.14
-51.81
-57.72
-65.12
-73.94
-83.57
-92.73
-99.60
-102.09
-98.48
-88.00
-71.26
-50.18
-27.50
-5.98
12.30
26.32
36.02
42.03
45.15
46.09
45.42
43.66
41.36
39.13
37.57
37.06
37.75
39.53
42.11
45.16
48.39
51.52
54.28
56.37
57.41
57.10
55.27
52.00
47.61
42.61
37.49
32.69
28.32
24.31
20.43
16.44
12.27
8.04
3.95
0.18
-3.28
-6.67
-10.31
-14.50
-19.25
-24.35
-29.35
-33.86
-37.68
-40.92
-44.00
-47.48
-51.97
-57.97
-65.67
-74.77
-84.27
-92.50
-97.32
-96.75
-89.54
-75.75
-56.76
-34.98
-13.09
6.67
22.94
35.28
43.94
49.37
51.98
52.09
50.09
46.54
42.32
38.41
35.69
34.63
35.27
37.30
40.26
43.69
47.26
50.64
53.44
55.23
55.62
54.36
51.53
47.49
42.76
37.96
33.49
29.57
26.16
23.01
19.81
16.30
12.37
8.13
3.83
-0.25
-3.97
-7.37
-10.66
-14.12
-17.93
-22.14
-26.62
-31.14
-35.47
-39.51
-43.35
-47.33
-51.94
-57.72
-64.91
-73.27
-81.88
-89.18
-93.28
-92.46
-85.64
-72.78
-54.96
-34.22
-12.98
6.53
22.72
34.90
43.13
47.92
49.84
49.39
47.00
43.22
38.82
34.78
32.06
31.28
32.59
35.60
39.61
43.78
47.43
50.12
51.68
52.11
51.51
49.93
47.41
43.99
39.86
35.37
30.97
27.02
23.61
20.47
17.06
12.92
7.90
2.32
-3.19
-8.03
-11.92
-15.07
-17.99
-21.22
-25.01
-29.22
-33.43
-37.27
-40.63
-43.80
-47.35
-51.95
-58.06
-65.83
-74.98
-84.72
-93.81
-100.58
-103.20
-100.10
-90.46
-74.64
-54.21
-31.66
-9.61
9.79
25.38
36.95
44.91
49.77
51.92
51.64
49.35
45.75
41.88
38.76
37.12
37.17
38.65
41.11
44.08
47.26
50.49
53.51
55.98
57.41
57.33
55.49
51.98
47.25
42.01
36.95
32.52
28.78
25.48
22.14
18.39
14.09
9.41
4.74
0.44
-3.26
-6.43
-9.36
-12.50
-16.26
-20.88
-26.24
-31.93
-37.36
-42.08
-45.96
-49.37
-53.06
-57.85
-64.39
-72.76
-82.29
-91.61
-98.80
-101.86
-99.24
-90.27
-75.46
-56.38
-35.27
-14.42
4.34
19.92
31.92
40.43
45.75
48.28
48.45
46.81
44.03
40.88
38.08
36.20
35.53
36.13
37.83
40.38
43.49
46.79
49.86
52.26
53.58
53.55
52.12
49.47
45.95
41.98
37.88
33.86
29.95
26.03
21.89
17.36
12.38
7.09
1.83
-2.97
-6.97
-10.09
-12.62
-15.02
-17.79
-21.21
-25.24
-29.62
-34.04
-38.33
-42.58
-47.02
-51.99
-57.82
-64.62
-72.19
-79.84
-86.36
-90.16
-89.65
-83.67
-71.96
-55.39
-35.67
-15.04
4.37
20.92
33.69
42.36
47.14
48.47
47.00
43.52
38.92
34.23
30.45
28.38
28.44
30.57
34.28
38.82
43.41
47.37
50.28
51.88
52.10
50.97
48.64
45.37
41.49
37.34
33.19
29.20
25.40
21.68
17.88
13.87
9.59
5.15
0.79
-3.22
-6.76
-9.92
-13.04
-16.55
-20.78
-25.75
-31.15
-36.52
-41.41
-45.65
-49.39
-53.08
-57.29
-62.59
-69.26
-77.20
-85.73
-93.61
-99.06
-100.21
-95.54
-84.42
-67.54
-46.72
-24.55
-3.57
14.34
28.37
38.61
45.61
49.98
52.07
52.09
50.33
47.43
44.28
41.84
40.75
41.16
42.80
45.19
47.88
50.56
53.12
55.40
57.17
58.11
57.91
56.38
53.51
49.54
44.83
39.82
34.89
30.33
26.19
22.36
18.62
14.70
10.52
6.20
2.05
-1.62
-4.68
-7.30
-9.92
-13.07
-17.14
-22.17
-27.85
-33.63
-38.96
-43.52
-47.40
-51.02
-54.97
-59.86
-66.06
-73.68
-82.43
-91.54
-99.69
-105.13
-106.00
-100.86
-89.26
-72.02
-51.12
-29.14
-8.51
9.10
23.01
33.35
40.69
45.59
48.46
49.54
49.09
47.53
45.43
43.48
42.24
42.05
42.87
44.49
46.51
48.62
50.63
52.44
53.92
54.83
54.85
53.72
51.33
47.86
43.72
39.38
35.23
31.44
27.97
24.66
21.31
17.80
14.13
10.41
6.73
3.24
0.01
-2.94
-5.65
-8.21
-10.77
-13.59
-16.86
-20.80
-25.44
-30.65
-36.10
-41.45
-46.39
-50.80
-54.85
-58.93
-63.60
-69.41
-76.64
-85.04
-93.72
-101.10
-105.23
-104.31
-97.22
-83.93
-65.68
-44.57
-23.06
-3.31
13.21
25.90
34.82
40.35
42.98
43.12
41.24
37.98
34.21
30.94
29.03
28.99
30.81
34.08
38.11
42.28
46.08
49.21
51.56
53.07
53.66
53.26
51.81
49.32
45.94
41.93
37.64
33.39
29.38
25.65
22.04
18.36
14.44
10.25
5.94
1.72
-2.20
-5.72
-8.90
-11.99
-15.27
-19.10
-23.64
-28.82
-34.30
-39.60
-44.24
-48.05
-51.23
-54.38
-58.35
-63.96
-71.68
-81.36
-92.07
-102.15
-109.47
-111.87
-107.79
-96.74
-79.56
-58.18
-35.19
-13.10
6.26
21.93
33.80
42.25
47.75
50.72
51.46
50.32
47.84
44.83
42.22
40.81
41.08
42.98
46.09
49.80
53.57
57.10
60.21
62.79
64.61
65.33
64.65
62.40
58.74
54.05
48.85
43.64
38.75
34.34
30.37
26.67
22.99
19.09
14.80
10.12
5.26
0.50
-3.86
-7.74
-11.26
-14.78
-18.67
-23.16
-28.29
-33.81
-39.34
-44.51
-49.14
-53.29
-57.34
-61.88
-67.54
-74.79
-83.63
-93.45
-102.90
-110.05
-112.77
-109.29
-98.81
-81.80
-59.97
-35.81
-11.93
9.61
27.53
41.39
51.21
57.27
59.86
59.44
56.66
52.47
47.94
44.10
41.71
41.05
42.03
44.29
47.36
50.82
54.35
57.66
60.48
62.49
63.40
63.02
61.27
58.31
54.39
49.84
44.92
39.86
34.80
29.91
25.31
21.10
17.25
13.64
10.12
6.63
3.20
-0.04
-3.05
-5.92
-8.92
-12.39
-16.58
-21.55
-27.07
-32.73
-38.06
-42.74
-46.65
-49.99
-53.20
-56.95
-61.92
-68.62
-77.11
-86.79
-96.32
-103.76
-106.97
-104.14
-94.34
-77.90
-56.40
-32.32
-8.47
12.74
29.68
41.76
49.19
52.68
53.06
51.17
47.71
43.40
38.98
35.19
32.68
31.83
32.68
34.96
38.16
41.73
45.16
48.12
50.41
51.89
52.35
51.59
49.39
45.77
40.95
35.45
29.82
24.50
19.61
15.02
10.46
5.74
0.90
-3.79
-8.06
-11.69
-14.78
-17.66
-20.78
-24.47
-28.86
-33.66
-38.46
-42.81
-46.52
-49.78
-53.17
-57.46
-63.38
-71.31
-81.05
-91.63
-101.35
-108.01
-109.42
-104.03
-91.45
-72.72
-50.01
-26.01
-3.26
16.37
31.94
43.25
50.52
54.21
54.91
53.28
50.09
46.18
42.35
39.27
37.37
36.89
37.86
40.13
43.43
47.41
51.62
55.50
58.42
59.79
59.20
56.55
52.12
46.47
40.32
34.24
28.57
23.30
18.27
13.31
8.38
3.59
-0.94
-5.16
-9.18
-13.25
-17.63
-22.43
-27.56
-32.75
-37.68
-42.14
-46.19
-50.16
-54.58
-60.02
-66.96
-75.59
-85.65
-96.23
-105.72
-112.00
-112.89
-106.81
-93.42
-73.85
-50.48
-26.24
-3.78
15.18
30.06
41.03
48.71
53.60
56.04
56.23
54.53
51.52
48.05
45.01
43.09
42.59
43.44
45.27
47.61
50.12
52.61
54.90
56.79
57.93
57.88
56.34
53.27
49.00
44.10
39.15
34.48
30.10
25.76
21.16
16.18
10.92
5.67
0.67
-3.98
-8.46
-13.03
-17.94
-23.14
-28.34
-33.10
-37.09
-40.31
-43.19
-46.42
-50.75
-56.76
-64.62
-73.98
-83.91
-92.93
-99.18
-100.71
-96.05
-84.61
-67.07
-45.33
-21.95
0.40
19.73
34.96
45.89
52.89
56.51
57.29
55.73
52.42
48.14
43.86
40.52
38.84
39.11
41.12
44.34
48.06
51.71
54.89
57.42
59.21
60.14
59.98
58.48
55.47
51.04
45.66
39.96
34.60
29.93
25.94
22.23
18.33
13.94
9.16
4.41
0.17
-3.25
-5.92
-8.29
-10.94
-14.32
-18.57
-23.48
-28.58
-33.42
-37.76
-41.68
-45.52
-49.87
-55.31
-62.23
-70.55
-79.57
-87.86
-93.50
-94.48
-89.39
-77.87
-60.88
-40.44
-19.11
0.79
17.63
30.70
40.01
45.89
48.74
48.91
46.83
43.15
38.81
34.84
32.13
31.17
31.93
34.01
36.85
39.91
42.84
45.39
47.36
48.48
48.52
47.35
44.98
41.71
37.88
33.89
30.01
26.34
22.81
19.23
15.41
11.26
6.88
2.48
-1.63
-5.26
-8.42
-11.36
-14.41
-17.88
-21.78
-25.88
-29.83
-33.35
-36.39
-39.23
-42.35
-46.32
-51.68
-58.75
-67.44
-77.06
-86.24
-93.08
-95.53
-91.98
-81.84
-65.77
-45.62
-23.85
-3.00
15.06
29.29
39.49
45.98
49.26
49.82
48.11
44.66
40.23
35.80
32.37
30.75
31.18
33.37
36.61
40.11
43.28
45.87
47.84
49.20
49.85
49.53
47.99
45.12
41.06
36.20
31.09
26.21
21.86
18.05
14.58
11.14
7.50
3.63
-0.21
-3.71
-6.59
-8.91
-11.04
-13.54
-16.89
-21.20
-26.22
-31.37
-36.14
-40.24
-43.77
-47.16
-51.03
-55.97
-62.37
-70.25
-79.08
-87.70
-94.41
-97.30
-94.71
-85.88
-71.24
-52.42
-31.80
-11.81
5.68
19.68
30.05
37.18
41.60
43.74
43.94
42.59
40.19
37.41
34.98
33.50
33.31
34.42
36.54
39.21
41.98
44.48
46.45
47.81
48.51
48.55
47.86
46.33
43.93
40.70
36.86
32.74
28.67
24.88
21.46
18.26
15.06
11.58
7.71
3.54
-0.60
-4.31
-7.28
-9.47
-11.18
-12.98
-15.45
-18.94
-23.41
-28.49
-33.63
-38.33
-42.37
-45.84
-49.19
-53.01
-58.01
-64.65
-72.96
-82.27
-91.14
-97.58
-99.49
-95.32
-84.65
-68.40
-48.64
-27.99
-8.84
7.16
19.43
28.21
34.16
37.86
39.69
39.82
38.48
36.09
33.40
31.19
30.12
30.50
32.21
34.87
37.98
41.05
43.72
45.77
47.07
47.61
47.39
46.42
44.69
42.16
38.85
34.87
30.53
26.22
22.30
19.00
16.25
13.74
11.08
7.95
4.30
0.32
-3.62
-7.16
-10.12
-12.59
-14.91
-17.49
-20.64
-24.42
-28.59
-32.75
-36.50
-39.72
-42.57
-45.55
-49.29
-54.36
-61.05
-69.26
-78.38
-87.28
-94.43
-98.08
-96.65
-89.17
-75.71
-57.44
-36.49
-15.41
3.50
18.74
29.74
36.79
40.54
41.67
40.68
37.97
34.03
29.60
25.64
23.11
22.63
24.24
27.44
31.43
35.42
38.93
41.79
44.07
45.80
46.82
46.84
45.52
42.78
38.87
34.33
29.81
25.78
22.43
19.61
16.99
14.22
11.12
7.64
3.95
0.26
-3.22
-6.37
-9.23
-11.99
-14.99
-18.54
-22.86
-27.89
-33.33
-38.74
-43.71
-48.06
-51.89
-55.58
-59.64
-64.63
-70.95
-78.75
-87.69
-96.76
-104.31
-108.27
-106.69
-98.41
-83.52
-63.51
-40.88
-18.38
1.66
17.94
30.13
38.60
43.95
46.69
47.21
45.90
43.30
40.17
37.37
35.62
35.34
36.59
39.09
42.42
46.12
49.77
53.05
55.73
57.65
58.73
58.89
58.05
56.15
53.22
49.45
45.16
40.75
36.52
32.56
28.84
25.18
21.49
17.77
14.13
10.69
7.47
4.42
1.44
-1.56
-4.65
-7.93
-11.54
-15.62
-20.27
-25.43
-30.85
-36.23
-41.27
-45.85
-50.06
-54.19
-58.68
-64.04
-70.75
-79.00
-88.40
-97.78
-105.29
-108.68
-106.03
-96.40
-80.20
-59.15
-35.84
-12.94
7.39
23.90
36.14
44.29
48.79
50.20
49.22
46.60
43.26
40.11
37.87
36.96
37.48
39.24
41.93
45.26
48.98
52.80
56.40
59.44
61.58
62.57
62.33
60.94
58.55
55.30
51.34
46.80
41.86
36.83
32.01
27.71
24.03
20.88
17.95
14.92
11.53
7.82
4.01
0.47
-2.56
-5.05
-7.26
-9.63
-12.59
-16.42
-21.12
-26.45
-31.98
-37.26
-41.92
-45.91
-49.49
-53.23
-57.89
-64.08
-72.01
-81.18
-90.32
-97.60
-100.98
-98.80
-90.24
-75.62
-56.32
-34.52
-12.55
7.49
24.11
36.58
44.81
49.21
50.35
48.93
45.59
41.04
36.07
31.57
28.48
27.44
28.66
31.79
36.01
40.44
44.39
47.55
49.96
51.66
52.57
52.41
50.87
47.84
43.59
38.73
34.04
30.11
27.10
24.60
21.91
18.33
13.54
7.85
2.06
-2.92
-6.45
-8.54
-9.78
-11.05
-13.15
-16.39
-20.58
-25.21
-29.76
-33.89
-37.60
-41.06
-44.64
-48.73
-53.74
-60.06
-67.84
-76.86
-86.17
-94.16
-98.69
-97.70
-89.86
-75.17
-55.05
-32.07
-9.18
11.12
27.25
38.69
45.76
49.15
49.60
47.77
44.29
39.90
35.51
32.08
30.38
30.76
33.02
36.52
40.41
43.96
46.84
49.08
50.92
52.48
53.59
53.83
52.73
50.08
46.07
41.13
35.82
30.56
25.56
20.85
16.35
12.02
7.82
3.73
-0.20
-3.91
-7.31
-10.46
-13.56
-16.95
-20.96
-25.68
-30.90
-36.09
-40.72
-44.46
-47.43
-50.21
-53.67
-58.76
-66.08
-75.55
-86.22
-96.20
-103.07
-104.45
-98.75
-85.74
-66.67
-43.93
-20.36
1.36
19.36
32.76
41.59
46.48
48.37
48.16
46.59
44.25
41.56
38.97
36.90
35.75
35.75
36.93
39.09
41.91
45.08
48.27
51.21
53.62
55.15
55.54
54.61
52.36
49.01
44.91
40.48
36.06
31.82
27.74
23.65
19.32
14.67
9.75
4.84
0.22
-3.85
-7.33
-10.38
-13.30
-16.36
-19.70
-23.28
-26.97
-30.59
-34.07
-37.47
-41.11
-45.47
-51.08
-58.36
-67.32
-77.33
-87.05
-94.57
-97.78
-95.01
-85.52
-69.82
-49.66
-27.59
-6.28
12.13
26.44
36.51
42.82
46.11
47.03
46.00
43.39
39.73
35.73
32.29
30.16
29.79
31.18
33.99
37.69
41.72
45.66
49.14
51.84
53.45
53.60
52.06
48.82
44.18
38.79
33.41
28.65
24.73
21.47
18.43
15.23
11.70
7.95
4.20
0.62
-2.82
-6.32
-10.06
-14.12
-18.42
-22.78
-26.99
-30.92
-34.47
-37.73
-40.93
-44.45
-48.75
-54.34
-61.45
-69.86
-78.64
-86.19
-90.46
-89.50
-82.14
-68.51
-50.07
-29.25
-8.70
9.46
23.99
34.59
41.46
45.04
45.73
43.92
40.21
35.44
30.61
26.72
24.47
24.12
25.55
28.30
31.84
35.60
39.12
42.00
43.98
44.89
44.65
43.28
40.87
37.53
33.47
28.86
23.93
18.83
13.73
8.76
4.03
-0.45
-4.71
-8.87
-13.11
-17.55
-22.18
-26.80
-31.09
-34.74
-37.69
-40.14
-42.55
-45.49
-49.51
-55.03
-62.21
-70.87
-80.27
-89.01
-95.13
-96.54
-91.60
-79.84
-62.22
-41.04
-19.21
0.60
16.71
28.60
36.74
41.91
44.75
45.53
44.37
41.50
37.53
33.38
30.01
28.10
27.89
29.24
31.78
35.13
38.89
42.66
45.96
48.29
49.23
48.53
46.19
42.45
37.71
32.45
27.12
22.02
17.28
12.87
8.75
4.85
1.18
-2.39
-6.06
-10.12
-14.71
-19.77
-24.90
-29.61
-33.48
-36.51
-39.05
-41.77
-45.41
-50.66
-57.93
-67.18
-77.73
-88.15
-96.35
-100.00
-97.26
-87.35
-71.01
-50.27
-27.94
-6.77
11.22
25.10
34.86
41.11
44.61
46.02
45.79
44.30
41.96
39.31
36.97
35.43
34.98
35.67
37.37
39.83
42.87
46.23
49.58
52.46
54.35
54.78
53.55
50.71
46.58
41.68
36.49
31.42
26.66
22.27
18.17
14.26
10.46
6.76
3.17
-0.36
-3.94
-7.71
-11.71
-15.87
-20.02
-23.96
-27.63
-31.09
-34.51
-38.10
-42.08
-46.84
-52.90
-60.68
-70.19
-80.59
-90.01
-95.92
-95.91
-88.59
-74.22
-54.62
-32.61
-11.09
7.75
22.79
33.84
41.24
45.50
47.09
46.43
44.08
40.73
37.22
34.37
32.71
32.44
33.41
35.29
37.73
40.45
43.25
45.94
48.26
49.90
50.51
49.85
47.86
44.68
40.68
36.32
31.95
27.80
23.89
20.08
16.23
12.29
8.38
4.71
1.33
-1.86
-5.16
-8.89
-13.17
-17.81
-22.36
-26.38
-29.56
-31.94
-33.87
-35.95
-38.86
-43.25
-49.50
-57.55
-66.80
-75.94
-83.18
-86.55
-84.43
-76.01
-61.69
-43.02
-22.40
-2.38
14.94
28.38
37.71
43.40
46.12
46.43
44.78
41.64
37.72
33.95
31.19
30.03
30.51
32.26
34.68
37.28
39.76
41.98
43.89
45.39
46.27
46.33
45.34
43.14
39.75
35.34
30.28
25.04
20.00
15.35
11.06
6.97
2.95
-0.96
-4.64
-7.97
-10.99
-13.90
-17.01
-20.52
-24.47
-28.67
-32.85
-36.75
-40.27
-43.59
-47.21
-51.85
-58.16
-66.45
-76.26
-86.27
-94.40
-98.35
-96.26
-87.32
-72.05
-52.24
-30.41
-9.17
9.42
24.17
34.81
41.70
45.46
46.72
46.00
43.77
40.61
37.21
34.34
32.63
32.40
33.58
35.87
38.86
42.20
45.62
48.85
51.53
53.24
53.56
52.25
49.34
45.17
40.25
35.13
30.22
25.68
21.46
17.40
13.31
9.11
4.84
0.67
-3.30
-7.06
-10.74
-14.61
-18.83
-23.41
-28.14
-32.67
-36.67
-40.04
-42.90
-45.73
-49.15
-53.81
-60.14
-68.13
-77.10
-85.73
-92.17
-94.48
-91.16
-81.61
-66.43
-47.30
-26.60
-6.74
10.44
23.97
33.75
40.27
44.15
45.93
45.96
44.57
42.21
39.50
37.10
35.58
35.18
35.84
37.30
39.21
41.34
43.51
45.63
47.53
48.96
49.57
49.06
47.22
44.09
39.94
35.28
30.62
26.38
22.71
19.44
16.25
12.78
8.84
4.51
0.10
-3.97
-7.38
-10.07
-12.28
-14.46
-17.08
-20.40
-24.38
-28.77
-33.21
-37.47
-41.50
-45.52
-49.89
-55.03
-61.29
-68.73
-77.01
-85.15
-91.61
-94.47
-92.06
-83.51
-69.16
-50.62
-30.29
-10.64
6.45
20.04
30.01
36.75
40.73
42.25
41.55
38.99
35.20
31.13
27.81
26.05
26.23
28.15
31.29
34.94
38.46
41.46
43.67
44.99
45.30
44.56
42.77
40.07
36.71
33.01
29.24
25.57
22.05
18.65
15.25
11.71
7.92
3.84
-0.44
-4.66
-8.50
-11.71
-14.32
-16.67
-19.24
-22.47
-26.48
-30.99
-35.51
-39.57
-43.04
-46.16
-49.59
-54.12
-60.36
-68.40
-77.59
-86.46
-92.99
-95.09
-91.20
-80.84
-64.84
-45.09
-24.11
-4.27
12.68
25.90
35.34
41.40
44.59
45.34
44.01
41.07
37.16
33.18
30.06
28.51
28.81
30.76
33.85
37.42
40.91
43.95
46.34
47.97
48.74
48.56
47.38
45.20
42.12
38.31
33.98
29.42
24.79
20.21
15.65
11.04
6.33
1.67
-2.66
-6.33
-9.15
-11.18
-12.85
-14.78
-17.55
-21.47
-26.45
-32.03
-37.56
-42.55
-46.76
-50.45
-54.26
-59.08
-65.67
-74.30
-84.44
-94.65
-102.76
-106.42
-103.73
-93.95
-77.70
-56.88
-34.10
-11.97
7.52
23.27
35.04
43.08
47.85
49.83
49.46
47.31
44.13
40.83
38.30
37.18
37.69
39.61
42.46
45.65
48.71
51.41
53.66
55.44
56.62
57.02
56.38
54.57
51.62
47.76
43.37
38.84
34.50
30.51
26.89
23.50
20.12
16.53
12.60
8.37
4.06
-0.01
-3.60
-6.68
-9.55
-12.62
-16.34
-20.83
-25.83
-30.87
-35.45
-39.38
-42.86
-46.43
-50.76
-56.47
-63.90
-72.97
-83.09
-93.00
-100.91
-104.77
-102.77
-93.97
-78.69
-58.54
-36.05
-13.96
5.55
21.25
32.90
40.94
46.02
48.62
49.02
47.41
44.15
39.96
35.79
32.65
31.28
31.97
34.53
38.44
43.05
47.71
51.91
55.23
57.34
58.00
57.06
54.55
50.70
45.98
40.94
36.10
31.74
27.89
24.33
20.73
16.83
12.59
8.21
4.03
0.36
-2.61
-4.98
-7.06
-9.29
-12.08
-15.68
-20.00
-24.79
-29.63
-34.20
-38.38
-42.32
-46.34
-50.93
-56.54
-63.45
-71.52
-80.02
-87.57
-92.31
-92.44
-86.72
-74.99
-58.29
-38.54
-18.05
1.15
17.61
30.55
39.77
45.39
47.73
47.28
44.71
40.77
36.35
32.31
29.41
28.18
28.81
31.18
34.81
39.05
43.20
46.69
49.17
50.51
50.68
49.74
47.75
44.87
41.34
37.48
33.55
29.62
25.56
21.12
16.07
10.39
4.39
-1.38
-6.38
-10.30
-13.20
-15.53
-17.84
-20.63
-24.08
-28.04
-32.12
-35.95
-39.40
-42.66
-46.25
-50.79
-56.85
-64.67
-73.98
-83.90
-92.87
-98.93
-100.05
-94.78
-82.76
-64.93
-43.40
-20.83
0.28
18.11
31.80
41.34
47.15
49.83
49.94
48.02
44.71
40.74
36.94
34.05
32.56
32.67
34.29
37.10
40.74
44.76
48.73
52.23
54.82
56.11
55.82
53.86
50.42
45.91
40.91
35.96
31.43
27.40
23.64
19.77
15.47
10.67
5.57
0.60
-3.89
-7.73
-11.03
-14.10
-17.27
-20.77
-24.66
-28.88
-33.28
-37.73
-42.18
-46.69
-51.50
-57.02
-63.65
-71.51
-80.13
-88.24
-93.96
-95.24
-90.56
-79.49
-62.91
-42.81
-21.65
-1.74
15.27
28.53
37.91
43.66
46.25
46.26
44.32
41.17
37.65
34.57
32.59
32.10
33.15
35.51
38.73
42.32
45.78
48.72
50.84
51.95
51.93
50.73
48.44
45.24
41.42
37.30
33.16
29.17
25.34
21.58
17.71
13.64
9.40
5.15
1.07
-2.67
-6.07
-9.26
-12.47
-15.90
-19.64
-23.66
-27.81
-31.89
-35.78
-39.42
-42.94
-46.71
-51.25
-57.09
-64.51
-73.16
-81.91
-88.90
-91.99
-89.40
-80.32
-65.26
-45.92
-24.74
-4.22
13.65
27.70
37.56
43.47
45.91
45.46
42.72
38.37
33.27
28.35
24.51
22.38
22.19
23.71
26.45
29.81
33.24
36.38
38.98
40.85
41.89
41.98
41.09
39.21
36.39
32.74
28.38
23.52
18.37
13.19
8.22
3.61
-0.51
-4.13
-7.32
-10.20
-12.99
-15.88
-19.04
-22.51
-26.20
-29.92
-33.45
-36.72
-39.82
-43.11
-47.10
-52.30
-58.98
-66.90
-75.20
-82.38
-86.61
-86.11
-79.74
-67.40
-50.12
-29.88
-9.13
9.82
25.31
36.51
43.42
46.53
46.60
44.38
40.64
36.11
31.58
27.83
25.56
25.18
26.78
30.07
34.46
39.15
43.35
46.36
47.80
47.61
46.06
43.59
40.60
37.33
33.79
29.86
25.47
20.67
15.73
10.98
6.65
2.82
-0.65
-4.03
-7.62
-11.62
-16.01
-20.57
-24.99
-28.97
-32.41
-35.48
-38.58
-42.24
-46.95
-53.00
-60.45
-69.00
-77.86
-85.81
-91.18
-92.22
-87.61
-76.92
-60.91
-41.41
-20.74
-1.15
15.73
29.07
38.72
44.92
48.10
48.73
47.34
44.57
41.18
37.98
35.71
34.87
35.63
37.80
40.94
44.43
47.71
50.36
52.09
52.81
52.50
51.16
48.86
45.77
42.08
38.05
33.90
29.72
25.49
21.10
16.43
11.47
6.36
1.40
-3.09
-6.94
-10.22
-13.21
-16.27
-19.67
-23.45
-27.40
-31.24
-34.82
-38.19
-41.74
-46.04
-51.70
-59.08
-68.04
-77.76
-86.72
-92.95
-94.50
-90.05
-79.34
-63.30
-43.85
-23.28
-3.73
13.25
26.84
36.81
43.27
46.50
46.85
44.85
41.27
37.10
33.41
31.05
30.46
31.61
34.04
37.24
40.71
44.11
47.26
49.93
51.85
52.67
52.09
49.97
46.49
42.05
37.27
32.74
28.82
25.54
22.58
19.51
15.94
11.80
7.31
2.92
-0.95
-4.10
-6.60
-8.79
-11.10
-13.89
-17.30
-21.25
-25.51
-29.76
-33.78
-37.45
-40.94
-44.62
-49.04
-54.71
-61.92
-70.38
-79.13
-86.49
-90.48
-89.27
-81.84
-68.39
-50.33
-29.94
-9.72
8.26
22.70
33.16
39.76
42.95
43.25
41.23
37.61
33.30
29.35
26.72
25.97
27.16
29.85
33.33
36.91
40.13
42.76
44.76
46.14
46.82
46.68
45.57
43.42
40.33
36.57
32.49
28.42
24.49
20.60
16.56
12.16
7.43
2.64
-1.74
-5.31
-7.98
-10.01
-11.98
-14.51
-18.01
-22.50
-27.60
-32.73
-37.35
-41.18
-44.34
-47.36
-50.92
-55.75
-62.29
-70.53
-79.90
-89.15
-96.48
-99.82
-97.38
-88.15
-72.45
-51.96
-29.33
-7.47
11.28
25.65
35.49
41.42
44.33
44.99
43.97
41.70
38.69
35.60
33.10
31.81
32.04
33.78
36.74
40.47
44.48
48.30
51.63
54.19
55.84
56.50
56.02
54.27
51.20
46.88
41.68
36.15
30.89
26.33
22.54
19.24
16.03
12.63
9.02
5.41
2.10
-0.77
-3.29
-5.79
-8.67
-12.24
-16.58
-21.55
-26.81
-31.95
-36.64
-40.72
-44.24
-47.50
-50.95
-55.11
-60.48
-67.38
-75.73
-84.93
-93.64
-100.02
-101.98
-97.91
-87.14
-70.39
-49.60
-27.44
-6.50
11.32
25.13
34.93
41.29
44.86
46.22
45.80
44.00
41.34
38.48
36.10
34.75
34.70
35.98
38.41
41.62
45.22
48.78
51.88
54.17
55.44
55.56
54.55
52.45
49.35
45.43
40.97
36.35
31.96
28.06
24.69
21.62
18.52
15.03
11.02
6.60
2.11
-1.99
-5.31
-7.69
-9.32
-10.69
-12.45
-15.17
-19.10
-24.09
-29.63
-35.11
-40.02
-44.19
-47.77
-51.27
-55.29
-60.45
-67.09
-75.08
-83.67
-91.42
-96.46
-96.84
-91.22
-79.30
-62.05
-41.56
-20.36
-0.80
15.51
27.91
36.43
41.46
43.45
42.88
40.28
36.36
32.08
28.46
26.32
26.05
27.56
30.30
33.56
36.73
39.46
41.70
43.58
45.10
46.06
46.07
44.78
42.09
38.33
34.09
30.00
26.39
23.26
20.24
16.90
12.97
8.48
3.73
-0.82
-4.70
-7.72
-9.95
-11.79
-13.79
-16.46
-20.07
-24.51
-29.35
-34.03
-38.13
-41.57
-44.59
-47.74
-51.60
-56.73
-63.41
-71.57
-80.57
-89.10
-95.29
-97.04
-92.64
-81.36
-63.96
-42.49
-19.84
1.18
18.52
31.33
39.73
44.42
46.25
45.89
43.86
40.68
36.99
33.57
31.14
30.22
30.94
33.05
36.05
39.42
42.76
45.84
48.50
50.53
51.56
51.21
49.20
45.60
40.84
35.62
30.62
26.27
22.64
19.44
16.27
12.81
8.93
4.74
0.50
-3.53
-7.15
-10.42
-13.57
-16.91
-20.72
-25.06
-29.71
-34.34
-38.63
-42.51
-46.19
-50.16
-55.01
-61.25
-69.13
-78.38
-88.07
-96.58
-101.84
-101.81
-95.15
-81.72
-62.82
-40.83
-18.54
1.62
18.14
30.54
39.14
44.53
47.28
47.74
46.23
43.21
39.45
35.91
33.50
32.79
33.84
36.26
39.44
42.83
46.06
48.93
51.33
53.09
54.01
53.89
52.58
50.13
46.79
42.92
38.93
35.09
31.46
27.87
23.98
19.56
14.60
9.39
4.44
0.20
-3.12
-5.70
-8.04
-10.78
-14.34
-18.81
-23.85
-28.91
-33.43
-37.17
-40.34
-43.58
-47.78
-53.74
-61.81
-71.63
-82.01
-91.10
-96.70
-96.85
-90.38
-77.29
-58.92
-37.54
-15.79
3.94
20.09
32.02
39.83
44.06
45.32
44.20
41.30
37.31
33.08
29.52
27.42
27.22
28.96
32.26
36.50
41.02
45.23
48.67
51.06
52.18
51.93
50.32
47.53
43.87
39.79
35.69
31.82
28.19
24.59
20.75
16.44
11.71
6.80
2.09
-2.09
-5.65
-8.74
-11.72
-14.94
-18.61
-22.66
-26.78
-30.65
-34.02
-36.96
-39.78
-43.00
-47.19
-52.75
-59.76
-67.87
-76.13
-83.06
-86.84
-85.77
-78.78
-65.87
-48.27
-28.14
-7.96
10.14
24.82
35.63
42.77
46.71
47.93
46.84
43.93
39.90
35.64
32.10
30.04
29.80
31.27
33.97
37.28
40.63
43.59
45.92
47.46
48.11
47.78
46.43
44.11
40.97
37.30
33.35
29.35
25.35
21.27
16.97
12.37
7.49
2.53
-2.21
-6.50
-10.27
-13.67
-16.99
-20.51
-24.34
-28.37
-32.34
-36.03
-39.39
-42.62
-46.17
-50.63
-56.55
-64.30
-73.74
-84.06
-93.68
-100.43
-102.08
-97.02
-84.82
-66.56
-44.52
-21.55
-0.28
17.49
30.97
40.24
45.86
48.49
48.71
47.05
44.05
40.38
36.84
34.25
33.24
34.07
36.54
40.09
44.00
47.65
50.66
52.88
54.29
54.78
54.19
52.26
48.93
44.48
39.44
34.46
30.06
26.38
23.16
19.97
16.37
12.23
7.70
3.17
-0.90
-4.24
-6.85
-9.08
-11.45
-14.46
-18.35
-23.01
-28.03
-32.94
-37.45
-41.58
-45.65
-50.17
-55.67
-62.52
-70.71
-79.72
-88.33
-94.75
-96.92
-93.19
-82.94
-66.88
-46.92
-25.59
-5.32
12.19
26.10
36.27
42.92
46.42
47.15
45.63
42.55
38.82
35.40
33.06
32.26
33.07
35.16
38.06
41.22
44.17
46.60
48.33
49.24
49.29
48.44
46.77
44.37
41.44
38.18
34.78
31.40
28.08
24.81
21.49
18.04
14.37
10.45
6.39
2.37
-1.30
-4.45
-7.03
-9.26
-11.50
-14.16
-17.42
-21.24
-25.30
-29.23
-32.77
-35.90
-38.94
-42.38
-46.82
-52.74
-60.33
-69.26
-78.53
-86.51
-91.18
-90.69
-83.90
-70.91
-53.07
-32.68
-12.31
5.90
20.62
31.42
38.48
42.32
43.51
42.55
40.03
36.60
33.02
30.06
28.39
28.39
30.10
33.20
37.10
41.08
44.50
46.99
48.43
48.89
48.50
47.24
45.00
41.72
37.51
32.75
28.04
23.88
20.45
17.51
14.54
11.12
7.17
3.02
-0.79
-3.80
-5.97
-7.72
-9.64
-12.30
-15.94
-20.49
-25.60
-30.87
-35.89
-40.37
-44.22
-47.62
-51.08
-55.38
-61.23
-68.95
-77.97
-86.80
-93.31
-95.30
-91.22
-80.68
-64.66
-45.16
-24.60
-5.22
11.44
24.69
34.52
41.26
45.27
46.91
46.50
44.51
41.66
38.81
36.78
36.11
36.89
38.82
41.35
43.95
46.26
48.05
49.27
49.87
49.79
48.94
47.25
44.72
41.48
37.81
34.05
30.52
27.34
24.41
21.43
18.07
14.14
9.71
5.09
0.71
-3.07
-6.11
-8.54
-10.66
-12.88
-15.52
-18.75
-22.51
-26.55
-30.51
-34.12
-37.40
-40.69
-44.58
-49.70
-56.46
-64.85
-74.32
-83.73
-91.48
-95.75
-94.88
-87.85
-74.69
-56.60
-35.75
-14.66
4.42
20.02
31.68
39.62
44.45
46.76
47.00
45.53
42.81
39.47
36.32
34.06
33.16
33.69
35.37
37.79
40.48
43.17
45.69
47.90
49.63
50.57
50.39
48.81
45.74
41.38
36.21
30.90
26.12
22.35
19.71
17.95
16.55
14.96
12.79
9.94
6.53
2.85
-0.77
-4.11
-7.08
-9.74
-12.25
-14.89
-17.83
-21.19
-24.85
-28.54
-32.04
-35.25
-38.37
-41.77
-45.93
-51.23
-57.83
-65.59
-73.97
-81.96
-88.06
-90.57
-87.96
