1624616165.00
64.000000
-0.00
-0.00
-0.00
-0.00
-0.00
-0.00
-0.00
-0.00
-0.00
-0.00
0.00
0.01
0.01
-0.00
-0.03
-0.05
-0.05
0.00
0.13
0.36
0.66
1.01
1.37
1.72
2.06
2.40
2.79
3.24
3.80
4.42
5.06
5.66
6.20
6.68
7.15
7.68
8.31
9.14
10.09
11.04
11.88
12.56
13.14
13.76
14.65
15.96
17.91
20.32
22.90
25.38
27.58
29.57
31.68
34.32
37.81
42.54
48.15
54.10
59.83
64.97
69.58
74.14
79.34
85.71
93.76
103.00
112.62
121.73
129.77
136.75
143.30
150.75
157.77
166.64
177.95
191.79
206.97
220.57
228.25
225.36
208.53
176.87
132.76
80.05
23.07
-34.94
-92.44
-149.16
-205.23
-260.37
-313.74
-363.87
-409.83
-450.91
-486.50
-515.74
-537.23
-549.22
-549.96
-538.37
-514.21
-478.67
-433.88
-382.45
-327.02
-269.84
-212.63
-156.66
-102.95
-52.37
-5.90
35.58
71.43
101.35
125.50
144.38
158.69
169.15
176.37
180.75
182.57
182.07
179.51
175.23
169.65
163.18
156.15
148.81
141.30
133.69
126.02
118.33
110.69
103.16
95.80
88.68
81.83
75.25
68.95
62.95
57.25
51.86
46.78
42.03
37.59
33.45
29.61
26.07
22.81
19.83
17.11
14.67
12.48
10.54
8.83
7.35
6.07
4.97
4.05
3.27
2.62
2.09
1.65
1.30
1.01
0.79
0.61
0.47
0.37
0.29
0.23
0.18
0.15
0.14
0.13
0.14
0.15
0.17
0.19
0.22
0.26
0.29
0.33
0.38
0.42
0.47
0.52
0.57
0.62
0.67
0.73
0.79
0.86
0.94
1.02
1.11
1.21
1.32
1.45
1.59
1.75
1.92
2.12
2.34
2.58
2.84
3.14
3.46
3.81
4.20
4.62
5.08
5.58
6.11
6.68
7.30
7.95
8.65
9.40
10.19
11.03
11.91
12.83
13.81
14.85
15.96
17.12
18.34
19.61
20.88
22.11
23.21
24.11
24.68
24.79
24.35
23.25
21.46
18.96
15.81
12.08
7.94
3.56
-0.86
-5.10
-8.98
-12.35
-15.09
-17.13
-18.47
-19.11
-19.15
-18.68
-17.79
-16.59
-15.14
-13.52
-11.77
-9.91
-7.95
-5.97
-4.02
-2.10
-0.22
1.66
3.58
5.60
7.73
10.07
12.47
14.87
17.24
19.60
21.99
24.50
27.22
30.22
33.62
37.17
40.71
44.19
47.63
51.13
54.82
58.87
63.38
68.47
73.62
78.54
83.06
87.20
91.17
95.24
99.65
104.51
109.79
114.59
118.23
120.21
120.30
118.48
114.66
108.28
97.80
85.75
72.19
56.86
39.65
20.84
1.08
-18.80
-38.03
-56.20
-73.23
-90.09
-107.79
-127.36
-149.65
-174.98
-202.53
-230.08
-254.12
-270.66
-277.13
-272.83
-259.36
-240.12
-219.00
-199.04
-181.63
-166.56
-152.69
-139.08
-125.01
-110.18
-94.51
-78.00
-60.76
-43.09
-25.59
-9.08
5.39
17.01
25.42
30.89
34.22
36.48
38.69
41.47
44.88
48.50
51.69
53.90
54.94
54.93
54.20
53.06
51.67
50.00
47.89
45.18
41.80
37.82
33.46
29.00
24.72
20.83
17.35
14.03
10.50
6.35
1.33
-4.42
-10.34
-15.55
-19.07
-20.13
-18.37
-13.97
-7.57
-0.11
7.42
14.20
19.70
23.69
26.18
27.32
27.35
26.55
25.27
23.88
22.75
22.09
21.97
22.28
22.78
23.14
23.12
22.52
21.29
19.46
17.15
14.52
11.70
8.80
5.88
3.01
0.16
-2.76
-5.91
-9.52
-13.80
-18.80
-24.32
-29.83
-34.53
-37.50
-37.92
-35.38
-30.01
-22.59
-14.24
-6.17
0.70
5.97
9.74
12.38
14.28
15.63
16.43
16.60
16.18
15.41
14.71
14.49
14.92
15.88
16.94
17.59
17.43
16.31
14.33
11.78
8.99
6.18
3.46
0.84
-1.75
-4.38
-7.12
-10.11
-13.57
-17.73
-22.75
-28.53
-34.53
-39.82
-43.34
-44.17
-41.90
-36.76
-29.48
-21.12
-12.66
-4.90
1.74
7.05
10.97
13.52
14.73
14.70
13.67
12.01
10.21
8.74
7.92
7.83
8.30
8.99
9.54
9.68
9.30
8.40
7.05
5.24
2.90
-0.00
-3.47
-7.36
-11.50
-15.71
-19.91
-24.15
-28.49
-32.85
-36.96
-40.23
-41.89
-41.25
-37.93
-32.03
-24.17
-15.31
-6.52
1.33
7.67
12.34
15.42
17.17
17.88
17.90
17.57
17.27
17.33
17.95
19.08
20.45
21.60
22.11
21.69
20.29
18.07
15.34
12.43
9.58
6.91
4.42
1.99
-0.56
-3.44
-6.81
-10.77
-15.34
-20.39
-25.59
-30.39
-34.06
-35.78
-34.96
-31.43
-25.52
-18.02
-9.92
-2.11
4.82
10.56
15.06
18.34
20.45
21.53
21.77
21.49
21.05
20.83
21.04
21.74
22.78
23.88
24.73
25.04
24.63
23.49
21.67
19.29
16.45
13.18
9.51
5.51
1.25
-3.18
-7.75
-12.50
-17.44
-22.51
-27.45
-31.81
-34.98
-36.40
-35.64
-32.57
-27.39
-20.59
-12.87
-5.02
2.29
8.64
13.83
17.88
20.84
22.71
23.37
22.73
20.79
17.81
14.28
10.82
7.96
5.98
4.83
4.23
3.78
3.18
2.34
1.37
0.49
-0.18
-0.70
-1.36
-2.55
-4.66
-7.84
-12.03
-16.87
-21.79
-26.06
-28.90
-29.64
-27.79
-23.33
-16.71
-8.84
-0.72
6.73
13.03
18.10
22.11
25.21
27.37
28.42
28.27
27.15
25.57
24.23
23.67
24.04
25.04
26.15
26.86
26.89
26.20
24.90
23.06
20.69
17.72
14.10
9.91
5.28
0.40
-4.61
-9.73
-14.98
-20.30
-25.41
-29.76
-32.58
-33.09
-30.85
-25.88
-18.80
-10.64
-2.51
4.63
10.29
14.33
16.91
18.21
18.39
17.53
15.81
13.56
11.34
9.75
9.29
10.02
11.62
13.40
14.65
14.89
13.98
12.13
9.71
7.09
4.45
1.87
-0.67
-3.22
-5.82
-8.58
-11.62
-15.14
-19.25
-23.85
-28.50
-32.45
-34.80
-34.76
-31.93
-26.49
-19.18
-11.07
-3.24
3.50
8.76
12.60
15.29
17.16
18.42
19.13
19.25
18.86
18.16
17.47
17.10
17.21
17.68
18.23
18.49
18.21
17.29
15.80
13.88
11.68
9.36
7.04
4.83
2.76
0.77
-1.38
-4.02
-7.52
-12.06
-17.57
-23.54
-29.12
-33.22
-34.87
-33.45
-29.00
-22.11
-13.87
-5.43
2.31
8.85
14.05
18.03
20.89
22.70
23.53
23.52
22.97
22.31
21.93
22.05
22.65
23.47
24.17
24.47
24.22
23.40
22.04
20.15
17.74
14.90
11.78
8.61
5.64
2.99
0.56
-1.89
-4.72
-8.24
-12.51
-17.34
-22.25
-26.55
-29.50
-30.44
-29.04
-25.32
-19.76
-13.12
-6.25
0.13
5.57
9.93
13.26
15.66
17.18
17.83
17.69
17.00
16.12
15.43
15.20
15.40
15.77
15.94
15.67
14.91
13.79
12.52
11.26
9.97
8.55
6.82
4.70
2.20
-0.56
-3.47
-6.49
-9.70
-13.24
-17.29
-21.78
-26.40
-30.48
-33.19
-33.80
-31.97
-27.85
-22.08
-15.49
-8.89
-2.84
2.33
6.50
9.64
11.71
12.74
12.84
12.16
11.05
9.90
9.18
9.18
9.97
11.25
12.46
12.97
12.38
10.66
8.13
5.28
2.57
0.25
-1.64
-3.25
-4.80
-6.55
-8.78
-11.71
-15.46
-19.93
-24.81
-29.56
-33.51
-35.97
-36.34
-34.30
-29.92
-23.72
-16.56
-9.42
-3.13
1.92
5.76
8.70
11.04
12.92
14.30
15.07
15.24
15.02
14.72
14.61
14.81
15.20
15.62
15.85
15.86
15.61
15.12
14.36
13.18
11.48
9.26
6.61
3.70
0.69
-2.41
-5.71
-9.39
-13.52
-17.96
-22.32
-26.01
-28.42
-29.03
-27.58
-24.15
-19.08
-12.99
-6.64
-0.71
4.23
7.91
10.33
11.72
12.39
12.66
12.77
12.89
13.10
13.42
13.80
14.13
14.30
14.22
13.85
13.10
11.92
10.24
8.04
5.40
2.50
-0.47
-3.37
-6.17
-8.97
-11.83
-14.81
-17.89
-21.10
-24.44
-27.89
-31.26
-34.18
-36.04
-36.24
-34.34
-30.31
-24.54
-17.75
-10.80
-4.44
0.87
4.94
7.85
9.79
10.98
11.65
11.93
11.99
11.99
12.08
12.36
12.85
13.42
13.88
14.03
13.73
12.96
11.84
10.59
9.38
8.24
7.05
5.58
3.60
1.02
-2.09
-5.56
-9.31
-13.33
-17.71
-22.45
-27.25
-31.47
-34.27
-34.91
-33.01
-28.78
-22.88
-16.27
-9.80
-4.10
0.55
4.17
6.94
9.04
10.65
11.88
12.81
13.49
14.02
14.46
14.87
15.28
15.64
15.86
15.84
15.50
14.82
13.83
12.57
11.05
9.22
7.03
4.48
1.64
-1.30
-4.15
-6.77
-9.19
-11.60
-14.31
-17.58
-21.44
-25.53
-29.17
-31.47
-31.71
-29.54
-25.27
-19.59
-13.48
-7.74
-2.77
1.35
4.77
7.64
9.93
11.50
12.30
12.40
12.12
11.89
12.06
12.77
13.88
15.11
16.15
16.81
17.05
16.92
16.47
15.65
14.37
12.58
10.32
7.72
5.02
2.36
-0.23
-2.87
-5.78
-9.18
-13.13
-17.56
-22.06
-26.09
-28.96
-30.05
-29.04
-25.98
-21.30
-15.73
-9.98
-4.72
-0.33
3.03
5.37
6.86
7.71
8.19
8.59
9.12
9.96
11.16
12.66
14.23
15.59
16.44
16.56
15.95
14.79
13.41
12.11
11.07
10.27
9.49
8.49
7.11
5.35
3.28
0.97
-1.63
-4.66
-8.23
-12.40
-16.98
-21.56
-25.53
-28.20
-29.01
-27.67
-24.24
-19.18
-13.19
-7.05
-1.40
3.36
7.02
9.56
11.02
11.50
11.14
10.21
9.06
8.06
7.52
7.57
8.13
9.01
9.88
10.49
10.59
10.07
8.94
7.30
5.29
3.09
0.86
-1.26
-3.21
-4.99
-6.73
-8.59
-10.83
-13.66
-17.18
-21.27
-25.54
-29.29
-31.72
-32.12
-30.11
-25.83
-19.92
-13.30
-6.92
-1.48
2.77
5.87
8.07
9.59
10.54
10.99
11.02
10.79
10.49
10.25
10.14
10.10
10.07
10.00
9.93
9.89
9.83
9.67
9.24
8.41
7.11
5.36
3.22
0.77
-1.92
-4.76
-7.71
-10.81
-14.17
-17.93
-22.11
-26.47
-30.48
-33.40
-34.52
-33.40
-30.01
-24.80
-18.54
-12.05
-6.04
-0.88
3.29
6.50
8.85
10.41
11.28
11.56
11.44
11.13
10.87
10.86
11.19
11.90
12.93
14.12
15.18
15.79
15.61
14.48
12.46
9.81
6.86
3.88
1.03
-1.66
-4.20
-6.64
-9.09
-11.67
-14.67
-18.23
-22.35
-26.64
-30.38
-32.74
-32.91
-30.53
-25.77
-19.32
-12.22
-5.45
0.29
4.71
7.88
10.07
11.53
12.39
12.73
12.67
12.46
12.42
12.83
13.74
14.93
16.00
16.62
16.61
16.07
15.24
14.32
13.41
12.44
11.28
9.81
7.98
5.83
3.42
0.81
-2.07
-5.29
-8.97
-13.16
-17.63
-21.91
-25.24
-26.81
-26.04
-22.83
-17.64
-11.39
-5.09
0.44
4.80
8.06
10.51
12.52
14.26
15.71
16.70
17.12
17.04
16.73
16.57
16.77
17.30
17.90
18.27
18.18
17.60
16.63
15.37
13.82
11.89
9.49
6.70
3.68
0.66
-2.24
-5.05
-7.95
-11.16
-14.80
-18.82
-22.91
-26.57
-29.18
-30.15
-29.07
-25.90
-20.94
-14.82
-8.24
-1.83
3.94
8.80
12.57
15.14
16.40
16.44
15.52
14.12
12.84
12.17
12.34
13.20
14.33
15.21
15.44
14.91
13.70
12.11
10.35
8.57
6.73
4.81
2.76
0.53
-1.94
-4.75
-8.03
-11.88
-16.24
-20.79
-24.98
-28.14
-29.59
-28.90
-26.01
-21.30
-15.49
-9.46
-3.95
0.61
4.14
6.83
8.91
10.57
11.84
12.71
13.24
13.59
13.94
14.43
15.05
15.64
16.01
15.95
15.41
14.39
13.01
11.45
9.92
8.51
7.30
6.14
4.75
2.85
0.16
-3.37
-7.61
-12.28
-16.99
-21.31
-24.75
-26.90
-27.32
-25.81
-22.43
-17.57
-11.85
-6.01
-0.70
3.74
7.23
9.87
11.79
13.06
13.62
13.50
12.77
11.71
10.76
10.28
10.47
11.21
12.12
12.72
12.65
11.77
10.17
8.05
5.59
2.88
-0.06
-3.21
-6.51
-9.83
-13.16
-16.56
-20.16
-24.01
-27.87
-31.20
-33.19
-33.12
-30.60
-25.82
-19.46
-12.47
-5.67
0.37
5.49
9.75
13.30
16.16
18.29
19.61
20.18
20.27
20.25
20.46
21.10
22.08
23.06
23.61
23.38
22.23
20.29
17.86
15.33
13.00
10.97
9.15
7.27
5.06
2.31
-1.09
-5.17
-9.87
-15.03
-20.38
-25.37
-29.29
-31.35
-30.89
-27.67
-21.96
-14.48
-6.25
1.73
8.70
14.28
18.36
21.13
22.85
23.79
24.14
24.11
23.87
23.64
23.58
23.74
24.06
24.31
24.28
23.79
22.82
21.42
19.70
17.78
15.68
13.42
10.95
8.27
5.38
2.31
-0.90
-4.22
-7.68
-11.41
-15.55
-20.16
-25.07
-29.76
-33.47
-35.45
-35.13
-32.45
-27.79
-21.84
-15.38
-9.02
-3.17
2.02
6.57
10.54
13.96
16.76
18.91
20.34
21.13
21.47
21.62
21.79
22.08
22.41
22.61
22.54
22.11
21.30
20.11
18.53
16.54
14.12
11.35
8.39
5.44
2.66
0.13
-2.15
-4.31
-6.58
-9.21
-12.41
-16.27
-20.55
-24.70
-27.93
-29.46
-28.79
-25.91
-21.31
-15.74
-9.99
-4.58
0.25
4.45
8.07
11.06
13.35
14.90
15.83
16.36
16.78
17.34
18.11
19.06
20.03
20.89
21.48
21.78
21.75
21.40
20.73
19.73
18.37
16.67
14.63
12.27
9.64
6.82
3.92
1.08
-1.70
-4.45
-7.33
-10.51
-14.10
-18.03
-22.04
-25.61
-28.19
-29.26
-28.51
-25.97
-21.96
-16.98
-11.53
-6.04
-0.77
4.11
8.44
12.05
14.69
16.27
16.80
16.49
15.68
14.74
13.99
13.66
13.79
14.26
14.82
15.19
15.10
14.44
13.23
11.59
9.63
7.45
5.04
2.46
-0.21
-2.85
-5.32
-7.62
-9.93
-12.54
-15.79
-19.82
-24.52
-29.37
-33.59
-36.25
-36.66
-34.56
-30.24
-24.42
-18.02
-11.78
-6.18
-1.33
2.82
6.30
9.09
11.15
12.49
13.25
13.69
14.10
14.63
15.31
15.99
16.49
16.63
16.33
15.65
14.71
13.68
12.62
11.49
10.09
8.30
6.06
3.51
0.90
-1.52
-3.69
-5.77
-8.03
-10.84
-14.39
-18.62
-23.19
-27.48
-30.71
-32.15
-31.32
-28.14
-23.03
-16.81
-10.42
-4.63
0.10
3.73
6.42
8.47
10.08
11.30
12.15
12.61
12.77
12.78
12.76
12.79
12.86
12.84
12.64
12.20
11.55
10.79
9.95
8.91
7.49
5.45
2.73
-0.47
-3.76
-6.70
-9.00
-10.67
-11.97
-13.36
-15.23
-17.88
-21.34
-25.43
-29.65
-33.38
-35.84
-36.40
-34.67
-30.73
-25.10
-18.51
-11.85
-5.75
-0.64
3.39
6.41
8.61
10.12
11.06
11.53
11.61
11.50
11.37
11.44
11.77
12.33
12.97
13.47
13.71
13.62
13.19
12.44
11.30
9.65
7.39
4.52
1.20
-2.24
-5.47
-8.22
-10.41
-12.18
-13.89
-15.96
-18.72
-22.23
-26.21
-30.07
-33.05
-34.45
-33.88
-31.33
-27.13
-21.89
-16.23
-10.68
-5.59
-1.19
2.46
5.34
7.49
8.97
9.86
10.30
10.43
10.40
10.35
10.36
10.48
10.64
10.73
10.60
10.22
9.60
8.91
8.30
7.86
7.46
6.80
5.58
3.64
1.10
-1.76
-4.61
-7.28
-9.80
-12.41
-15.31
-18.58
-22.09
-25.56
-28.57
-30.66
-31.39
-30.48
-27.78
-23.49
-18.10
-12.32
-6.83
-2.14
1.57
4.39
6.54
8.25
9.60
10.60
11.25
11.67
12.03
12.54
13.30
14.13
14.70
14.63
13.67
11.86
9.56
7.22
5.22
3.66
2.39
1.12
-0.43
-2.32
-4.49
-6.75
-9.04
-11.41
-14.02
-17.03
-20.50
-24.25
-27.91
-30.88
-32.56
-32.46
-30.35
-26.35
-20.94
-14.76
-8.54
-2.86
1.89
5.46
7.73
8.72
8.60
7.78
6.79
6.17
6.31
7.26
8.75
10.30
11.47
11.97
11.75
10.98
9.89
8.69
7.43
6.08
4.50
2.61
0.37
-2.09
-4.60
-7.04
-9.47
-12.11
-15.36
-19.53
-24.73
-30.58
-36.36
-41.08
-43.75
-43.84
-41.26
-36.49
-30.27
-23.47
-16.79
-10.72
-5.49
-1.14
2.37
5.16
7.30
8.87
9.95
10.67
11.19
11.67
12.18
12.69
13.02
13.00
12.50
11.55
10.24
8.66
6.85
4.77
2.37
-0.35
-3.37
-6.65
-10.21
-14.12
-18.48
-23.36
-28.78
-34.63
-40.60
-46.20
-50.66
-53.17
-53.04
-49.93
-44.02
-35.96
-26.67
-17.03
-7.82
0.45
7.40
12.82
16.57
18.69
19.45
19.33
18.93
18.82
19.41
20.77
22.73
24.90
26.84
28.16
28.63
28.14
26.65
24.18
20.78
16.68
12.17
7.62
3.37
-0.44
-3.92
-7.39
-11.28
-16.01
-21.86
-28.75
-36.19
-43.20
-48.47
-50.64
-48.80
-42.81
-33.40
-21.96
-10.08
0.90
10.22
17.62
23.25
27.33
30.10
31.78
32.57
32.78
32.73
32.72
32.97
33.59
34.51
35.49
36.23
36.37
35.63
33.89
31.27
28.05
24.60
21.16
17.84
14.55
11.08
7.23
2.82
-2.28
-8.21
-15.03
-22.65
-30.59
-37.95
-43.47
-45.83
-44.04
-37.91
-28.17
-16.28
-3.96
7.32
16.76
24.19
29.90
34.18
37.20
38.95
39.49
39.10
38.31
37.76
37.88
38.72
39.95
41.07
41.58
41.24
40.05
38.11
35.54
32.38
28.67
24.46
19.88
15.16
10.52
6.01
1.50
-3.31
-8.86
-15.44
-23.01
-31.03
-38.39
-43.71
-45.61
-43.22
-36.50
-26.28
-14.07
-1.58
9.68
18.83
25.58
30.13
32.88
34.20
34.36
33.60
32.27
30.82
29.77
29.51
30.15
31.42
32.80
33.67
33.57
32.35
30.14
27.28
24.12
20.93
17.77
14.59
11.18
7.28
2.63
-2.96
-9.59
-17.09
-25.04
-32.70
-39.08
-43.09
-43.75
-40.52
-33.52
-23.62
-12.22
-0.95
8.85
16.41
21.61
24.81
26.59
27.43
27.63
27.38
26.84
26.22
25.75
25.61
25.79
26.06
26.08
25.47
24.07
21.84
18.98
15.76
12.45
9.18
5.92
2.53
-1.20
-5.48
-10.42
-16.05
-22.19
-28.54
-34.56
-39.52
-42.58
-43.01
-40.36
-34.75
-26.84
-17.71
-8.47
0.01
7.31
13.40
18.38
22.30
25.06
26.50
26.59
25.58
24.00
22.46
21.50
21.32
21.83
22.61
23.13
22.99
22.00
20.24
17.94
15.34
12.57
9.70
6.71
3.55
0.15
-3.64
-8.05
-13.25
-19.14
-25.27
-30.73
-34.46
-35.53
-33.45
-28.33
-20.90
-12.20
-3.38
4.61
11.16
16.02
19.25
21.07
21.68
21.32
20.23
18.78
17.47
16.76
16.95
17.90
19.19
20.22
20.49
19.80
18.28
16.22
13.95
11.64
9.30
6.80
3.97
0.61
-3.44
-8.25
-13.74
-19.57
-25.15
-29.73
-32.52
-32.90
-30.62
-25.90
-19.36
-11.93
-4.52
2.16
7.71
11.98
14.98
16.69
17.17
16.53
15.11
13.48
12.28
11.97
12.66
14.01
15.37
16.07
15.61
13.87
11.12
7.85
4.63
1.87
-0.29
-2.02
-3.72
-5.82
-8.70
-12.48
-17.11
-22.29
-27.49
-31.97
-34.86
-35.31
-32.86
-27.63
-20.34
-12.16
-4.25
2.50
7.69
11.32
13.59
14.74
14.99
14.64
14.03
13.58
13.62
14.22
15.22
16.14
16.51
15.85
13.99
11.11
7.64
4.21
1.26
-1.03
-2.87
-4.70
-6.99
-10.10
-14.18
-19.19
-24.89
-30.84
-36.34
-40.48
-42.33
-41.24
-37.10
-30.42
-22.26
-13.83
-6.20
-0.00
4.59
7.76
9.85
11.22
12.07
12.53
12.67
12.60
12.50
12.58
12.89
13.36
13.77
13.85
13.38
12.33
10.79
8.92
6.87
4.70
2.45
0.07
-2.54
-5.47
-8.83
-12.68
-17.02
-21.69
-26.38
-30.62
-33.83
-35.43
-34.99
-32.36
-27.81
-21.89
-15.39
-9.02
-3.31
1.54
5.46
8.58
10.91
12.50
13.40
13.71
13.65
13.48
13.41
13.55
13.84
14.16
14.33
14.20
13.62
12.55
11.02
9.17
7.11
4.99
2.84
0.65
-1.66
-4.21
-7.13
-10.49
-14.33
-18.58
-23.03
-27.22
-30.58
-32.43
-32.31
-30.03
-25.81
-20.21
-13.97
-7.75
-2.09
2.74
6.64
9.62
11.74
12.99
13.39
13.03
12.14
11.05
10.22
9.97
10.45
11.45
12.59
13.31
13.24
12.25
10.48
8.29
6.03
3.96
2.14
0.50
-1.20
-3.15
-5.59
-8.66
-12.33
-16.47
-20.71
-24.51
-27.23
-28.30
-27.32
-24.26
-19.47
-13.56
-7.33
-1.48
3.47
7.19
9.59
10.78
10.96
10.49
9.74
9.02
8.60
8.57
8.92
9.54
10.26
10.82
10.97
10.51
9.36
7.62
5.57
3.52
1.68
0.10
-1.41
-3.21
-5.60
-8.78
-12.73
-17.11
-21.36
-24.72
-26.50
-26.27
-23.99
-20.00
-14.95
-9.49
-4.22
0.51
4.48
7.58
9.73
10.90
11.14
10.63
9.64
8.56
7.75
7.42
7.59
8.04
8.40
8.34
7.63
6.36
4.77
3.21
1.90
0.87
-0.04
-1.14
-2.72
-4.96
-7.92
-11.49
-15.45
-19.43
-22.90
-25.29
-26.07
-24.95
-21.94
-17.42
-12.04
-6.50
-1.43
2.80
6.04
8.33
9.81
10.57
10.67
10.18
9.24
8.11
7.12
6.59
6.62
7.08
7.59
7.70
7.10
5.75
3.94
2.07
0.49
-0.71
-1.72
-2.94
-4.74
-7.35
-10.74
-14.65
-18.68
-22.36
-25.26
-26.94
-27.09
-25.50
-22.20
-17.47
-11.81
-5.87
-0.28
4.43
7.95
10.09
10.95
10.67
9.60
8.18
6.87
6.07
5.95
6.50
7.46
8.43
9.00
8.85
7.85
6.05
3.69
1.07
-1.50
-3.88
-6.03
-8.16
-10.49
-13.28
-16.63
-20.47
-24.53
-28.30
-31.15
-32.43
-31.65
-28.65
-23.72
-17.49
-10.80
-4.36
1.30
5.94
9.48
11.89
13.13
13.29
12.58
11.39
10.15
9.22
8.73
8.59
8.52
8.21
7.42
6.03
4.09
1.79
-0.62
-2.92
-5.03
-7.03
-9.09
-11.53
-14.59
-18.42
-22.98
-28.06
-33.23
-37.84
-41.12
-42.28
-40.76
-36.43
-29.78
-21.69
-13.31
-5.65
0.66
5.44
8.81
11.02
12.23
12.50
11.87
10.57
9.00
7.70
7.11
7.34
8.21
9.22
9.89
9.87
9.10
7.73
5.96
3.97
1.80
-0.64
-3.45
-6.77
-10.65
-15.11
-20.06
-25.29
-30.35
-34.62
-37.31
-37.74
-35.48
-30.64
-23.78
-15.82
-7.79
-0.50
5.58
10.35
13.96
16.56
18.25
19.08
19.11
18.53
17.74
17.21
17.31
18.11
19.29
20.25
20.36
19.17
16.71
13.34
9.67
6.25
3.39
1.04
-1.12
-3.52
-6.60
-10.54
-15.29
-20.56
-25.80
-30.30
-33.32
-34.15
-32.34
-27.83
-21.04
-12.81
-4.16
3.93
10.79
16.13
19.99
22.55
24.04
24.64
24.56
24.06
23.47
23.11
23.14
23.53
23.97
24.07
23.49
22.10
20.04
17.60
15.14
12.82
10.60
8.20
5.27
1.52
-3.18
-8.77
-14.97
-21.33
-27.26
-32.04
-34.84
-35.06
-32.34
-26.86
-19.27
-10.55
-1.71
6.41
13.32
18.81
22.83
25.43
26.66
26.65
25.69
24.28
23.02
22.52
23.09
24.63
26.64
28.33
28.99
28.19
26.03
22.90
19.38
15.87
12.48
9.09
5.52
1.58
-2.80
-7.64
-12.97
-18.67
-24.41
-29.52
-33.01
-33.87
-31.44
-25.74
-17.56
-8.25
0.73
8.20
13.62
17.06
18.92
19.67
19.66
19.08
18.08
16.92
16.02
15.78
16.42
17.83
19.51
20.80
21.14
20.27
18.29
15.55
12.39
9.10
5.78
2.42
-1.02
-4.60
-8.37
-12.43
-16.90
-21.81
-26.99
-31.91
-35.77
-37.63
-36.72
-32.77
-26.08
-17.57
-8.45
0.17
7.47
13.12
17.15
19.72
21.05
21.24
20.42
18.83
16.99
15.50
14.90
15.41
16.83
18.54
19.78
19.99
18.92
16.80
14.09
11.28
8.65
6.21
3.74
0.94
-2.44
-6.57
-11.47
-17.04
-22.92
-28.52
-33.05
-35.66
-35.61
-32.56
-26.68
-18.66
-9.54
-0.52
7.40
13.57
17.78
20.20
21.20
21.15
20.35
19.07
17.61
16.37
15.79
16.07
17.12
18.41
19.23
18.96
17.35
14.58
11.17
7.69
4.49
1.66
-0.98
-3.70
-6.71
-10.17
-14.15
-18.70
-23.82
-29.32
-34.69
-39.08
-41.43
-40.87
-37.05
-30.32
-21.68
-12.37
-3.53
4.17
10.46
15.36
18.93
21.17
22.08
21.89
21.03
20.10
19.67
20.07
21.22
22.76
24.13
24.77
24.32
22.69
20.11
17.02
13.93
11.20
8.90
6.82
4.56
1.67
-2.19
-7.17
-13.17
-19.88
-26.68
-32.72
-36.93
-38.37
-36.45
-31.24
-23.46
-14.32
-5.14
3.02
9.54
14.28
17.48
19.50
20.68
21.22
21.27
20.93
20.41
20.03
20.05
20.59
21.46
22.27
22.52
21.91
20.40
18.24
15.70
13.01
10.21
7.18
3.80
-0.00
-4.16
-8.58
-13.16
-17.89
-22.73
-27.46
-31.67
-34.65
-35.68
-34.17
-30.00
-23.58
-15.76
-7.58
0.04
6.54
11.74
15.73
18.67
20.70
21.87
22.27
22.07
21.50
20.83
20.30
20.05
20.07
20.19
20.13
19.63
18.45
16.59
14.20
11.49
8.66
5.88
3.16
0.43
-2.41
-5.52
-9.10
-13.32
-18.20
-23.45
-28.44
-32.33
-34.23
-33.52
-30.11
-24.46
-17.42
-10.05
-3.22
2.53
7.01
10.31
12.56
13.88
14.30
13.92
12.95
11.83
11.03
10.91
11.53
12.64
13.73
14.35
14.17
13.16
11.47
9.35
7.00
4.57
2.09
-0.48
-3.19
-6.18
-9.50
-13.25
-17.37
-21.64
-25.64
-28.76
-30.35
-29.86
-27.04
-22.10
-15.60
-8.34
-1.22
5.04
9.95
13.27
15.00
15.33
14.60
13.23
11.71
10.50
9.93
10.09
10.82
11.78
12.53
12.72
12.17
10.90
9.11
7.01
4.78
2.48
0.12
-2.42
-5.16
-8.18
-11.55
-15.34
-19.62
-24.24
-28.80
-32.62
-34.87
-34.86
-32.34
-27.64
-21.51
-14.92
-8.68
-3.27
1.15
4.58
7.05
8.54
9.09
8.90
8.37
7.94
7.94
8.49
9.37
10.21
10.65
10.42
9.50
8.05
6.35
4.73
3.41
2.42
1.58
0.55
-1.03
-3.50
-6.94
-11.22
-15.95
-20.53
-24.31
-26.55
-26.66
-24.33
-19.71
-13.37
-6.25
0.64
6.54
11.02
14.05
15.86
16.72
16.86
16.42
15.59
14.59
13.75
13.42
13.75
14.66
15.75
16.49
16.42
15.30
13.26
10.59
7.69
4.84
2.14
-0.50
-3.22
-6.17
-9.48
-13.26
-17.49
-21.99
-26.27
-29.64
-31.33
-30.77
-27.82
-22.89
-16.74
-10.33
-4.42
0.50
4.28
6.94
8.57
9.24
9.05
8.18
6.96
5.83
5.24
5.50
6.60
8.22
9.79
10.72
10.59
9.29
7.11
4.54
2.06
-0.03
-1.71
-3.27
-5.13
-7.68
-11.07
-15.18
-19.63
-23.89
-27.41
-29.75
-30.60
-29.79
-27.31
-23.32
-18.15
-12.34
-6.49
-1.17
3.28
6.71
9.22
10.93
11.99
12.50
12.60
12.48
12.40
12.57
13.02
13.64
14.13
14.18
13.64
12.48
10.86
9.02
7.18
5.45
3.86
2.30
0.59
-1.52
-4.23
-7.68
-11.81
-16.29
-20.59
-24.04
-25.97
-25.89
-23.68
-19.59
-14.23
-8.30
-2.51
2.65
6.96
10.29
12.60
13.87
14.12
13.51
12.38
11.20
10.45
10.40
11.05
12.13
13.17
13.81
13.83
13.27
12.33
11.21
10.04
8.78
7.34
5.58
3.50
1.13
-1.47
-4.27
-7.31
-10.60
-13.99
-17.10
-19.38
-20.24
-19.32
-16.61
-12.52
-7.76
-3.03
1.12
4.45
6.97
8.84
10.12
10.82
10.92
10.52
9.88
9.39
9.44
10.17
11.48
12.93
13.99
14.23
13.44
11.72
9.37
6.75
4.16
1.78
-0.37
-2.36
-4.36
-6.55
-9.12
-12.16
-15.66
-19.41
-22.93
-25.67
-27.00
-26.50
-24.08
-20.04
-14.93
-9.45
-4.22
0.36
4.13
7.04
9.07
10.20
10.42
9.86
8.81
7.66
6.83
6.55
6.80
7.35
7.87
8.04
7.66
6.69
5.25
3.57
1.88
0.38
-0.97
-2.34
-4.05
-6.39
-9.52
-13.37
-17.71
-22.15
-26.22
-29.42
-31.23
-31.19
-29.06
-24.94
-19.29
-12.88
-6.57
-1.07
3.27
6.40
8.52
9.92
10.80
11.28
11.46
11.42
11.34
11.41
11.77
12.38
13.01
13.32
12.99
11.89
10.15
7.96
5.61
3.21
0.77
-1.79
-4.55
-7.52
-10.70
-14.13
-17.90
-22.03
-26.39
-30.52
-33.66
-35.00
-33.98
-30.51
-25.11
-18.67
-12.17
-6.33
-1.49
2.42
5.56
8.04
9.80
10.64
10.47
9.44
8.00
6.74
6.16
6.39
7.17
7.89
7.93
6.94
4.99
2.51
0.08
-1.91
-3.38
-4.60
-5.98
-7.94
-10.69
-14.26
-18.56
-23.43
-28.59
-33.62
-37.86
-40.56
-41.00
-38.85
-34.26
-27.92
-20.77
-13.71
-7.33
-1.86
2.74
6.56
9.57
11.66
12.75
12.93
12.57
12.15
12.12
12.69
13.77
14.95
15.70
15.58
14.37
12.20
9.41
6.44
3.61
1.05
-1.33
-3.74
-6.45
-9.75
-13.80
-18.73
-24.45
-30.57
-36.37
-40.94
-43.29
-42.74
-39.09
-32.73
-24.46
-15.39
-6.61
1.05
7.05
11.30
13.95
15.36
15.90
15.88
15.59
15.32
15.35
15.95
17.23
19.00
20.78
21.94
21.97
20.66
18.24
15.18
11.99
9.01
6.24
3.43
0.28
-3.51
-8.06
-13.37
-19.32
-25.66
-31.94
-37.41
-41.13
-42.13
-39.82
-34.18
-25.97
-16.43
-6.93
1.42
8.06
12.96
16.32
18.38
19.29
19.20
18.36
17.22
16.38
16.32
17.26
18.94
20.80
22.13
22.43
21.47
19.47
16.83
13.97
11.15
8.36
5.41
2.06
-1.87
-6.48
-11.83
-17.90
-24.57
-31.46
-37.84
-42.60
-44.64
-43.17
-38.06
-29.97
-20.09
-9.77
-0.16
7.99
14.38
18.88
21.52
22.42
21.83
20.26
18.48
17.34
17.49
19.15
21.98
25.20
27.84
29.17
28.86
27.07
24.28
21.02
17.61
14.11
10.33
5.98
0.80
-5.37
-12.46
-20.18
-27.95
-34.90
-39.96
-42.04
-40.40
-34.86
-25.96
-14.89
-3.09
8.09
17.74
25.50
31.33
35.36
37.72
38.47
37.85
36.29
34.50
33.22
32.99
33.86
35.41
36.90
37.51
36.66
34.14
30.17
25.26
20.01
14.89
10.13
5.67
1.22
-3.57
-9.03
-15.32
-22.42
-30.02
-37.44
-43.67
-47.45
-47.64
-43.61
-35.58
-24.64
-12.41
-0.52
9.84
18.18
24.49
29.03
32.01
33.60
33.97
33.51
32.74
32.24
32.39
33.26
34.53
35.71
36.26
35.74
34.00
31.10
27.38
23.26
19.09
15.10
11.22
7.23
2.79
-2.37
-8.44
-15.48
-23.35
-31.55
-39.16
-44.89
-47.39
-45.65
-39.45
-29.50
-17.29
-4.54
7.25
17.19
25.03
30.96
35.27
38.20
39.80
40.14
39.38
37.93
36.39
35.34
35.14
35.79
36.88
37.76
37.84
36.76
34.48
31.20
27.26
22.95
18.46
13.95
9.49
5.13
0.84
-3.52
-8.25
-13.65
-19.91
-26.84
-33.76
-39.56
-42.88
-42.60
-38.25
-30.20
-19.68
-8.32
2.30
11.09
17.68
22.21
25.13
26.91
27.87
28.26
28.26
28.14
28.16
28.48
29.11
29.90
30.54
30.76
30.33
29.20
27.41
25.11
22.39
19.36
16.03
12.43
8.65
4.74
0.81
-3.20
-7.43
-12.13
-17.55
-23.76
-30.49
-37.06
-42.44
-45.52
-45.39
-41.64
-34.58
-25.19
-14.84
-4.90
3.64
10.34
15.26
18.68
20.89
22.08
22.39
22.01
21.31
20.69
20.52
20.96
21.83
22.76
23.29
23.13
22.19
20.56
18.43
15.88
12.92
9.55
5.78
1.78
-2.23
-6.09
-9.79
-13.53
-17.64
-22.37
-27.71
-33.22
-38.06
-41.15
-41.56
-38.76
-32.95
-24.96
-16.05
-7.51
-0.28
5.22
9.06
11.58
13.13
13.90
13.96
13.40
12.42
11.41
10.81
10.96
11.89
13.25
14.53
15.20
15.00
13.98
12.42
10.60
8.68
6.56
4.07
1.02
-2.61
-6.70
-11.09
-15.73
-20.61
-25.67
-30.67
-35.06
-38.04
-38.87
-37.12
-32.88
-26.72
-19.51
-12.11
-5.18
0.87
5.84
9.61
12.06
13.17
13.04
11.97
10.45
9.02
8.13
8.01
8.59
9.53
10.32
10.54
9.92
8.46
6.40
4.01
1.50
-1.07
-3.85
-7.04
-10.81
-15.20
-20.13
-25.38
-30.64
-35.50
-39.44
-41.88
-42.24
-40.17
-35.68
-29.26
-21.74
-14.07
-7.02
-1.07
3.63
7.09
9.33
10.37
10.24
9.23
7.83
6.70
6.37
7.13
8.77
10.71
12.16
12.44
11.26
8.80
5.65
2.51
-0.15
-2.29
-4.27
-6.65
-9.88
-14.07
-19.11
-24.73
-30.63
-36.51
-41.86
-45.95
-47.86
-46.89
-42.81
-36.16
-28.05
-19.75
-12.34
-6.29
-1.62
1.96
4.72
6.79
8.15
8.82
8.93
8.81
8.87
9.41
10.52
11.98
13.34
14.08
13.84
12.52
10.35
7.74
5.12
2.74
0.64
-1.40
-3.68
-6.49
-10.03
-14.38
-19.46
-25.03
-30.62
-35.54
-39.05
-40.39
-39.14
-35.25
-29.10
-21.45
-13.18
-5.12
2.05
7.93
12.41
15.54
17.61
18.94
19.84
20.48
20.89
21.05
20.90
20.52
20.02
19.54
19.12
18.63
17.87
16.61
14.82
12.56
10.06
7.50
4.94
2.34
-0.46
-3.60
-7.22
-11.41
-16.22
-21.57
-27.18
-32.48
-36.73
-39.04
-38.73
-35.46
-29.49
-21.57
-12.79
-4.31
3.06
8.86
13.08
15.87
17.49
18.07
17.77
16.85
15.73
14.98
15.04
16.09
17.88
19.89
21.54
22.34
22.06
20.67
18.33
15.29
11.85
8.37
5.13
2.30
-0.12
-2.28
-4.48
-7.05
-10.36
-14.64
-19.94
-25.99
-32.15
-37.43
-40.74
-41.22
-38.52
-32.94
-25.36
-16.97
-8.91
-1.95
3.61
7.86
11.07
13.52
15.32
16.48
17.04
17.15
17.13
17.30
17.79
18.46
19.00
18.99
18.23
16.76
14.82
12.73
10.65
8.64
6.59
4.43
2.09
-0.41
-3.11
-6.16
-9.75
-14.15
-19.40
-25.37
-31.53
-37.06
-40.94
-42.27
-40.47
-35.56
-28.13
-19.24
-10.11
-1.79
5.11
10.36
14.06
16.41
17.63
17.89
17.47
16.75
16.19
16.26
17.15
18.77
20.70
22.40
23.37
23.35
22.29
20.32
17.62
14.36
10.70
6.81
2.90
-0.83
-4.28
-7.59
-11.06
-15.17
-20.29
-26.42
-33.18
-39.65
-44.70
-47.28
-46.68
-42.79
-36.11
-27.56
-18.28
-9.31
-1.38
5.06
9.91
13.27
15.33
16.31
16.45
16.12
15.67
15.52
15.93
16.92
18.28
19.58
20.35
20.24
19.20
17.38
15.06
12.46
9.68
6.73
3.61
0.40
-2.80
-5.91
-9.02
-12.38
-16.33
-21.16
-26.85
-32.99
-38.86
-43.46
-45.83
-45.28
-41.60
-35.09
-26.56
-17.06
-7.66
0.78
7.80
13.30
17.42
20.40
22.45
23.77
24.53
24.97
25.31
25.74
26.35
27.16
28.02
28.73
29.08
28.83
27.76
25.77
22.91
19.37
15.44
11.38
7.37
3.50
-0.23
-3.82
-7.35
-10.98
-14.98
-19.63
-25.06
-30.96
-36.55
-40.66
-42.12
-40.22
-34.98
-27.16
-18.00
-8.81
-0.53
6.34
11.73
15.82
18.83
20.94
22.29
23.10
23.60
24.07
24.72
25.61
26.68
27.69
28.39
28.57
28.13
27.06
25.49
23.52
21.23
18.68
15.83
12.66
9.09
5.04
0.45
-4.70
-10.42
-16.63
-23.15
-29.65
-35.57
-40.20
-42.71
-42.39
-38.92
-32.52
-23.99
-14.48
-5.18
3.01
9.58
14.45
17.78
19.78
20.69
20.72
20.18
19.49
19.10
19.39
20.48
22.14
23.88
25.12
25.40
24.56
22.75
20.26
17.44
14.50
11.53
8.53
5.40
2.07
-1.54
-5.48
-9.84
-14.67
-19.97
-25.55
-30.94
-35.33
-37.71
-37.24
-33.64
-27.32
-19.38
-11.10
-3.55
2.75
7.76
11.69
14.66
16.63
17.52
17.40
16.60
15.65
15.08
15.22
16.10
17.53
19.13
20.46
21.14
20.86
19.53
17.23
14.21
10.75
7.10
3.46
-0.10
-3.54
-6.96
-10.58
-14.76
-19.82
-25.83
-32.41
-38.62
-43.18
-44.82
-42.78
-37.08
-28.54
-18.47
-8.26
0.97
8.61
14.46
18.59
21.12
22.20
21.97
20.74
18.98
17.33
16.40
16.56
17.78
19.60
21.33
22.27
21.99
20.43
17.88
14.83
11.70
8.78
6.10
3.53
0.84
-2.15
-5.58
-9.55
-14.16
-19.47
-25.43
-31.67
-37.46
-41.70
-43.22
-41.26
-35.78
-27.56
-17.99
-8.56
-0.43
5.87
10.38
13.47
15.60
17.12
18.24
19.11
19.89
20.69
21.57
22.48
23.27
23.77
23.77
23.21
22.08
20.46
18.42
16.00
13.28
10.31
7.22
4.17
1.31
-1.35
-3.92
-6.67
-9.93
-13.97
-18.94
-24.76
-31.06
-37.14
-42.07
-44.88
-44.79
-41.54
-35.45
-27.37
-18.40
-9.54
-1.49
5.44
11.12
15.50
18.50
20.11
20.48
20.04
19.35
18.96
19.24
20.20
21.64
23.20
24.47
25.09
24.83
23.53
21.21
18.03
14.25
10.17
6.06
2.13
-1.52
-4.84
-7.89
-10.88
-14.09
-17.90
-22.59
-28.13
-34.02
-39.32
-42.78
-43.32
-40.41
-34.23
-25.76
-16.35
-7.36
0.24
6.04
10.10
12.71
14.21
14.88
15.00
14.85
14.79
15.09
15.89
17.14
18.61
19.95
20.83
21.04
20.48
19.21
17.37
15.20
12.91
10.62
8.37
6.09
3.70
1.14
-1.63
-4.65
-8.08
-12.21
-17.26
-23.26
-29.78
-35.93
-40.49
-42.30
-40.66
-35.66
-28.08
-19.21
-10.34
-2.43
4.07
9.10
12.82
15.38
16.86
17.32
16.95
16.12
15.28
14.82
14.96
15.65
16.67
17.75
18.61
19.01
18.74
17.66
15.71
12.97
9.67
6.13
2.63
-0.66
-3.67
-6.40
-8.95
-11.53
-14.45
-18.08
-22.61
-27.79
-32.79
-36.37
-37.20
-34.49
-28.28
-19.56
-9.85
-0.71
6.77
12.20
15.75
17.86
18.93
19.25
18.96
18.27
17.51
17.05
17.19
18.01
19.24
20.42
21.03
20.68
19.21
16.75
13.59
10.08
6.56
3.22
0.14
-2.73
-5.51
-8.33
-11.36
-14.76
-18.74
-23.36
-28.54
-33.83
-38.55
-41.82
-42.82
-41.12
-36.78
-30.34
-22.68
-14.74
-7.24
-0.69
4.69
8.78
11.59
13.13
13.54
13.11
12.27
11.55
11.41
12.07
13.41
14.96
16.15
16.45
15.62
13.74
11.16
8.27
5.40
2.69
0.11
-2.54
-5.43
-8.82
-12.88
-17.72
-23.29
-29.30
-35.15
-40.02
-42.93
-43.04
-39.93
-33.76
-25.36
-16.03
-7.15
0.21
5.62
9.26
11.63
13.22
14.30
14.83
14.76
14.19
13.47
13.11
13.46
14.56
16.15
17.68
18.60
18.45
17.00
14.27
10.52
6.22
1.86
-2.15
-5.70
-9.00
-12.47
-16.51
-21.36
-26.93
-32.86
-38.64
-43.58
-46.92
-47.91
-45.96
-40.93
-33.26
-23.93
-14.24
-5.34
2.06
7.81
12.09
15.28
17.59
19.09
19.84
19.97
19.78
19.65
19.87
20.55
21.53
22.44
22.88
22.54
21.26
19.15
16.47
13.54
10.63
7.90
5.27
2.50
-0.74
-4.83
-10.09
-16.68
-24.46
-32.90
-41.01
-47.43
-50.80
-50.17
-45.34
-36.99
-26.55
-15.59
-5.49
2.95
9.52
14.36
17.76
19.94
21.11
21.51
21.52
21.56
22.05
23.15
24.86
26.89
28.84
30.27
30.82
30.28
28.64
26.08
22.88
19.45
16.14
13.26
10.90
8.89
6.76
3.84
-0.52
-6.73
-14.62
-23.43
-31.85
-38.36
-41.70
-41.19
-36.96
-29.73
-20.72
-11.14
-2.06
5.85
12.30
17.26
20.93
23.51
25.19
26.13
26.48
26.43
26.21
26.03
26.01
26.09
26.05
25.63
24.57
22.79
20.35
17.44
14.25
10.94
7.62
4.33
1.10
-2.12
-5.47
-9.15
-13.49
-18.68
-24.75
-31.28
-37.39
-41.85
-43.42
-41.27
-35.31
-26.29
-15.59
-4.79
4.83
12.50
18.04
21.67
23.70
24.44
24.08
22.89
21.27
19.72
18.79
18.87
20.02
21.88
23.81
25.14
25.30
24.16
21.93
19.08
16.09
13.20
10.40
7.45
4.12
0.27
-4.05
-8.77
-13.82
-19.23
-24.94
-30.61
-35.44
-38.33
-38.23
-34.54
-27.48
-18.05
-7.75
1.91
9.88
15.69
19.45
21.54
22.39
22.31
21.52
20.30
19.07
18.28
18.32
19.31
20.95
22.65
23.63
23.31
21.49
18.40
14.62
10.79
7.39
4.52
2.01
-0.54
-3.53
-7.23
-11.76
-17.11
-23.18
-29.70
-36.13
-41.61
-45.03
-45.33
-41.94
-35.04
-25.63
-15.19
-5.25
3.08
9.36
13.69
16.49
18.16
18.98
19.09
18.62
17.85
17.14
16.86
17.21
18.07
19.08
19.70
19.47
18.13
15.75
12.64
9.21
5.84
2.71
-0.20
-3.14
-6.39
-10.22
-14.80
-20.11
-25.94
-31.84
-37.18
-41.12
-42.85
-41.73
-37.52
-30.55
-21.62
-11.88
-2.51
5.60
11.92
16.30
18.81
19.69
19.23
17.81
15.96
14.24
13.19
13.13
14.07
15.71
17.57
19.08
19.81
19.47
18.01
15.56
12.46
9.06
5.63
2.28
-1.07
-4.63
-8.61
-13.14
-18.22
-23.70
-29.24
-34.34
-38.32
-40.43
-40.03
-36.84
-31.09
-23.51
-15.14
-6.98
0.26
6.24
10.94
14.45
16.79
17.98
18.09
17.38
16.26
15.29
14.93
15.36
16.43
17.70
18.63
18.81
18.03
16.29
13.83
10.90
7.75
4.56
1.39
-1.75
-5.01
-8.57
-12.64
-17.35
-22.66
-28.31
-33.70
-38.04
-40.43
-40.11
-36.75
-30.52
-22.24
-13.08
-4.26
3.30
9.17
13.41
16.26
18.02
18.85
18.83
18.16
17.21
16.48
16.41
17.18
18.53
19.91
20.66
20.29
18.71
16.17
13.11
10.06
7.31
4.93
2.73
0.42
-2.28
-5.55
-9.44
-13.92
-18.87
-24.07
-29.07
-33.17
-35.51
-35.33
-32.26
-26.56
-19.04
-10.89
-3.24
3.16
8.01
11.44
13.72
15.21
16.11
16.61
16.87
17.06
17.38
17.92
18.65
19.39
19.93
19.99
19.40
18.12
16.27
14.01
11.59
9.15
6.76
4.41
1.96
-0.79
-4.07
-8.11
-13.09
-18.92
-25.22
-31.25
-36.06
-38.71
-38.59
-35.52
-29.97
-22.80
-15.08
-7.75
-1.43
3.71
7.76
10.94
13.38
15.07
15.90
15.89
15.25
14.39
13.79
13.75
14.26
15.05
15.68
15.80
15.20
13.92
12.09
9.90
7.49
4.96
2.35
-0.32
-3.05
-5.92
-9.04
-12.54
-16.49
-20.73
-24.84
-28.14
-29.84
-29.33
-26.38
-21.29
-14.85
-7.95
-1.45
4.07
8.36
11.31
12.93
13.30
12.58
11.13
9.46
8.11
7.53
7.98
9.38
11.39
13.47
15.02
15.52
14.77
12.83
10.03
6.80
3.53
0.41
-2.51
-5.35
-8.29
-11.53
-15.22
-19.43
-24.08
-28.78
-32.90
-35.61
-36.19
-34.27
-29.92
-23.72
-16.55
-9.33
-2.79
2.66
6.87
9.87
11.72
12.53
12.48
11.91
11.33
11.23
11.88
13.18
14.72
15.92
16.30
15.63
14.01
11.67
8.99
6.21
3.58
1.18
-0.98
-3.04
-5.27
-8.01
-11.51
-15.88
-20.91
-26.15
-30.88
-34.26
-35.49
-34.09
-30.00
-23.73
-16.20
-8.45
-1.42
4.32
8.57
11.33
12.75
12.96
12.23
10.97
9.73
9.01
9.13
10.02
11.26
12.29
12.59
11.88
10.22
7.89
5.35
2.97
1.00
-0.63
-2.19
-4.12
-6.82
-10.52
-15.19
-20.58
-26.30
-31.85
-36.58
-39.76
-40.66
-38.78
-34.10
-27.20
-19.10
-11.01
-3.85
1.84
5.97
8.71
10.24
10.75
10.43
9.60
8.73
8.30
8.70
10.02
12.00
14.13
15.76
16.39
15.76
13.99
11.46
8.66
5.96
3.50
1.13
-1.43
-4.47
-8.16
-12.53
-17.50
-22.88
-28.40
-33.58
-37.76
-40.13
-39.94
-36.85
-31.04
-23.30
-14.76
-6.55
0.53
6.13
10.29
13.23
15.13
16.09
16.23
15.77
15.11
14.79
15.19
16.40
18.09
19.69
20.56
20.25
18.70
16.16
13.12
10.06
7.32
4.94
2.70
0.27
-2.73
-6.56
-11.38
-17.13
-23.52
-29.97
-35.56
-39.15
-39.73
-36.72
-30.28
-21.28
-11.08
-1.03
7.80
14.82
19.82
22.82
23.97
23.60
22.20
20.41
18.91
18.20
18.44
19.47
20.88
22.21
23.05
23.26
22.86
22.03
20.97
19.75
18.28
16.31
13.56
9.91
5.44
0.46
-4.64
-9.38
-13.30
-15.91
-16.73
-15.42
-11.88
-6.38
0.52
8.11
15.73
22.80
28.78
33.11
35.24
34.79
31.85
27.10
21.73
17.07
14.01
12.79
12.83
13.09
12.41
10.02
5.71
-0.16
-6.86
-13.63
-19.87
-25.33
-30.11
-34.59
-39.20
-44.31
-50.09
-56.27
-62.23
-66.92
-69.16
-67.96
-62.83
-54.08
-42.71
-30.23
-18.14
-7.70
0.33
5.75
8.74
9.78
9.51
8.63
7.78
7.43
7.82
8.93
10.51
12.18
13.46
13.92
13.32
11.60
9.02
6.02
3.10
0.65
-1.23
-2.71
-4.24
-6.33
-9.43
-13.69
-18.81
-24.02
-28.10
-29.76
-28.01
-22.49
-13.68
-2.72
8.94
20.00
29.56
37.23
42.97
46.88
49.10
49.79
49.18
47.71
45.97
44.57
43.96
44.21
45.00
45.72
45.71
44.61
42.43
39.58
36.61
33.97
31.79
29.85
27.73
24.95
21.19
16.32
10.39
3.59
-3.68
-10.78
-16.83
-20.78
-21.67
-18.96
-12.83
-4.20
5.52
14.86
22.69
28.50
32.35
34.60
35.71
36.02
35.74
35.11
34.35
33.72
33.33
33.17
32.97
32.46
31.39
29.72
27.53
25.03
22.43
19.85
17.31
14.73
11.92
8.68
4.76
0.02
-5.56
-11.86
-18.56
-25.18
-31.08
-35.56
-37.88
-37.55
-34.39
-28.71
-21.28
-13.14
-5.36
1.35
6.68
10.75
13.90
16.40
18.38
19.83
20.74
21.21
21.47
21.77
22.28
22.89
23.34
23.25
22.37
20.64
18.23
15.45
12.59
9.85
7.24
4.61
1.73
-1.56
-5.37
-9.68
-14.37
-19.23
-24.01
-28.36
-31.84
-33.95
-34.24
-32.44
-28.63
-23.24
-17.00
-10.70
-5.02
-0.31
3.38
6.23
8.43
10.06
11.09
11.46
11.33
10.99
10.82
11.08
11.77
12.62
13.27
13.41
12.93
11.87
10.35
8.46
6.23
3.70
0.93
-2.00
-5.03
-8.19
-11.59
-15.44
-19.84
-24.75
-29.81
-34.38
-37.71
-39.02
-37.89
-34.32
-28.81
-22.19
-15.41
-9.31
-4.40
-0.91
1.23
2.28
2.57
2.42
2.11
1.83
1.71
1.90
2.50
3.54
4.90
6.29
7.30
7.58
6.97
5.57
3.70
1.77
0.03
-1.51
-3.09
-5.03
-7.66
-11.08
-15.23
-19.81
-24.46
-28.81
-32.42
-34.86
-35.68
-34.52
-31.23
-26.07
-19.72
-13.14
-7.24
-2.61
0.58
2.60
3.82
4.54
4.90
4.94
4.78
4.64
4.81
5.46
6.50
7.57
8.25
8.20
7.33
5.84
3.99
2.12
0.39
-1.19
-2.80
-4.66
-7.02
-10.08
-13.94
-18.53
-23.56
-28.55
-32.79
-35.58
-36.24
-34.43
-30.22
-24.14
-17.04
-9.89
-3.57
1.40
4.85
6.82
7.58
7.41
6.62
5.52
4.45
3.72
3.57
4.06
5.06
6.21
7.03
7.05
6.01
4.05
1.60
-0.76
-2.56
-3.75
-4.67
-5.86
-7.89
-10.96
-14.93
-19.45
-24.06
-28.37
-31.98
-34.44
-35.17
-33.65
-29.64
-23.44
-15.90
-8.21
-1.52
3.47
6.57
8.15
8.73
8.78
8.54
8.15
7.75
7.59
7.88
8.68
9.74
10.52
10.49
9.31
7.10
4.32
1.55
-0.82
-2.70
-4.31
-6.01
-8.14
-10.95
-14.58
-19.04
-24.06
-29.07
-33.24
-35.60
-35.48
-32.65
-27.52
-20.91
-13.80
-6.98
-0.97
4.03
7.96
10.77
12.46
13.01
12.63
11.70
10.78
10.38
10.81
11.99
13.52
14.79
15.25
14.63
13.02
10.77
8.34
6.01
3.88
1.74
-0.76
-3.97
-8.17
-13.39
-19.39
-25.66
-31.45
-35.87
-38.12
-37.61
-34.25
-28.40
-20.84
-12.61
-4.67
2.29
7.89
12.11
15.09
16.96
17.80
17.72
16.90
15.72
14.66
14.17
14.42
15.17
15.94
16.15
15.45
13.78
11.36
8.58
5.73
2.94
0.13
-2.91
-6.47
-10.77
-15.93
-21.79
-27.92
-33.62
-37.98
-40.11
-39.37
-35.60
-29.19
-21.03
-12.18
-3.68
3.83
10.03
14.83
18.27
20.34
21.07
20.62
19.30
17.69
16.32
15.58
15.59
16.16
16.98
17.63
17.76
17.08
15.47
12.93
9.62
5.83
1.85
-2.11
-6.02
-9.95
-14.07
-18.51
-23.27
-28.14
-32.68
-36.25
-38.11
-37.66
-34.54
-28.93
-21.40
-12.90
-4.41
3.24
9.55
14.34
17.67
19.79
20.99
21.59
21.88
22.16
22.71
23.68
25.04
26.56
27.81
28.29
27.62
25.70
22.82
19.50
16.26
13.42
10.90
8.29
5.12
1.03
-4.01
-9.75
-15.84
-21.89
-27.52
-32.28
-35.56
-36.62
-34.83
-29.97
-22.42
-13.16
-3.45
5.53
13.10
19.03
23.54
26.89
29.22
30.54
30.88
30.36
29.39
28.42
27.83
27.74
27.97
28.17
27.97
27.17
25.73
23.77
21.44
18.84
16.04
13.08
10.01
6.86
3.65
0.32
-3.26
-7.28
-11.89
-17.14
-22.75
-28.18
-32.54
-34.85
-34.29
-30.54
-23.97
-15.58
-6.69
1.46
8.12
13.10
16.60
18.98
20.44
21.04
20.82
19.95
18.85
18.04
17.93
18.60
19.77
20.89
21.50
21.26
20.16
18.33
15.97
13.24
10.29
7.25
4.28
1.54
-0.88
-3.04
-5.13
-7.52
-10.66
-14.85
-20.12
-26.03
-31.68
-35.92
-37.69
-36.39
-32.11
-25.59
-17.92
-10.23
-3.35
2.34
6.75
9.98
12.14
13.31
13.57
13.15
12.40
11.74
11.51
11.81
12.46
13.15
13.60
13.66
13.42
12.99
12.48
11.81
10.86
9.53
7.91
6.18
4.57
3.11
1.61
-0.27
-2.90
-6.48
-10.93
-15.93
-20.89
-25.06
-27.66
-28.06
-25.97
-21.48
-15.13
-7.69
-0.03
7.15
13.34
18.24
21.73
23.78
24.49
24.10
22.93
21.41
19.98
18.94
18.47
18.56
19.07
19.73
20.29
20.52
20.26
19.36
17.70
15.22
12.02
8.37
4.66
1.28
-1.55
-3.86
-5.96
-8.28
-11.20
-14.92
-19.39
-24.26
-28.94
-32.66
-34.64
-34.25
-31.17
-25.58
-18.07
-9.56
-1.02
6.65
12.89
17.41
20.27
21.75
22.29
22.34
22.32
22.50
23.00
23.77
24.58
25.16
25.24
24.70
23.58
22.02
20.25
18.37
16.37
14.10
11.42
8.25
4.74
1.12
-2.35
-5.49
-8.27
-10.87
-13.57
-16.69
-20.50
-25.10
-30.31
-35.62
-40.16
-42.97
-43.20
-40.45
-34.90
-27.31
-18.75
-10.30
-2.80
3.29
7.78
10.73
12.30
12.68
12.17
11.18
10.24
9.81
10.24
11.58
13.56
15.70
17.44
18.35
18.27
17.28
15.56
13.34
10.75
7.83
4.60
1.17
-2.26
-5.47
-8.29
-10.74
-13.03
-15.52
-18.57
-22.45
-27.24
-32.70
-38.28
-43.21
-46.55
-47.47
-45.45
-40.49
-33.10
-24.21
-14.91
-6.15
1.39
7.40
11.85
14.86
16.59
17.22
17.01
16.34
15.62
15.25
15.43
16.09
16.96
17.64
17.83
17.37
16.35
14.96
13.36
11.60
9.52
6.93
3.66
-0.22
-4.38
-8.34
-11.72
-14.39
-16.60
-18.86
-21.73
-25.54
-30.26
-35.51
-40.61
-44.70
-46.92
-46.53
-43.18
-37.02
-28.75
-19.46
-10.28
-2.14
4.53
9.65
13.39
15.94
17.41
17.89
17.62
17.00
16.54
16.64
17.39
18.56
19.67
20.26
20.09
19.25
17.99
16.58
15.09
13.39
11.23
8.46
5.16
1.59
-1.91
-5.20
-8.32
-11.59
-15.36
-19.88
-25.18
-31.01
-36.90
-42.19
-46.12
-47.88
-46.86
-42.79
-35.92
-27.04
-17.29
-7.86
0.35
6.85
11.59
14.77
16.68
17.59
17.72
17.28
16.53
15.81
15.44
15.65
16.44
17.61
18.79
19.61
19.82
19.31
18.11
16.22
13.60
10.23
6.17
1.67
-2.83
-6.91
-10.35
-13.26
-16.12
-19.55
-24.05
-29.76
-36.31
-42.83
-48.08
-50.86
-50.30
-46.10
-38.68
-29.01
-18.38
-8.05
0.99
8.21
13.39
16.62
18.17
18.41
17.82
16.93
16.31
16.42
17.48
19.39
21.73
23.86
25.15
25.21
24.06
22.01
19.50
16.87
14.20
11.32
8.09
4.43
0.47
-3.64
-7.85
-12.39
-17.65
-23.97
-31.32
-39.14
-46.31
-51.42
-53.09
-50.48
-43.56
-33.22
-21.04
-8.88
1.70
9.81
15.33
18.73
20.62
21.48
21.56
21.00
19.96
18.81
18.04
18.05
19.01
20.68
22.60
24.20
25.06
25.00
24.02
22.21
19.69
16.46
12.53
8.00
3.08
-1.90
-6.66
-11.14
-15.57
-20.32
-25.71
-31.61
-37.36
-41.83
-43.82
-42.40
-37.35
-29.23
-19.12
-8.35
1.89
10.76
17.83
22.89
25.92
26.91
26.03
23.66
20.51
17.49
15.53
15.24
16.68
19.36
22.37
24.73
25.67
24.88
22.49
18.99
14.98
10.97
7.23
3.74
0.24
-3.59
-8.08
-13.44
-19.73
-26.80
-34.17
-40.98
-45.96
-47.76
-45.36
-38.57
-28.14
-15.61
-2.82
8.67
17.92
24.61
28.78
30.61
30.33
28.32
25.34
22.46
20.80
21.14
23.52
27.22
31.00
33.54
33.98
32.13
28.45
23.78
18.95
14.47
10.49
6.78
2.98
-1.29
-6.30
-12.26
-19.19
-26.87
-34.67
-41.51
-46.02
-46.93
-43.56
-36.07
-25.53
-13.52
-1.67
8.76
17.05
22.99
26.70
28.39
28.37
27.10
25.16
23.29
22.15
22.23
23.57
25.73
27.93
29.28
29.14
27.28
23.96
19.71
15.10
10.51
6.11
1.82
-2.54
-7.23
-12.54
-18.65
-25.58
-32.98
-40.06
-45.68
-48.62
-47.91
-43.19
-34.84
-23.93
-11.88
-0.14
10.16
18.38
24.36
28.19
30.19
30.67
29.99
28.60
27.02
25.82
25.41
25.88
26.99
28.22
28.95
28.70
27.25
24.72
21.42
17.73
13.93
10.14
6.23
1.96
-2.94
-8.68
-15.33
-22.77
-30.68
-38.43
-45.00
-49.17
-49.74
-45.99
-38.07
-27.04
-14.61
-2.59
7.68
15.61
21.30
25.14
27.50
28.54
28.36
27.18
25.46
23.93
23.20
23.58
24.88
26.48
27.64
27.74
26.56
24.30
21.37
18.26
15.23
12.27
9.17
5.66
1.51
-3.34
-8.91
-15.09
-21.71
-28.36
-34.34
-38.70
-40.39
-38.65
-33.31
-24.90
-14.56
-3.70
6.37
14.75
21.04
25.24
27.60
28.49
28.26
27.26
25.91
24.68
24.03
24.26
25.39
27.08
28.74
29.71
29.51
28.02
25.44
22.11
18.43
14.69
11.02
7.47
3.95
0.35
-3.55
-8.00
-13.16
-19.02
-25.19
-30.89
-35.11
-36.81
-35.33
-30.55
-23.03
-13.83
-4.21
4.66
12.02
17.53
21.16
23.09
23.54
22.78
21.19
19.28
17.62
16.68
16.65
17.34
18.27
18.88
18.73
17.61
15.57
12.83
9.68
6.47
3.44
0.72
-1.74
-4.23
-7.20
-11.05
-16.06
-22.11
-28.72
-35.11
-40.35
-43.54
-43.97
-41.33
-35.78
-28.00
-19.04
-10.11
-2.22
3.99
8.33
10.97
12.25
12.50
12.00
10.99
9.70
8.46
7.62
7.45
8.00
9.05
10.17
10.88
10.81
9.93
8.44
6.67
4.85
2.98
0.82
-1.87
-5.24
-9.18
-13.46
-17.84
-22.22
-26.54
-30.62
-34.01
-35.96
-35.69
-32.74
-27.24
-19.95
-12.01
-4.52
1.77
6.51
9.73
11.61
12.32
12.04
11.01
9.67
8.59
8.29
9.03
10.64
12.55
14.00
14.36
13.34
11.11
8.14
5.04
2.25
-0.05
-1.99
-3.88
-6.10
-8.96
-12.64
-17.14
-22.24
-27.50
-32.27
-35.68
-36.92
-35.39
-31.02
-24.38
-16.48
-8.57
-1.63
3.85
7.89
10.85
13.06
14.63
15.49
15.57
14.96
14.07
13.39
13.34
13.99
15.04
15.94
16.15
15.32
13.52
11.04
8.30
5.63
3.14
0.72
-1.85
-4.78
-8.20
-12.17
-16.63
-21.46
-26.27
-30.47
-33.24
-33.75
-31.53
-26.66
-19.78
-11.95
-4.19
2.78
8.62
13.29
16.86
19.29
20.55
20.63
19.73
18.26
16.74
15.65
15.21
15.41
15.97
16.48
16.58
15.95
14.51
12.33
9.61
6.62
3.58
0.61
-2.30
-5.29
-8.57
-12.35
-16.73
-21.64
-26.75
-31.48
-35.06
-36.71
-35.87
-32.41
-26.67
-19.41
-11.63
-4.26
1.99
6.79
10.12
12.15
13.14
13.35
12.98
12.28
11.52
10.98
10.89
11.33
12.16
13.07
13.64
13.50
12.45
10.51
7.92
5.03
2.18
-0.43
-2.84
-5.22
-7.93
-11.24
-15.34
-20.26
-25.79
-31.52
-36.77
-40.72
-42.56
-41.68
-37.96
-31.83
-24.17
-16.05
-8.45
-2.03
2.96
6.57
9.04
10.67
11.74
12.47
13.00
13.44
13.81
14.17
14.55
14.95
15.29
15.38
14.96
13.85
12.01
9.62
6.96
4.37
2.03
-0.09
-2.19
-4.60
-7.64
-11.57
-16.55
-22.56
-29.32
-36.27
-42.50
-46.91
-48.45
-46.50
-41.12
-33.05
-23.59
-14.13
-5.80
0.85
5.79
9.29
11.68
13.18
13.90
14.00
13.73
13.45
13.50
14.07
15.12
16.40
17.61
18.47
18.81
18.56
17.60
15.91
13.46
10.37
6.89
3.31
-0.13
-3.33
-6.35
-9.43
-12.86
-16.93
-21.77
-27.26
-32.90
-37.83
-41.01
-41.52
-38.89
-33.30
-25.53
-16.75
-8.12
-0.50
5.66
10.30
13.52
15.53
16.55
16.88
16.85
16.87
17.26
18.17
19.55
21.07
22.32
22.94
22.69
21.51
19.54
17.00
14.19
11.33
8.59
6.00
3.51
0.96
-1.85
-5.15
-9.10
-13.85
-19.41
-25.57
-31.89
-37.59
-41.71
-43.27
-41.66
-36.79
-29.21
-20.00
-10.44
-1.67
5.54
10.82
14.18
15.81
16.03
15.23
13.88
12.56
11.76
11.83
12.79
14.32
15.90
16.99
17.20
16.39
14.61
12.04
8.89
5.37
1.69
-1.93
-5.34
-8.50
-11.57
-14.83
-18.70
-23.48
-29.14
-35.27
-41.01
-45.21
-46.76
-44.89
-39.53
-31.31
-21.37
-11.04
-1.51
6.50
12.71
17.19
20.18
21.88
22.55
22.46
22.00
21.63
21.69
22.39
23.64
25.14
26.45
27.12
26.83
25.42
22.93
19.57
15.66
11.51
7.36
3.34
-0.60
-4.64
-9.01
-14.02
-19.84
-26.47
-33.55
-40.33
-45.74
-48.63
-48.13
-43.96
-36.56
-26.99
-16.61
-6.66
1.95
8.80
13.87
17.37
19.56
20.68
20.93
20.55
19.88
19.29
19.17
19.68
20.69
21.74
22.23
21.63
19.74
16.74
13.08
9.27
5.61
2.12
-1.43
-5.34
-9.86
-15.14
-21.24
-28.14
-35.66
-43.34
-50.29
-55.31
-57.17
-54.98
-48.66
-38.99
-27.43
-15.63
-4.98
3.75
10.39
15.19
18.50
20.60
21.68
21.95
21.72
21.49
21.75
22.81
24.67
26.94
28.97
30.12
29.92
28.32
25.51
21.89
17.82
13.55
9.14
4.52
-0.39
-5.69
-11.49
-17.90
-24.97
-32.54
-40.09
-46.68
-51.05
-51.99
-48.75
-41.39
-30.85
-18.60
-6.29
4.81
13.98
21.04
26.11
29.39
31.03
31.20
30.29
28.90
27.78
27.60
28.61
30.61
32.91
34.64
35.04
33.78
30.97
27.11
22.86
18.75
15.05
11.71
8.44
4.82
0.45
-4.97
-11.57
-19.19
-27.32
-35.05
-41.16
-44.36
-43.70
-38.89
-30.45
-19.56
-7.76
3.56
13.37
21.17
26.89
30.71
32.90
33.73
33.54
32.71
31.73
31.07
31.06
31.78
32.99
34.17
34.74
34.23
32.48
29.65
26.12
22.30
18.54
14.97
11.54
8.04
4.14
-0.46
-6.02
-12.55
-19.78
-27.08
-33.53
-38.07
-39.73
-37.80
-32.14
-23.25
-12.20
-0.44
10.56
19.67
26.25
30.20
31.81
31.55
29.93
27.54
25.03
23.08
22.31
22.97
24.85
27.23
29.16
29.78
28.67
25.96
22.15
17.94
13.84
10.06
6.54
3.04
-0.66
-4.70
-9.20
-14.26
-19.91
-26.01
-31.96
-36.78
-39.24
-38.28
-33.48
-25.29
-14.93
-4.03
5.90
13.90
19.67
23.47
25.74
26.92
27.27
26.96
26.18
25.31
24.80
25.03
26.09
27.60
28.88
29.17
27.98
25.31
21.62
17.63
13.94
10.75
7.91
5.00
1.59
-2.55
-7.44
-12.97
-18.97
-25.17
-31.09
-35.95
-38.74
-38.55
-34.93
-28.18
-19.29
-9.64
-0.54
7.16
13.12
17.39
20.14
21.49
21.53
20.48
18.78
17.03
15.87
15.65
16.32
17.40
18.19
18.15
16.99
14.88
12.24
9.56
7.15
5.03
2.97
0.63
-2.31
-6.04
-10.56
-15.80
-21.58
-27.60
-33.37
-38.14
-40.99
-41.09
-38.00
-31.97
-23.82
-14.82
-6.16
1.32
7.33
11.93
15.36
17.72
19.05
19.38
18.89
17.97
17.07
16.58
16.64
17.13
17.72
18.06
17.85
16.92
15.24
12.92
10.22
7.40
4.64
1.93
-0.93
-4.25
-8.36
-13.35
-19.10
-25.19
-31.09
-36.15
-39.70
-41.11
-39.90
-35.96
-29.61
-21.65
-13.15
-5.18
1.47
6.47
9.87
12.04
13.36
14.11
14.46
14.51
14.40
14.30
14.43
14.87
15.55
16.22
16.60
16.50
15.88
14.87
13.60
12.14
10.41
8.28
5.61
2.45
-1.04
-4.62
-8.13
-11.55
-14.95
-18.42
-21.85
-24.86
-26.90
-27.25
-25.49
-21.52
-15.85
-9.34
-2.98
2.45
6.53
9.24
10.80
11.43
11.31
10.60
9.50
8.36
7.59
7.52
8.22
9.45
10.72
11.49
11.40
10.32
8.44
6.10
3.66
1.35
-0.77
-2.83
-5.00
-7.43
-10.29
-13.61
-17.43
-21.68
-26.10
-30.26
-33.52
-35.22
-34.82
-32.16
-27.48
-21.39
-14.74
-8.37
-2.93
1.20
3.96
5.56
6.32
6.55
6.52
6.39
6.31
6.45
6.93
7.84
9.12
10.46
11.44
11.63
10.80
8.99
6.50
3.76
1.12
-1.25
-3.40
-5.52
-7.81
-10.46
-13.58
-17.22
-21.32
-25.62
-29.63
-32.66
-33.91
-32.79
-29.17
-23.47
-16.63
-9.75
-3.74
0.92
4.23
6.52
8.17
9.38
10.23
10.69
10.79
10.69
10.67
10.86
11.27
11.70
11.82
11.39
10.31
8.67
6.71
4.63
2.49
0.26
-2.21
-4.99
-8.09
-11.45
-14.99
-18.71
-22.68
-26.86
-30.99
-34.50
-36.62
-36.67
-34.29
-29.71
-23.64
-16.98
-10.62
-5.11
-0.69
2.61
4.91
6.25
6.72
6.41
5.55
4.44
3.48
3.01
3.22
4.08
5.26
6.33
6.81
6.43
5.16
3.28
1.18
-0.79
-2.53
-4.19
-6.10
-8.58
-11.81
-15.78
-20.27
-24.96
-29.45
-33.27
-35.82
-36.51
-34.96
-31.14
-25.54
-19.04
-12.63
-7.09
-2.77
0.44
2.81
4.58
5.78
6.36
6.36
6.01
5.73
5.94
6.82
8.22
9.71
10.78
11.05
10.36
8.82
6.68
4.22
1.67
-0.84
-3.24
-5.56
-7.89
-10.32
-12.94
-15.78
-18.86
-22.07
-25.21
-27.93
-29.78
-30.24
-28.95
-25.81
-21.12
-15.51
-9.78
-4.62
-0.46
2.58
4.69
6.09
7.04
7.63
7.97
8.14
8.34
8.79
9.65
10.86
12.14
13.05
13.16
12.23
10.28
7.61
4.63
1.67
-1.13
-3.81
-6.55
-9.50
-12.83
-16.59
-20.81
-25.42
-30.22
-34.74
-38.29
-40.15
-39.69
-36.77
-31.68
-25.23
-18.35
-11.89
-6.31
-1.80
1.66
4.13
5.61
6.14
5.90
5.28
4.88
5.16
6.37
8.38
10.72
12.79
14.03
14.13
13.08
11.13
8.69
6.13
3.69
1.39
-0.91
-3.48
-6.58
-10.45
-15.19
-20.70
-26.62
-32.33
-36.92
-39.44
-39.11
-35.62
-29.23
-20.79
-11.45
-2.33
5.71
12.15
16.76
19.54
20.59
20.15
18.68
16.80
15.27
14.70
15.41
17.25
19.67
21.93
23.37
23.57
22.50
20.38
17.54
14.28
10.75
7.00
3.03
-1.22
-5.79
-10.82
-16.44
-22.69
-29.31
-35.64
-40.65
-43.19
-42.39
-37.99
-30.47
-20.93
-10.72
-1.05
7.30
14.00
19.02
22.54
24.72
25.71
25.72
25.08
24.25
23.74
23.92
24.89
26.33
27.62
28.11
27.32
25.20
22.00
18.21
14.28
10.47
6.78
3.02
-1.07
-5.72
-11.09
-17.23
-24.02
-31.12
-37.87
-43.30
-46.32
-45.99
-41.91
-34.38
-24.42
-13.46
-2.87
6.35
13.76
19.38
23.45
26.15
27.62
27.98
27.51
26.70
26.14
26.31
27.34
28.92
30.45
31.19
30.62
28.62
25.46
21.70
17.87
14.29
10.97
7.61
3.84
-0.71
-6.27
-12.86
-20.34
-28.29
-35.98
-42.35
-46.20
-46.41
-42.38
-34.27
-23.08
-10.33
2.27
13.34
22.05
28.14
31.77
33.30
33.15
31.74
29.62
27.45
25.93
25.63
26.72
28.89
31.35
33.18
33.59
32.26
29.36
25.42
21.08
16.77
12.67
8.69
4.60
0.11
-5.04
-11.02
-17.77
-24.94
-31.68
-36.88
-39.30
-38.01
-32.76
-24.07
-13.09
-1.30
9.94
19.56
26.92
31.79
34.22
34.53
33.25
31.05
28.72
27.00
26.38
27.00
28.51
30.17
31.17
30.84
28.95
25.76
21.88
17.97
14.42
11.25
8.13
4.60
0.23
-5.21
-11.61
-18.58
-25.30
-30.63
-33.38
-32.63
-28.09
-20.31
-10.43
0.08
9.94
18.32
24.83
29.43
32.13
33.00
32.15
29.94
26.99
24.08
21.97
21.08
21.37
22.33
23.18
23.18
21.84
19.10
15.25
10.75
6.00
1.22
-3.58
-8.55
-13.93
-19.90
-26.57
-33.73
-40.86
-47.08
-51.31
-52.52
-50.12
-44.20
-35.53
-25.39
-15.23
-6.30
0.54
4.91
6.89
6.91
5.66
3.96
2.65
2.42
3.68
6.54
10.69
15.54
20.32
24.22
26.67
27.46
26.83
25.32
23.57
21.96
20.47
18.68
15.99
11.95
6.46
-0.01
-6.57
-12.07
-15.37
-15.62
-12.47
-6.18
2.43
12.16
21.67
29.79
35.72
39.05
39.82
38.37
35.27
31.34
27.47
24.47
22.87
22.73
23.67
24.94
25.77
25.54
24.03
21.39
18.01
14.34
10.70
7.13
3.38
-0.95
-6.23
-12.60
-19.82
-27.16
-33.56
-37.82
-38.98
-36.59
-30.85
-22.59
-12.98
-3.30
5.47
12.61
17.75
20.70
21.49
20.36
17.89
14.91
12.38
11.05
11.18
12.45
14.14
15.40
15.64
14.67
12.71
10.14
7.32
4.41
1.36
-2.05
-6.07
-10.91
-16.65
-23.16
-30.01
-36.44
-41.46
-44.00
-43.28
-39.08
-31.84
-22.53
-12.46
-2.86
5.29
11.39
15.21
16.79
16.44
14.69
12.31
10.11
8.85
8.93
10.33
12.56
14.82
16.33
16.60
15.57
13.57
11.10
8.56
6.09
3.46
0.29
-3.81
-9.00
-15.20
-22.01
-28.75
-34.49
-38.21
-39.03
-36.48
-30.72
-22.56
-13.25
-4.10
3.92
10.26
14.82
17.74
19.18
19.29
18.31
16.60
14.72
13.26
12.64
12.92
13.75
14.51
14.52
13.34
10.94
7.69
4.17
0.84
-2.11
-4.85
-7.80
-11.38
-15.82
-21.12
-26.93
-32.74
-37.81
-41.36
-42.62
-41.08
-36.68
-29.84
-21.46
-12.63
-4.34
2.69
8.13
11.89
14.04
14.71
14.12
12.64
10.84
9.37
8.77
9.23
10.49
11.91
12.76
12.50
11.00
8.54
5.60
2.63
-0.13
-2.71
-5.37
-8.46
-12.31
-17.13
-22.93
-29.36
-35.70
-40.96
-44.03
-44.11
-40.88
-34.70
-26.40
-17.16
-8.10
-0.08
6.37
11.08
14.12
15.70
16.11
15.68
14.81
13.89
13.29
13.19
13.59
14.24
14.80
14.90
14.38
13.27
11.80
10.20
8.62
7.00
5.08
2.52
-1.01
-5.67
-11.34
-17.65
-23.97
-29.51
-33.45
-35.02
-33.74
-29.52
-22.77
-14.38
-5.49
2.76
9.54
14.45
17.53
19.06
19.41
18.92
17.89
16.69
15.68
15.23
15.49
16.38
17.54
18.43
18.60
17.78
16.03
13.66
11.12
8.74
6.63
4.56
2.11
-1.17
-5.54
-10.99
-17.17
-23.46
-29.11
-33.33
-35.43
-34.93
-31.79
-26.39
-19.50
-12.10
-5.12
0.85
5.58
9.09
11.55
13.06
13.64
13.37
12.49
11.40
10.61
10.48
11.11
12.24
13.39
14.06
13.92
12.91
11.19
9.01
6.62
4.18
1.71
-0.80
-3.50
-6.50
-10.02
-14.15
-18.87
-23.83
-28.42
-31.78
-33.06
-31.72
-27.75
-21.69
-14.44
-7.03
-0.29
5.31
9.54
12.40
13.89
14.09
13.18
11.53
9.72
8.35
7.92
8.54
9.94
11.52
12.60
12.66
11.55
9.49
6.93
4.38
2.12
0.16
-1.78
-4.08
-7.06
-10.88
-15.45
-20.49
-25.55
-30.08
-33.44
-35.08
-34.54
-31.72
-26.83
-20.48
-13.47
-6.65
-0.77
3.69
6.57
7.96
8.12
7.41
6.18
4.79
3.61
2.97
3.08
3.92
5.18
6.37
6.96
6.63
5.42
3.64
1.72
-0.07
-1.72
-3.52
-5.86
-9.07
-13.31
-18.50
-24.36
-30.35
-35.77
-39.82
-41.71
-40.91
-37.33
-31.37
-23.83
-15.69
-7.84
-0.97
4.50
8.39
10.63
11.33
10.75
9.37
7.83
6.79
6.73
7.82
9.72
11.81
13.37
13.89
13.27
11.77
9.80
7.73
5.66
3.45
0.82
-2.45
-6.43
-11.08
-16.19
-21.49
-26.55
-30.82
-33.60
-34.22
-32.26
-27.67
-20.96
-13.01
-4.87
2.48
8.40
12.66
15.35
16.76
17.22
17.05
16.52
15.88
15.35
15.22
15.61
16.53
17.70
18.65
18.88
18.04
16.05
13.17
9.88
6.62
3.61
0.77
-2.19
-5.63
-9.73
-14.44
-19.49
-24.42
-28.66
-31.58
-32.56
-31.18
-27.34
-21.39
-14.08
-6.36
0.80
6.73
11.09
13.80
14.99
14.90
13.86
12.32
10.82
9.90
9.89
10.85
12.44
14.09
15.17
15.15
13.79
11.18
7.73
3.99
0.49
-2.44
-4.79
-6.89
-9.22
-12.33
-16.50
-21.71
-27.52
-33.17
-37.69
-40.13
-39.80
-36.48
-30.48
-22.61
-13.96
-5.62
1.55
7.06
10.84
13.07
14.09
14.23
13.88
13.40
13.16
13.47
14.45
16.00
17.72
19.02
19.33
18.35
16.18
13.26
10.23
7.61
5.58
3.94
2.25
-0.02
-3.21
-7.50
-12.80
-18.83
-25.16
-31.07
-35.69
-38.03
-37.34
-33.34
-26.44
-17.67
-8.40
0.08
6.95
11.96
15.32
17.40
18.55
18.95
18.76
18.23
17.81
17.92
18.84
20.46
22.28
23.62
23.93
22.99
20.99
18.34
15.47
12.64
9.88
7.09
4.15
0.97
-2.54
-6.52
-11.13
-16.45
-22.31
-28.13
-33.02
-35.92
-35.98
-32.82
-26.69
-18.49
-9.47
-0.89
6.43
12.09
16.22
19.13
21.13
22.39
23.00
23.04
22.74
22.45
22.49
23.04
24.00
25.04
25.73
25.74
24.91
23.35
21.30
19.13
17.08
15.23
13.42
11.32
8.57
4.92
0.30
-5.19
-11.33
-17.81
-24.12
-29.52
-33.10
-34.01
-31.74
-26.43
-18.88
-10.32
-1.99
5.23
10.94
15.18
18.11
19.88
20.59
20.38
19.55
18.58
18.04
18.31
19.46
21.21
22.97
24.19
24.48
23.70
21.95
19.47
16.50
13.24
9.83
6.33
2.78
-0.85
-4.62
-8.71
-13.28
-18.41
-23.91
-29.28
-33.66
-36.06
-35.61
-31.92
-25.23
-16.40
-6.69
2.61
10.55
16.63
20.80
23.26
24.29
24.22
23.36
22.12
20.97
20.38
20.60
21.61
23.03
24.25
24.69
23.95
21.98
19.03
15.53
11.89
8.39
5.15
2.16
-0.72
-3.66
-6.91
-10.77
-15.50
-21.15
-27.38
-33.36
-37.95
-39.97
-38.64
-33.85
-26.27
-17.11
-7.77
0.60
7.34
12.27
15.57
17.55
18.57
18.90
18.83
18.67
18.75
19.35
20.60
22.37
24.24
25.65
26.02
25.04
22.72
19.46
15.82
12.27
9.07
6.18
3.34
0.24
-3.38
-7.68
-12.69
-18.34
-24.29
-29.94
-34.45
-36.86
-36.45
-32.97
-26.79
-18.86
-10.37
-2.46
4.11
9.01
12.30
14.23
15.12
15.24
14.80
14.12
13.54
13.42
13.95
15.08
16.43
17.51
17.87
17.30
15.88
13.87
11.58
9.14
6.51
3.53
0.05
-4.04
-8.74
-14.01
-19.82
-25.98
-32.09
-37.49
-41.25
-42.54
-40.83
-36.19
-29.26
-21.08
-12.75
-5.15
1.19
6.07
9.52
11.58
12.35
12.03
10.93
9.55
8.43
8.03
8.51
9.66
11.01
11.97
12.09
11.17
9.36
6.98
4.39
1.79
-0.78
-3.49
-6.54
-10.07
-14.10
-18.51
-23.11
-27.56
-31.47
-34.31
-35.50
-34.56
-31.29
-25.92
-19.09
-11.66
-4.53
1.66
6.58
10.18
12.53
13.76
13.99
13.43
12.45
11.51
11.11
11.54
12.77
14.40
15.84
16.50
16.04
14.46
12.10
9.43
6.84
4.52
2.40
0.23
-2.31
-5.49
-9.42
-14.05
-19.07
-23.99
-28.15
-30.83
-31.48
-29.79
-25.90
-20.25
-13.55
-6.50
0.31
6.46
11.67
15.76
18.59
20.14
20.52
20.03
19.12
18.25
17.75
17.75
18.11
18.51
18.54
17.94
16.59
14.62
12.31
9.98
7.84
5.87
3.89
1.61
-1.27
-4.92
-9.39
-14.57
-20.12
-25.50
-29.96
-32.67
-32.90
-30.34
-25.23
-18.32
-10.67
-3.31
3.00
7.94
11.49
13.80
15.04
15.39
15.05
14.39
13.83
13.76
14.39
15.55
16.85
17.75
17.85
16.95
15.18
12.85
10.28
7.73
5.27
2.84
0.32
-2.41
-5.50
-9.08
-13.26
-18.04
-23.21
-28.25
-32.41
-34.82
-34.82
-32.11
-26.97
-20.13
-12.64
-5.42
0.81
5.77
9.47
12.05
13.68
14.44
14.45
13.88
13.10
12.55
12.58
13.23
14.29
15.27
15.65
15.06
13.37
10.74
7.47
3.94
0.47
-2.73
-5.66
-8.45
-11.32
-14.53
-18.27
-22.57
-27.31
-32.15
-36.60
-39.97
-41.56
-40.83
-37.60
-32.17
-25.31
-18.01
-11.18
-5.43
-0.94
2.41
4.88
6.69
8.00
8.88
9.50
10.08
10.90
12.13
13.69
15.29
16.46
16.81
16.16
14.61
12.49
10.13
7.76
5.42
3.00
0.38
-2.52
-5.76
-9.40
-13.55
-18.32
-23.63
-29.09
-33.95
-37.25
-38.14
-36.14
-31.38
-24.54
-16.65
-8.80
-1.80
3.95
8.42
11.78
14.17
15.65
16.23
15.96
15.06
13.85
12.61
11.48
10.41
9.34
8.31
7.50
7.15
7.32
7.80
8.17
7.97
6.98
5.23
2.98
0.42
-2.43
-5.73
-9.66
-14.23
-19.15
-23.89
-27.81
-30.32
-30.98
-29.59
-26.17
-20.93
-14.36
-7.09
0.17
6.82
12.40
16.72
19.73
21.52
22.27
22.26
21.84
21.43
21.41
21.93
22.93
24.10
25.05
25.43
25.07
23.98
22.26
20.04
17.43
14.51
11.44
8.39
5.51
2.81
0.14
-2.83
-6.44
-10.89
-15.99
-21.22
-25.69
-28.49
-28.94
-26.76
-22.19
-15.87
-8.70
-1.62
4.61
9.52
12.92
14.88
15.64
15.48
14.73
13.72
12.81
12.27
12.29
12.90
13.89
14.93
15.65
15.73
15.05
13.70
11.88
9.85
7.78
5.69
3.50
1.08
-1.68
-4.85
-8.45
-12.55
-17.20
-22.27
-27.37
-31.75
-34.52
-34.86
-32.38
-27.28
-20.32
-12.49
-4.77
2.17
7.93
12.39
15.52
17.34
17.99
17.69
16.91
16.18
16.02
16.66
17.97
19.51
20.71
21.11
20.54
19.13
17.18
15.00
12.81
10.65
8.45
6.13
3.56
0.62
-2.88
-7.10
-12.21
-18.16
-24.66
-31.14
-36.74
-40.52
-41.74
-40.01
-35.52
-29.00
-21.46
-13.93
-7.21
-1.74
2.34
5.05
6.52
6.90
6.44
5.52
4.59
4.02
3.99
4.49
5.29
6.15
6.87
7.33
7.51
7.41
7.06
6.53
5.88
5.19
4.39
3.33
1.77
-0.56
-3.84
-8.09
-13.25
-19.09
-25.24
-31.15
-36.08
-39.27
-40.04
-38.07
-33.49
-26.86
-19.02
-10.85
-3.21
3.18
7.79
10.29
10.68
9.27
6.73
3.83
1.33
-0.20
-0.55
0.21
1.75
3.57
5.12
5.93
5.69
4.39
2.34
-0.04
-2.33
-4.34
-6.15
-8.05
-10.43
-13.52
-17.32
-21.57
-25.71
-29.13
-31.13
-31.21
-29.06
-24.66
-18.33
-10.69
-2.56
5.12
11.49
16.00
18.41
18.91
17.98
16.25
14.35
12.77
11.79
11.49
11.74
12.30
12.82
13.02
12.69
11.78
10.37
8.60
6.63
4.50
2.15
-0.63
-4.07
-8.30
-13.24
-18.51
-23.47
-27.40
-29.59
-29.60
-27.31
-22.91
-16.90
-9.92
-2.72
3.97
9.56
13.64
16.07
16.95
16.57
15.41
14.00
12.85
12.35
12.65
13.60
14.83
15.81
16.15
15.62
14.27
12.34
10.15
7.91
5.69
3.38
0.81
-2.24
-5.93
-10.29
-15.25
-20.48
-25.44
-29.39
-31.57
-31.32
-28.38
-22.93
-15.61
-7.38
0.82
8.15
14.16
18.68
21.78
23.62
24.42
24.43
23.99
23.50
23.32
23.68
24.54
25.61
26.40
26.43
25.41
23.34
20.53
17.47
14.62
12.26
10.30
8.41
6.09
2.89
-1.39
-6.72
-12.77
-19.03
-24.86
-29.49
-32.07
-31.88
-28.53
-22.20
-13.66
-4.14
5.11
13.16
19.56
24.34
27.70
29.90
31.07
31.31
30.78
29.72
28.51
27.47
26.89
26.84
27.19
27.65
27.74
27.04
25.28
22.51
19.10
15.52
12.15
9.06
5.97
2.46
-1.80
-6.92
-12.69
-18.71
-24.38
-29.12
-32.27
-33.23
-31.60
-27.26
-20.56
-12.23
-3.29
5.27
12.67
18.47
22.56
25.02
26.09
26.03
25.19
23.99
22.88
22.23
22.26
22.92
23.92
24.85
25.29
25.03
24.00
22.32
20.19
17.80
15.25
12.53
9.58
6.28
2.59
-1.53
-6.01
-10.82
-15.87
-20.99
-25.82
-29.75
-32.02
-31.89
-28.96
-23.37
-15.84
-7.37
0.95
8.33
14.36
18.96
22.21
24.22
25.11
25.07
24.37
23.42
22.59
22.14
22.09
22.27
22.38
22.14
21.36
20.01
18.18
16.01
13.63
11.13
8.55
5.87
3.07
0.16
-2.90
-6.19
-9.91
-14.25
-19.30
-24.85
-30.28
-34.63
-36.88
-36.18
-32.27
-25.50
-16.82
-7.50
1.21
8.37
13.48
16.49
17.68
17.46
16.30
14.64
12.92
11.56
10.89
11.10
12.08
13.51
14.87
15.68
15.63
14.66
12.94
10.79
8.58
6.54
4.75
3.08
1.29
-0.93
-3.83
-7.50
-11.92
-16.89
-22.08
-26.95
-30.82
-32.87
-32.42
-29.10
-23.15
-15.29
-6.63
1.68
8.78
14.16
17.73
19.57
19.88
18.96
17.20
15.09
13.23
12.13
12.08
13.04
14.65
16.33
17.48
17.69
16.83
15.07
12.74
10.19
7.62
5.06
2.41
-0.44
-3.55
-6.93
-10.62
-14.64
-18.96
-23.33
-27.24
-29.90
-30.53
-28.66
-24.31
-18.03
-10.75
-3.41
3.22
8.66
12.69
15.27
16.48
16.49
15.60
14.17
12.64
11.42
10.79
10.91
11.71
12.88
14.00
14.55
14.17
12.74
10.46
7.75
5.02
2.55
0.29
-1.96
-4.52
-7.63
-11.36
-15.59
-20.08
-24.44
-28.20
-30.83
-31.80
-30.72
-27.47
-22.34
-15.94
-9.13
-2.76
2.52
6.38
8.74
9.76
9.71
8.90
7.68
6.41
5.40
4.87
4.84
5.18
5.62
5.82
5.53
4.65
3.20
1.40
-0.51
-2.37
-4.10
-5.81
-7.71
-10.01
-12.81
-16.10
-19.70
-23.33
-26.63
-29.14
-30.43
-30.09
-27.91
-23.99
-18.77
-12.92
-7.17
-2.14
1.81
4.52
6.03
6.43
5.82
4.38
2.42
0.35
-1.31
-2.15
-2.02
-1.10
0.19
1.30
1.88
1.81
1.25
0.46
-0.38
-1.29
-2.52
-4.41
-7.20
-10.96
-15.54
-20.56
-25.52
-29.78
-32.69
-33.68
-32.45
-29.01
-23.81
-17.57
-11.10
-5.13
-0.12
3.64
6.05
7.11
6.89
5.64
3.79
1.94
0.69
0.41
1.17
2.62
4.18
5.29
5.55
4.95
3.69
2.13
0.51
-1.13
-2.96
-5.19
-7.99
-11.38
-15.18
-19.06
-22.65
-25.47
-27.07
-27.03
-25.09
-21.24
-15.86
-9.63
-3.40
2.07
6.28
9.07
10.57
11.00
10.62
9.59
8.12
6.49
5.06
4.17
3.98
4.37
5.00
5.47
5.40
4.67
3.31
1.47
-0.69
-3.04
-5.48
-8.00
-10.65
-13.57
-16.92
-20.72
-24.73
-28.37
-30.81
-31.36
-29.58
-25.61
-20.03
-13.65
-7.23
-1.35
3.72
7.83
10.92
12.90
13.79
13.69
12.93
11.93
11.18
11.00
11.45
12.31
13.13
13.43
12.82
11.16
8.57
5.35
1.89
-1.54
-4.83
-8.06
-11.46
-15.27
-19.69
-24.71
-30.05
-35.12
-39.14
-41.32
-41.11
-38.36
-33.41
-26.95
-19.78
-12.64
-6.05
-0.31
4.46
8.20
10.93
12.73
13.73
14.10
14.11
14.00
13.94
13.99
14.02
13.78
13.00
11.52
9.38
6.76
3.96
1.21
-1.44
-4.09
-6.96
-10.23
-14.04
-18.43
-23.33
-28.54
-33.73
-38.34
-41.62
-42.81
-41.34
-37.08
-30.44
-22.24
-13.48
-5.00
2.64
9.17
14.47
18.45
21.00
22.12
21.99
21.11
20.10
19.54
19.77
20.76
22.14
23.39
23.99
23.63
22.24
19.97
17.14
14.05
10.92
7.84
4.76
1.56
-1.93
-5.82
-10.23
-15.16
-20.53
-26.09
-31.36
-35.64
-38.12
-38.05
-34.96
-28.90
-20.48
-10.76
-0.95
7.88
15.08
20.46
24.18
26.61
28.06
28.80
29.00
28.86
28.57
28.39
28.49
28.91
29.49
29.95
30.00
29.43
28.24
26.48
24.29
21.78
18.97
15.88
12.52
8.98
5.38
1.82
-1.66
-5.16
-8.88
-13.07
-17.83
-23.05
-28.20
-32.44
-34.74
-34.26
-30.60
-24.07
-15.51
-6.12
2.99
11.03
17.57
22.48
25.80
27.58
27.98
27.31
26.02
24.72
23.91
23.89
24.61
25.77
26.92
27.65
27.71
27.01
25.56
23.44
20.77
17.65
14.21
10.62
7.01
3.48
0.08
-3.22
-6.45
-9.70
-13.08
-16.73
-20.82
-25.38
-30.24
-34.85
-38.35
-39.77
-38.30
-33.71
-26.35
-17.22
-7.57
1.38
8.77
14.22
17.72
19.54
20.05
19.60
18.62
17.55
16.84
16.90
17.90
19.72
21.95
24.04
25.49
25.98
25.50
24.24
22.40
20.17
17.60
14.75
11.66
8.48
5.39
2.50
-0.24
-3.06
-6.29
-10.29
-15.22
-20.99
-27.20
-33.09
-37.74
-40.16
-39.56
-35.60
-28.57
-19.30
-8.98
1.18
10.24
17.70
23.40
27.43
29.93
31.04
30.97
30.04
28.75
27.67
27.29
27.82
29.05
30.51
31.58
31.82
31.06
29.42
27.15
24.49
21.52
18.17
14.43
10.38
6.24
2.29
-1.31
-4.62
-7.92
-11.60
-16.02
-21.30
-27.28
-33.47
-39.10
-43.27
-45.14
-44.16
-40.25
-33.82
-25.68
-16.78
-7.99
0.06
6.99
12.63
16.92
19.87
21.59
22.33
22.46
22.37
22.40
22.75
23.40
24.21
24.97
25.45
25.53
25.10
24.15
22.67
20.66
18.12
15.08
11.62
7.93
4.23
0.73
-2.45
-5.32
-8.06
-10.98
-14.43
-18.68
-23.82
-29.66
-35.67
-40.99
-44.62
-45.63
-43.45
-38.08
-30.16
-20.76
-11.10
-2.24
5.19
10.92
15.04
17.73
19.20
19.62
19.23
18.40
17.59
17.24
17.60
18.64
20.05
21.37
22.16
22.18
21.41
20.03
18.22
16.13
13.78
11.08
7.97
4.50
0.91
-2.51
-5.50
-8.06
-10.42
-13.02
-16.29
-20.48
-25.47
-30.77
-35.59
-39.02
-40.28
-38.88
-34.83
-28.60
-21.02
-12.98
-5.32
1.44
7.05
11.44
14.63
16.67
17.69
17.91
17.68
17.43
17.53
18.13
19.10
20.12
20.80
20.88
20.34
19.36
18.23
17.13
16.09
14.93
13.42
11.37
8.71
5.53
2.03
-1.57
-5.08
-8.42
-11.65
-15.00
-18.72
-22.95
-27.50
-31.78
-34.97
-36.20
-34.93
-31.14
-25.28
-18.16
-10.63
-3.47
2.77
7.73
11.22
13.24
13.94
13.64
12.78
11.84
11.23
11.17
11.66
12.54
13.53
14.37
14.85
14.86
14.34
13.30
11.73
9.66
7.15
4.31
1.28
-1.75
-4.62
-7.22
-9.58
-11.83
-14.22
-17.03
-20.45
-24.46
-28.82
-33.04
-36.44
-38.33
-38.16
-35.67
-30.99
-24.65
-17.44
-10.27
-3.91
1.12
4.66
6.83
7.94
8.31
8.23
7.88
7.40
6.92
6.59
6.59
7.00
7.77
8.69
9.45
9.72
9.29
8.14
6.44
4.44
2.36
0.34
-1.64
-3.66
-5.79
-8.11
-10.67
-13.54
-16.72
-20.18
-23.68
-26.78
-28.84
-29.20
-27.41
-23.36
-17.42
-10.30
-2.87
4.04
9.81
14.08
16.79
18.03
18.06
17.21
15.90
14.57
13.61
13.26
13.57
14.39
15.36
16.12
16.31
15.69
14.19
11.87
8.90
5.54
2.09
-1.22
-4.20
-6.79
-9.07
-11.29
-13.72
-16.64
-20.23
-24.43
-28.90
-32.98
-35.84
-36.65
-34.91
-30.55
-24.10
-16.48
-8.77
-1.88
3.66
7.74
10.54
12.34
13.42
13.94
14.02
13.77
13.39
13.12
13.13
13.44
13.86
13.99
13.48
12.13
10.02
7.49
4.93
2.60
0.49
-1.56
-3.72
-6.10
-8.64
-11.30
-14.17
-17.49
-21.57
-26.52
-32.03
-37.38
-41.53
-43.40
-42.30
-38.11
-31.31
-22.95
-14.20
-6.20
0.33
5.12
8.26
10.05
10.84
10.92
10.52
9.86
9.18
8.73
8.71
9.17
10.05
11.11
12.03
12.53
12.38
11.54
10.12
8.32
6.28
4.04
1.57
-1.26
-4.52
-8.22
-12.29
-16.66
-21.27
-26.09
-30.93
-35.36
-38.69
-40.02
-38.62
-34.19
-27.12
-18.37
-9.27
-1.05
5.45
9.91
12.53
13.73
13.97
13.66
13.07
12.45
12.06
12.19
13.00
14.50
16.45
18.35
19.67
19.94
18.91
16.65
13.50
9.95
6.49
3.35
0.57
-2.07
-4.87
-8.09
-11.91
-16.40
-21.58
-27.34
-33.33
-38.82
-42.77
-44.03
-41.78
-35.94
-27.26
-17.16
-7.20
1.36
7.87
12.29
14.88
15.96
15.85
14.86
13.40
12.07
11.44
11.90
13.41
15.49
17.39
18.35
17.95
16.18
13.46
10.38
7.45
4.95
2.78
0.65
-1.78
-4.78
-8.47
-12.93
-18.14
-24.00
-30.16
-35.91
-40.21
-41.93
-40.24
-34.93
-26.57
-16.34
-5.70
4.00
11.84
17.40
20.72
22.09
21.92
20.62
18.65
16.53
14.79
13.92
14.19
15.48
17.28
18.88
19.59
19.03
17.28
14.73
11.90
9.13
6.47
3.74
0.61
-3.23
-7.98
-13.66
-20.11
-26.89
-33.23
-38.10
-40.40
-39.31
-34.60
-26.73
-16.79
-6.13
4.04
12.85
19.87
24.98
28.27
29.85
29.96
28.93
27.27
25.59
24.46
24.23
24.91
26.24
27.68
28.70
28.80
27.73
25.41
22.03
17.86
13.28
8.61
4.06
-0.40
-4.96
-9.99
-15.83
-22.60
-30.00
-37.23
-43.06
-46.15
-45.44
-40.54
-31.91
-20.73
-8.60
3.02
13.07
21.14
27.26
31.67
34.53
35.94
35.92
34.68
32.69
30.60
29.06
28.47
28.74
29.42
29.85
29.39
27.73
24.90
21.28
17.29
13.24
9.19
5.01
0.48
-4.59
-10.28
-16.59
-23.40
-30.46
-37.27
-42.99
-46.56
-46.96
-43.60
-36.57
-26.68
-15.25
-3.64
7.04
16.09
23.19
28.31
31.50
32.90
32.71
31.27
29.09
26.85
25.26
24.83
25.70
27.49
29.39
30.49
30.13
28.16
24.98
21.20
17.39
13.75
10.19
6.38
2.03
-3.06
-8.93
-15.55
-22.78
-30.17
-36.97
-42.05
-44.25
-42.69
-37.15
-28.21
-17.08
-5.26
5.84
15.22
22.39
27.31
30.14
31.15
30.68
29.14
27.09
25.19
24.08
24.16
25.39
27.27
29.01
29.78
29.07
26.81
23.37
19.34
15.26
11.40
7.75
4.09
0.13
-4.35
-9.52
-15.43
-22.02
-29.03
-35.83
-41.45
-44.70
-44.51
-40.34
-32.45
-21.93
-10.40
0.44
9.31
15.59
19.35
21.07
21.33
20.64
19.38
17.89
16.53
15.72
15.77
16.73
18.25
19.74
20.51
20.13
18.58
16.19
13.48
10.86
8.43
6.00
3.21
-0.27
-4.63
-9.91
-15.98
-22.58
-29.24
-35.31
-39.96
-42.37
-41.88
-38.26
-31.82
-23.35
-13.93
-4.68
3.47
9.92
14.46
17.13
18.20
18.02
17.01
15.60
14.27
13.49
13.57
14.60
16.30
18.15
19.52
19.94
19.24
17.58
15.34
12.83
10.16
7.25
3.89
-0.13
-4.91
-10.41
-16.51
-22.92
-29.18
-34.55
-38.05
-38.73
-35.99
-29.87
-21.13
-11.04
-0.99
7.91
15.08
20.34
23.79
25.60
25.90
24.89
22.96
20.70
18.80
17.81
17.94
18.98
20.34
21.28
21.19
19.78
17.12
13.60
9.76
6.01
2.56
-0.72
-4.13
-8.02
-12.63
-18.03
-24.04
-30.23
-35.99
-40.50
-42.94
-42.62
-39.21
-32.94
-24.56
-15.16
-5.91
2.25
8.80
13.61
16.79
18.56
19.10
18.65
17.51
16.13
15.03
14.61
15.04
16.10
17.33
18.12
17.97
16.71
14.46
11.56
8.39
5.20
2.02
-1.25
-4.80
-8.73
-13.13
-18.01
-23.38
-29.18
-35.12
-40.62
-44.75
-46.49
-45.08
-40.30
-32.65
-23.19
-13.24
-3.96
3.88
9.91
14.13
16.72
17.89
17.92
17.10
15.80
14.47
13.49
13.16
13.52
14.36
15.29
15.86
15.73
14.75
12.99
10.66
8.01
5.22
2.36
-0.59
-3.67
-7.03
-10.83
-15.22
-20.25
-25.70
-31.04
-35.41
-37.85
-37.56
-34.18
-27.93
-19.62
-10.40
-1.46
6.26
12.24
16.41
18.96
20.14
20.24
19.48
18.17
16.71
15.58
15.23
15.79
17.08
18.60
19.73
20.00
19.15
17.25
14.53
11.29
7.81
4.31
0.94
-2.27
-5.35
-8.50
-11.92
-15.87
-20.46
-25.61
-30.94
-35.81
-39.35
-40.71
-39.29
-34.98
-28.24
-20.04
-11.50
-3.61
2.95
7.91
11.27
13.18
13.87
13.61
12.74
11.69
10.85
10.54
10.85
11.66
12.64
13.44
13.71
13.28
12.18
10.56
8.61
6.43
4.00
1.25
-1.86
-5.27
-8.87
-12.53
-16.28
-20.28
-24.67
-29.37
-33.96
-37.66
-39.55
-38.93
-35.54
-29.72
-22.24
-14.07
-6.12
0.91
6.60
10.74
13.25
14.13
13.55
11.86
9.64
7.59
6.33
6.24
7.34
9.21
11.23
12.75
13.26
12.58
10.86
8.43
5.70
2.98
0.44
-1.97
-4.39
-7.02
-10.09
-13.66
-17.76
-22.19
-26.57
-30.34
-32.76
-33.15
-31.02
-26.36
-19.67
-11.89
-4.05
2.97
8.62
12.75
15.48
17.03
17.67
17.66
17.34
17.08
17.20
17.87
19.06
20.47
21.69
22.24
21.79
20.18
17.49
14.04
10.20
6.37
2.78
-0.49
-3.51
-6.47
-9.56
-12.99
-16.85
-21.09
-25.42
-29.30
-32.02
-32.92
-31.59
-28.03
-22.67
-16.20
-9.42
-3.06
2.38
6.62
9.54
11.19
11.67
11.21
10.09
8.67
7.44
6.82
7.09
8.24
9.91
11.51
12.40
12.16
10.70
8.35
5.63
3.06
0.96
-0.62
-1.89
-3.24
-5.12
-7.96
-12.04
-17.39
-23.66
-30.10
-35.65
-39.18
-39.85
-37.36
-32.10
-25.01
-17.25
-9.86
-3.58
1.33
4.86
7.13
8.26
8.40
7.74
6.62
5.50
4.86
5.06
6.15
7.85
9.61
10.85
11.11
10.26
8.45
6.07
3.48
0.93
-1.55
-4.09
-6.87
-10.03
-13.70
-17.89
-22.60
-27.65
-32.67
-36.97
-39.66
-39.91
-37.21
-31.68
-24.06
-15.52
-7.23
-0.05
5.63
9.88
12.89
14.88
15.94
16.13
15.61
14.71
13.94
13.74
14.35
15.65
17.22
18.48
18.93
18.35
16.81
14.65
12.24
9.89
7.68
5.51
3.19
0.52
-2.63
-6.33
-10.58
-15.29
-20.20
-24.86
-28.58
-30.62
-30.34
-27.49
-22.33
-15.57
-8.18
-1.07
5.13
10.16
14.07
16.97
18.93
19.96
20.08
19.50
18.62
17.88
17.64
17.98
18.65
19.25
19.35
18.70
17.27
15.25
12.89
10.41
7.92
5.43
2.81
-0.13
-3.58
-7.69
-12.47
-17.76
-23.22
-28.35
-32.49
-34.91
-35.01
-32.45
-27.33
-20.28
-12.23
-4.25
2.78
8.27
12.01
14.06
14.59
13.84
12.17
10.04
8.02
6.70
6.51
7.53
9.44
11.59
13.22
13.74
12.89
10.82
7.98
4.87
1.88
-0.89
-3.58
-6.43
-9.69
-13.46
-17.72
-22.30
-26.85
-30.87
-33.69
-34.61
-33.04
-28.80
-22.21
-14.06
-5.37
2.80
9.70
14.88
18.18
19.68
19.58
18.31
16.43
14.70
13.72
13.90
15.17
17.06
18.86
19.92
19.84
18.61
16.45
13.69
10.61
7.40
4.15
0.90
-2.36
-5.73
-9.39
-13.51
-18.08
-22.78
-26.94
-29.67
-30.12
-27.81
-22.82
-15.73
-7.56
0.63
7.93
13.81
18.08
20.84
22.30
22.74
22.39
21.55
20.57
19.82
19.59
19.98
20.77
21.50
21.66
20.88
19.11
16.60
13.75
10.94
8.33
5.89
3.43
0.70
-2.59
-6.66
-11.63
-17.41
-23.57
-29.34
-33.69
-35.66
-34.61
-30.44
-23.66
-15.18
-6.13
2.49
9.92
15.74
19.83
22.25
23.20
22.97
21.91
20.44
19.02
18.07
17.88
18.40
19.28
19.94
19.79
18.48
16.06
12.93
9.66
6.71
4.25
2.04
-0.35
-3.45
-7.61
-12.95
-19.26
-26.03
-32.48
-37.65
-40.58
-40.53
-37.19
-30.83
-22.28
-12.67
-3.24
5.04
11.60
16.31
19.31
20.92
21.46
21.25
20.63
19.92
19.43
19.36
19.76
20.42
21.00
21.12
20.50
19.08
17.01
14.56
11.98
9.41
6.80
3.99
0.78
-3.05
-7.63
-12.99
-19.05
-25.50
-31.77
-36.99
-40.20
-40.56
-37.66
-31.64
-23.27
-13.69
-4.07
4.57
11.63
16.88
20.36
22.31
23.03
22.88
22.22
21.47
20.98
20.97
21.47
22.24
22.91
23.09
22.55
21.31
19.57
17.62
15.61
13.52
11.15
8.27
4.74
0.56
-4.16
-9.34
-14.96
-20.98
-27.15
-32.95
-37.47
-39.67
-38.75
-34.44
-27.16
-17.97
-8.22
0.84
8.36
14.04
17.99
20.53
21.98
22.50
22.23
21.37
20.25
19.34
19.05
19.56
20.65
21.84
22.56
22.40
21.24
19.28
16.82
14.09
11.18
8.03
4.55
0.73
-3.40
-7.76
-12.39
-17.36
-22.73
-28.32
-33.58
-37.61
-39.36
-38.02
-33.33
-25.75
-16.34
-6.43
2.83
10.62
16.60
20.72
23.06
23.77
23.07
21.41
19.41
17.78
17.09
17.56
18.98
20.78
22.25
22.77
21.99
19.85
16.64
12.78
8.73
4.83
1.27
-1.97
-5.01
-8.11
-11.55
-15.57
-20.33
-25.77
-31.43
-36.46
-39.77
-40.35
-37.61
-31.69
-23.40
-13.98
-4.74
3.34
9.68
14.13
16.77
17.76
17.28
15.57
13.04
10.31
8.08
6.92
7.08
8.31
9.97
11.24
11.55
10.65
8.75
6.29
3.69
1.22
-1.13
-3.51
-6.18
-9.40
-13.40
-18.29
-23.97
-30.00
-35.64
-39.89
-41.77
-40.61
-36.29
-29.23
-20.37
-10.85
-1.79
5.91
11.72
15.42
17.05
16.86
15.25
12.78
10.15
8.06
7.02
7.16
8.23
9.61
10.64
10.85
10.08
8.52
6.50
4.30
2.03
-0.39
-3.14
-6.38
-10.23
-14.73
-19.87
-25.44
-30.97
-35.71
-38.70
-38.99
-36.04
-29.93
-21.47
-11.93
-2.68
5.24
11.30
15.41
17.76
18.58
18.09
16.64
14.75
13.09
12.29
12.67
14.06
15.88
17.33
17.80
17.00
15.06
12.38
9.41
6.44
3.59
0.75
-2.34
-6.02
-10.59
-16.14
-22.42
-28.69
-33.87
-36.79
-36.51
-32.72
-25.84
-16.89
-7.18
2.07
9.98
16.13
20.37
22.77
23.49
22.82
21.25
19.42
17.97
17.39
17.76
18.76
19.80
20.28
19.79
18.28
16.01
13.40
10.83
8.49
6.35
4.12
1.45
-2.02
-6.40
-11.61
-17.25
-22.70
-27.18
-29.90
-30.15
-27.62
-22.42
-15.18
-6.89
1.35
8.63
14.39
18.43
20.80
21.68
21.31
20.05
18.39
16.91
16.08
16.09
16.74
17.58
18.00
17.56
16.10
13.80
11.02
8.19
5.59
3.17
0.64
-2.50
-6.70
-12.13
-18.53
-25.16
-31.03
-35.13
-36.66
-35.23
-30.94
-24.31
-16.15
-7.43
0.91
8.14
13.77
17.63
19.77
20.40
19.85
18.56
17.01
15.72
15.05
15.15
15.86
16.80
17.49
17.55
16.77
15.19
13.01
10.51
7.93
5.35
2.62
-0.56
-4.57
-9.63
-15.67
-22.26
-28.56
-33.61
-36.45
-36.45
-33.39
-27.64
-19.98
-11.47
-3.15
4.18
10.05
14.33
17.03
18.32
18.33
17.39
16.00
14.76
14.27
14.81
16.27
18.18
19.86
20.75
20.56
19.37
17.49
15.32
13.13
11.01
8.90
6.55
3.74
0.24
-4.10
-9.30
-15.15
-21.13
-26.48
-30.34
-31.94
-30.91
-27.38
-21.89
-15.29
-8.42
-1.98
3.58
8.03
11.33
13.58
15.01
15.83
16.25
16.45
16.53
16.62
16.83
17.20
17.69
18.08
18.07
17.37
15.83
13.52
10.70
7.78
5.05
2.74
0.78
-1.07
-3.20
-5.94
-9.46
-13.66
-18.17
-22.43
-25.74
-27.47
-27.13
-24.52
-19.79
-13.54
-6.61
0.08
5.82
10.22
13.31
15.25
16.25
16.46
15.92
14.78
13.35
12.07
11.33
11.33
11.93
12.74
13.28
13.23
12.55
11.44
10.14
8.79
7.32
5.54
3.23
0.32
-3.15
-7.02
-11.17
-15.49
-19.83
-23.86
-27.07
-28.81
-28.54
-26.06
-21.60
-15.80
-9.51
-3.47
1.83
6.18
9.56
11.98
13.44
13.95
13.61
12.72
11.72
11.08
11.07
11.67
12.58
13.36
13.59
13.06
11.79
10.00
7.96
5.86
3.80
1.72
-0.43
-2.70
-5.08
-7.58
-10.24
-13.19
-16.49
-20.09
-23.65
-26.56
-28.19
-28.01
-25.87
-22.07
-17.20
-11.97
-7.02
-2.75
0.60
2.91
4.13
4.33
3.71
2.63
1.56
0.93
1.00
1.73
2.90
4.12
5.03
5.35
4.93
3.76
1.95
-0.30
-2.76
-5.23
-7.61
-9.94
-12.33
-14.96
-17.99
-21.45
-25.26
-29.15
-32.66
-35.17
-36.09
-34.95
-31.62
-26.39
-19.91
-12.98
-6.38
-0.67
3.88
7.20
9.39
10.52
10.75
10.28
9.39
8.45
7.79
7.65
8.10
8.95
9.89
10.58
10.76
10.34
9.38
8.04
6.48
4.84
3.12
1.20
-1.10
-3.99
-7.64
-12.02
-16.90
-21.84
-26.23
-29.38
-30.70
-29.82
-26.70
-21.71
-15.52
-9.03
-3.04
1.84
5.38
7.60
8.76
9.11
8.91
8.43
7.98
7.86
8.28
9.22
10.43
11.46
11.89
11.53
10.43
8.84
7.04
5.25
3.51
1.76
-0.10
-2.19
-4.66
-7.63
-11.25
-15.51
-20.24
-24.97
-29.01
-31.56
-31.97
-29.94
-25.65
-19.73
-13.04
-6.44
-0.56
4.37
8.32
11.39
13.64
15.09
15.74
15.68
15.16
14.49
13.96
13.69
13.67
13.72
13.62
13.18
12.28
10.92
9.18
7.21
5.12
2.97
0.73
-1.72
-4.48
-7.69
-11.40
-15.64
-20.30
-25.12
-29.61
-33.12
-34.88
-34.27
-31.05
-25.47
-18.33
-10.67
-3.48
2.58
7.32
10.83
13.32
14.89
15.54
15.27
14.29
13.03
12.06
11.79
12.33
13.38
14.37
14.74
14.14
12.56
10.27
7.66
5.12
2.81
0.65
-1.60
-4.31
-7.77
-12.10
-17.26
-23.00
-28.93
-34.52
-39.12
-41.99
-42.41
-39.94
-34.61
-27.04
-18.32
-9.64
-1.94
4.27
8.94
12.29
14.59
16.04
16.78
17.02
17.02
17.07
17.41
18.14
19.22
20.48
21.65
22.39
22.33
21.20
18.90
15.67
11.94
8.18
4.73
1.63
-1.37
-4.67
-8.64
-13.49
-19.18
-25.41
-31.63
-37.07
-40.86
-42.20
-40.59
-35.95
-28.78
-20.00
-10.73
-2.00
5.46
11.31
15.58
18.49
20.33
21.34
21.72
21.73
21.68
21.93
22.74
24.18
26.04
27.85
29.01
29.09
27.90
25.58
22.56
19.34
16.34
13.73
11.36
8.89
5.86
1.91
-3.12
-9.03
-15.24
-20.82
-24.59
-25.43
-22.64
-16.23
-7.05
3.34
13.19
21.03
26.14
28.67
29.40
29.38
29.43
29.93
30.81
31.78
32.53
32.96
33.20
33.46
33.90
34.39
34.56
33.95
32.18
29.22
25.40
21.25
17.21
13.52
10.02
6.38
2.32
-2.25
-7.20
-12.29
-17.38
-22.44
-27.44
-32.12
-35.87
-37.80
-37.07
-33.26
-26.70
-18.35
-9.53
-1.45
5.11
9.88
13.03
14.85
15.61
15.51
14.76
13.67
12.61
11.97
11.99
12.68
13.75
14.74
15.15
14.58
12.93
10.38
7.39
4.48
1.99
0.00
-1.73
-3.59
-5.95
-9.01
-12.80
-17.22
-22.08
-27.12
-31.89
-35.69
-37.73
-37.28
-34.05
-28.28
-20.73
-12.50
-4.66
1.96
6.90
10.01
11.40
11.31
10.13
8.30
6.35
4.76
3.91
3.92
4.66
5.74
6.73
7.19
6.93
5.95
4.44
2.68
0.84
-1.06
-3.12
-5.53
-8.47
-12.00
-16.09
-20.64
-25.44
-30.06
-33.88
-36.06
-35.82
-32.63
-26.57
-18.38
-9.27
-0.58
6.66
11.93
15.19
16.71
16.78
15.69
13.76
11.44
9.30
7.87
7.44
7.84
8.52
8.74
7.88
5.70
2.42
-1.35
-4.90
-7.60
-9.16
-9.77
-9.94
-10.35
-11.64
-14.14
-17.79
-22.20
-26.75
-30.66
-33.16
-33.57
-31.47
-26.80
-19.99
-11.80
-3.22
4.82
11.66
16.98
20.70
22.86
23.63
23.18
21.87
20.14
18.47
17.25
16.62
16.38
16.14
15.40
13.85
11.51
8.71
5.96
3.69
2.03
0.76
-0.58
-2.42
-5.12
-8.73
-13.15
-18.05
-23.00
-27.30
-30.13
-30.64
-28.32
-23.16
-15.82
-7.37
0.98
8.32
14.16
18.45
21.37
23.13
23.93
23.90
23.23
22.20
21.16
20.46
20.26
20.52
20.98
21.26
21.06
20.26
18.96
17.37
15.65
13.74
11.41
8.35
4.35
-0.55
-6.09
-11.86
-17.45
-22.43
-26.33
-28.61
-28.77
-26.49
-21.83
-15.30
-7.82
-0.35
6.26
11.56
15.39
17.79
18.87
18.78
17.70
15.99
14.19
12.90
12.55
13.21
14.52
15.84
16.53
16.26
15.08
13.34
11.41
9.51
7.65
5.66
3.36
0.65
-2.51
-6.14
-10.27
-14.90
-19.82
-24.43
-27.88
-29.23
-27.87
-23.75
-17.50
-10.15
-2.86
3.52
8.52
12.03
14.14
14.95
14.60
13.33
11.58
9.96
9.07
9.28
10.58
12.56
14.62
16.13
16.74
16.28
14.86
12.68
9.99
6.99
3.88
0.78
-2.34
-5.57
-9.10
-13.07
-17.48
-22.02
-26.17
-29.20
-30.44
-29.47
-26.29
-21.37
-15.50
-9.51
-4.10
0.42
4.01
6.79
8.80
9.99
10.33
9.88
8.97
8.08
7.64
7.90
8.75
9.82
10.67
10.94
10.46
9.27
7.50
5.41
3.24
1.17
-0.67
-2.34
-4.02
-5.97
-8.46
-11.63
-15.45
-19.60
-23.56
-26.64
-28.20
-27.81
-25.37
-21.19
-15.86
-10.07
-4.45
0.50
4.43
7.12
8.46
8.53
7.60
6.13
4.67
3.73
3.62
4.34
5.62
7.04
8.09
8.40
7.84
6.56
4.94
3.34
1.95
0.70
-0.70
-2.55
-5.05
-8.16
-11.73
-15.60
-19.62
-23.59
-27.13
-29.63
-30.44
-29.05
-25.44
-20.09
-13.84
-7.55
-1.94
2.67
6.15
8.52
9.76
9.89
9.08
7.69
6.25
5.34
5.32
6.21
7.67
9.13
10.05
10.13
9.39
8.07
6.53
5.03
3.68
2.40
1.06
-0.55
-2.69
-5.63
-9.53
-14.29
-19.47
-24.27
-27.76
-29.10
-27.85
-24.11
-18.45
-11.70
-4.84
1.36
6.34
9.91
12.06
13.02
13.04
12.39
11.39
10.39
9.82
10.04
11.11
12.73
14.26
14.98
14.40
12.53
9.76
6.69
3.83
1.41
-0.60
-2.41
-4.34
-6.74
-9.91
-14.00
-18.96
-24.35
-29.38
-33.14
-34.81
-33.95
-30.65
-25.49
-19.33
-13.08
-7.44
-2.75
0.93
3.79
5.99
7.62
8.64
9.08
9.05
8.85
8.84
9.24
10.10
11.20
12.17
12.70
12.55
11.66
10.20
8.35
6.35
4.31
2.19
-0.22
-3.18
-6.87
-11.40
-16.59
-22.12
-27.54
-32.28
-35.72
-37.26
-36.44
-33.16
-27.80
-21.10
-13.98
-7.28
-1.45
3.44
7.52
11.00
13.86
15.98
17.19
17.44
17.00
16.32
15.92
16.17
17.13
18.53
19.88
20.78
20.95
20.33
19.04
17.20
14.85
11.96
8.51
4.52
0.07
-4.74
-9.79
-15.01
-20.23
-25.16
-29.29
-32.07
-32.91
-31.40
-27.46
-21.35
-13.70
-5.40
2.59
9.49
14.84
18.58
20.92
22.15
22.48
22.07
21.11
19.90
18.91
18.58
19.15
20.44
21.92
22.93
22.97
21.79
19.52
16.50
13.15
9.81
6.72
3.97
1.47
-1.01
-3.83
-7.34
-11.74
-16.99
-22.71
-28.18
-32.48
-34.69
-34.13
-30.60
-24.48
-16.69
-8.47
-0.92
5.18
9.55
12.30
13.75
14.20
13.98
13.34
12.65
12.33
12.71
13.89
15.62
17.33
18.38
18.30
16.96
14.63
11.78
8.90
6.34
4.17
2.25
0.34
-1.81
-4.40
-7.62
-11.65
-16.55
-22.13
-27.89
-32.95
-36.24
-36.87
-34.45
-29.27
-22.19
-14.30
-6.64
0.10
5.60
9.75
12.51
13.85
13.83
12.73
11.06
9.51
8.75
9.14
10.63
12.72
14.77
16.13
16.50
15.90
14.61
13.02
11.37
9.73
7.94
5.84
3.20
-0.14
-4.26
-9.19
-14.78
-20.67
-26.21
-30.59
-32.95
-32.70
-29.68
-24.25
-17.21
-9.56
-2.24
4.11
9.13
12.77
15.09
16.22
16.34
15.73
14.84
14.23
14.38
15.50
17.44
19.66
21.45
22.24
21.78
20.20
17.87
15.23
12.56
9.95
7.29
4.41
1.11
-2.73
-7.15
-12.08
-17.36
-22.61
-27.29
-30.68
-32.10
-31.07
-27.56
-21.94
-14.95
-7.47
-0.28
6.05
11.24
15.20
18.01
19.79
20.74
21.10
21.11
20.95
20.77
20.70
20.77
20.94
21.06
20.87
20.12
18.65
16.58
14.23
12.00
10.13
8.56
6.88
4.55
1.11
-3.59
-9.32
-15.52
-21.40
-26.17
-29.17
-29.92
-28.29
-24.46
-18.95
-12.46
-5.74
0.59
6.10
10.59
14.03
16.48
18.02
18.72
18.66
18.07
17.25
16.61
16.47
16.92
17.71
18.34
18.29
17.26
15.31
12.84
10.27
7.94
5.82
3.64
1.06
-2.22
-6.28
-11.08
-16.44
-22.06
-27.43
-31.92
-34.74
-35.28
-33.23
-28.83
-22.72
-15.74
-8.73
-2.24
3.40
8.06
11.67
14.19
15.58
15.93
15.52
14.74
14.07
13.90
14.38
15.42
16.68
17.71
18.12
17.71
16.48
14.61
12.33
9.82
7.21
4.55
1.90
-0.70
-3.29
-5.99
-9.01
-12.56
-16.65
-20.98
-24.89
-27.49
-27.97
-25.91
-21.45
-15.31
-8.55
-2.20
3.05
6.92
9.53
11.19
12.14
12.54
12.50
12.22
12.05
12.40
13.55
15.44
17.62
19.46
20.34
20.00
18.57
16.50
14.29
12.27
10.53
8.93
7.30
5.54
3.56
1.30
-1.38
-4.60
-8.38
-12.53
-16.60
-19.98
-22.03
-22.31
-20.68
-17.37
-12.87
-7.86
-3.05
1.08
4.27
6.56
8.15
9.27
10.05
10.52
10.66
10.57
10.41
10.40
10.64
11.03
11.31
11.17
10.51
9.40
8.08
6.79
5.61
4.37
2.86
0.89
-1.62
-4.59
-7.93
-11.56
-15.48
-19.67
-23.97
-28.02
-31.28
-33.15
-33.18
-31.22
-27.49
-22.52
-17.01
-11.64
-6.88
-2.94
0.15
2.45
4.01
4.82
4.90
4.31
3.29
2.16
1.26
0.83
0.98
1.58
2.39
3.10
3.47
3.29
2.56
1.30
-0.38
-2.37
-4.58
-6.93
-9.40
-11.96
-14.72
-17.80
-21.33
-25.25
-29.21
-32.56
-34.52
-34.37
-31.78
-26.92
-20.42
-13.18
-6.14
-0.04
4.72
8.04
10.03
10.94
11.07
10.72
10.22
9.84
9.88
10.46
11.54
12.89
14.17
15.01
15.13
14.47
13.11
11.24
9.05
6.72
4.38
2.08
-0.13
-2.36
-4.74
-7.46
-10.63
-14.18
-17.85
-21.12
-23.33
-23.90
-22.44
-18.94
-13.81
-7.74
-1.50
4.22
9.01
12.71
15.35
17.01
17.81
17.91
17.55
17.05
16.77
16.95
17.68
18.75
19.74
20.19
19.70
18.20
15.84
13.00
10.09
7.43
5.17
3.24
1.46
-0.44
-2.73
-5.67
-9.43
-14.02
-19.16
-24.33
-28.78
-31.72
-32.50
-30.79
-26.68
-20.71
-13.75
-6.77
-0.61
4.29
7.83
10.21
11.77
12.76
13.32
13.50
13.35
13.00
12.64
12.44
12.44
12.60
12.74
12.71
12.42
11.84
11.01
10.01
8.83
7.45
5.74
3.54
0.74
-2.68
-6.70
-11.21
-16.13
-21.37
-26.76
-31.94
-36.30
-39.07
-39.56
-37.44
-32.87
-26.55
-19.45
-12.46
-6.14
-0.62
4.21
8.45
12.01
14.67
16.18
16.50
15.92
14.91
14.01
13.54
13.58
13.94
14.31
14.41
14.08
13.25
11.89
10.02
7.63
4.74
1.43
-2.17
-5.84
-9.42
-12.85
-16.29
-20.05
-24.51
-29.83
-35.77
-41.55
-46.07
-48.18
-47.17
-42.96
-36.13
-27.69
-18.74
-10.24
-2.80
3.29
7.94
11.26
13.51
14.91
15.74
16.21
16.53
16.85
17.34
18.11
19.14
20.30
21.28
21.74
21.43
20.26
18.29
15.78
12.93
9.95
6.94
3.92
0.88
-2.29
-5.73
-9.72
-14.56
-20.40
-27.04
-33.74
-39.32
-42.41
-41.98
-37.69
-30.09
-20.40
-10.13
-0.64
7.21
13.08
17.06
19.50
20.81
21.35
21.45
21.39
21.36
21.53
21.92
22.51
23.14
23.64
23.79
23.44
22.52
21.03
19.06
16.68
13.91
10.80
7.34
3.58
-0.42
-4.59
-8.97
-13.67
-18.84
-24.55
-30.59
-36.32
-40.76
-42.80
-41.60
-36.90
-29.18
-19.52
-9.28
0.36
8.58
15.01
19.53
22.18
23.06
22.46
20.85
18.90
17.34
16.72
17.27
18.81
20.85
22.73
23.84
23.81
22.55
20.25
17.31
14.09
10.84
7.59
4.16
0.34
-4.05
-9.08
-14.72
-20.92
-27.48
-34.04
-39.95
-44.29
-46.05
-44.47
-39.38
-31.27
-21.25
-10.74
-1.01
7.06
13.09
17.09
19.26
19.87
19.25
17.85
16.27
15.20
15.17
16.34
18.38
20.62
22.24
22.62
21.56
19.17
15.88
12.20
8.53
5.06
1.80
-1.46
-4.99
-9.14
-14.13
-20.00
-26.48
-32.99
-38.61
-42.30
-43.04
-40.20
-33.70
-24.20
-12.91
-1.32
9.19
17.68
23.72
27.35
28.84
28.61
27.14
24.98
22.83
21.36
21.07
22.03
23.81
25.65
26.70
26.38
24.56
21.58
18.02
14.48
11.32
8.51
5.74
2.49
-1.74
-7.32
-14.31
-22.43
-30.94
-38.75
-44.55
-47.03
-45.33
-39.29
-29.61
-17.62
-5.03
6.62
16.31
23.56
28.38
31.05
31.91
31.37
29.88
28.01
26.39
25.52
25.59
26.42
27.48
28.09
27.68
26.00
23.17
19.58
15.73
12.02
8.58
5.24
1.65
-2.57
-7.81
-14.22
-21.73
-29.86
-37.74
-44.10
-47.62
-47.22
-42.51
-33.98
-22.95
-11.11
-0.04
9.23
16.33
21.37
24.62
26.34
26.67
25.85
24.30
22.69
21.74
21.94
23.31
25.33
27.23
28.20
27.82
26.08
23.36
20.13
16.79
13.46
10.06
6.37
2.16
-2.74
-8.40
-14.73
-21.44
-27.92
-33.29
-36.52
-36.68
-33.34
-26.72
-17.76
-7.74
2.00
10.44
17.07
21.75
24.63
25.89
25.77
24.61
22.87
21.22
20.27
20.44
21.74
23.72
25.67
26.90
26.89
25.50
22.95
19.68
16.16
12.77
9.67
6.74
3.72
0.26
-3.95
-9.03
-14.84
-20.89
-26.39
-30.35
-31.83
-30.30
-25.78
-18.99
-11.00
-3.03
4.03
9.74
14.09
17.26
19.39
20.48
20.49
19.51
17.91
16.33
15.44
15.63
16.80
18.41
19.71
20.06
19.29
17.60
15.48
13.25
11.01
8.54
5.56
1.90
-2.40
-7.12
-12.07
-17.10
-22.12
-26.92
-30.98
-33.57
-33.88
-31.44
-26.34
-19.26
-11.27
-3.45
3.43
8.99
13.16
15.94
17.34
17.36
16.22
14.34
12.42
11.09
10.75
11.35
12.48
13.58
14.13
13.84
12.72
10.94
8.78
6.46
4.12
1.75
-0.80
-3.77
-7.38
-11.76
-16.85
-22.31
-27.56
-31.82
-34.32
-34.42
-31.88
-26.92
-20.22
-12.74
-5.42
0.99
6.13
9.93
12.49
13.95
14.45
14.17
13.41
12.60
12.16
12.37
13.22
14.37
15.33
15.69
15.25
14.06
12.39
10.51
8.60
6.66
4.58
2.19
-0.64
-4.00
-7.86
-12.13
-16.60
-20.92
-24.59
-27.02
-27.67
-26.20
-22.62
-17.39
-11.28
-5.14
0.30
4.62
7.71
9.68
10.68
10.82
10.23
9.18
8.09
7.42
7.53
8.48
9.95
11.41
12.27
12.22
11.26
9.63
7.67
5.60
3.49
1.21
-1.37
-4.42
-8.01
-12.17
-16.82
-21.70
-26.42
-30.37
-32.92
-33.56
-32.04
-28.53
-23.49
-17.60
-11.56
-5.99
-1.23
2.48
5.12
6.72
7.38
7.27
6.64
5.83
5.24
5.20
5.86
7.12
8.56
9.67
9.96
9.14
7.28
4.72
1.97
-0.53
-2.51
-3.96
-5.12
-6.35
-8.06
-10.51
-13.80
-17.74
-21.93
-25.71
-28.37
-29.27
-28.02
-24.71
-19.82
-14.14
-8.51
-3.58
0.33
3.20
5.19
6.49
7.22
7.50
7.47
7.33
7.33
7.61
8.16
8.79
9.23
9.22
8.62
7.50
6.08
4.65
3.45
2.53
1.81
1.01
-0.19
-2.01
-4.54
-7.73
-11.41
-15.34
-19.25
-22.72
-25.29
-26.46
-25.83
-23.32
-19.17
-13.98
-8.51
-3.43
0.77
3.88
5.94
7.09
7.45
7.19
6.48
5.58
4.81
4.49
4.78
5.62
6.73
7.70
8.18
7.99
7.17
5.96
4.60
3.25
1.82
0.13
-2.10
-5.00
-8.59
-12.68
-17.00
-21.31
-25.37
-28.96
-31.72
-33.21
-32.98
-30.74
-26.60
-21.11
-15.05
-9.26
-4.35
-0.58
2.03
3.65
4.44
4.55
4.20
3.66
3.24
3.26
3.86
4.97
6.27
7.36
7.83
7.54
6.56
5.19
3.73
2.34
1.00
-0.49
-2.39
-4.82
-7.77
-11.11
-14.67
-18.24
-21.58
-24.31
-25.95
-26.01
-24.17
-20.48
-15.40
-9.63
-3.93
1.11
5.19
8.26
10.36
11.62
12.12
12.02
11.52
10.92
10.51
10.52
11.02
11.81
12.60
13.04
12.88
12.09
10.83
9.29
7.66
6.01
4.27
2.32
-0.00
-2.83
-6.23
-10.23
-14.71
-19.33
-23.49
-26.46
-27.50
-26.18
-22.59
-17.30
-11.19
-5.20
0.03
4.27
7.60
10.24
12.34
13.87
14.74
14.91
14.58
14.11
13.94
14.30
15.14
16.11
16.73
16.60
15.59
13.80
11.52
9.02
6.43
3.76
0.97
-2.06
-5.41
-9.18
-13.42
-18.12
-23.09
-27.87
-31.79
-34.07
-34.15
-31.83
-27.41
-21.58
-15.14
-8.82
-3.07
1.87
5.85
8.79
10.62
11.31
11.06
10.22
9.28
8.70
8.76
9.46
10.56
11.63
12.26
12.12
11.12
9.37
7.15
4.77
2.43
0.19
-2.07
-4.58
-7.59
-11.31
-15.79
-20.78
-25.73
-29.86
-32.26
-32.22
-29.49
-24.40
-17.86
-10.99
-4.75
0.29
4.13
7.01
9.24
10.86
11.75
11.77
11.05
10.10
9.66
10.31
12.17
14.76
17.19
18.63
18.63
17.27
15.05
12.50
10.02
7.72
5.47
3.08
0.38
-2.77
-6.52
-10.99
-16.23
-21.97
-27.64
-32.36
-35.16
-35.28
-32.38
-26.75
-19.17
-10.72
-2.53
4.51
9.88
13.49
15.57
16.52
16.79
16.76
16.75
17.00
17.69
18.89
20.53
22.37
24.01
25.05
25.14
24.21
22.40
20.07
17.56
15.14
12.80
10.39
7.61
4.19
0.01
-4.83
-9.99
-14.95
-19.05
-21.65
-22.21
-20.47
-16.57
-11.04
-4.69
1.58
7.02
11.17
13.92
15.36
15.69
15.12
13.88
12.24
10.61
9.39
8.93
9.32
10.31
11.42
12.09
11.92
10.81
8.98
6.82
4.72
2.83
1.05
-0.96
-3.55
-6.99
-11.25
-16.17
-21.34
-26.26
-30.31
-32.84
-33.31
-31.42
-27.25
-21.31
-14.38
-7.31
-0.83
4.62
8.81
11.70
13.37
14.01
13.94
13.61
13.43
13.68
14.34
15.17
15.77
15.79
15.07
13.64
11.73
9.63
7.53
5.52
3.52
1.33
-1.25
-4.41
-8.21
-12.63
-17.47
-22.35
-26.69
-29.74
-30.71
-29.06
-24.72
-18.22
-10.60
-3.05
3.46
8.44
11.85
13.99
15.15
15.56
15.35
14.69
13.89
13.33
13.36
14.04
15.01
15.72
15.62
14.44
12.34
9.82
7.41
5.39
3.72
2.02
-0.15
-3.10
-6.98
-11.73
-17.12
-22.80
-28.15
-32.33
-34.41
-33.64
-29.80
-23.33
-15.22
-6.68
1.23
7.85
12.90
16.38
18.37
18.98
18.37
16.85
14.92
13.12
11.95
11.64
12.05
12.78
13.24
12.94
11.74
9.74
7.34
4.90
2.60
0.34
-2.15
-5.24
-9.16
-13.97
-19.50
-25.41
-31.17
-36.06
-39.22
-39.88
-37.54
-32.23
-24.56
-15.57
-6.46
1.74
8.39
13.27
16.45
18.18
18.75
18.43
17.56
16.48
15.56
15.04
14.98
15.24
15.55
15.60
15.16
14.16
12.67
10.84
8.81
6.61
4.21
1.42
-2.00
-6.25
-11.41
-17.31
-23.51
-29.32
-33.87
-36.33
-36.08
-32.89
-27.02
-19.13
-10.20
-1.23
6.88
13.52
18.37
21.30
22.39
21.88
20.25
18.13
16.27
15.30
15.48
16.65
18.28
19.67
20.28
19.82
18.30
16.02
13.29
10.42
7.57
4.78
1.99
-0.98
-4.39
-8.51
-13.45
-19.06
-24.79
-29.69
-32.71
-32.94
-29.97
-24.10
-16.16
-7.32
1.28
8.80
14.77
19.05
21.66
22.75
22.52
21.37
19.85
18.61
18.23
19.01
20.80
23.08
25.08
26.08
25.63
23.72
20.74
17.19
13.61
10.26
7.16
4.17
1.05
-2.37
-6.25
-10.66
-15.57
-20.71
-25.50
-29.06
-30.40
-28.79
-24.06
-16.78
-8.10
0.58
8.10
13.85
17.77
20.17
21.42
21.82
21.50
20.65
19.59
18.74
18.50
19.04
20.23
21.63
22.69
22.98
22.25
20.53
18.05
15.13
12.08
9.11
6.24
3.30
-0.01
-4.03
-8.93
-14.58
-20.54
-26.06
-30.26
-32.31
-31.67
-28.24
-22.35
-14.80
-6.60
1.19
7.74
12.50
15.33
16.35
15.92
14.53
12.72
11.02
9.89
9.58
10.12
11.21
12.37
13.04
12.85
11.71
9.78
7.45
5.04
2.76
0.61
-1.57
-4.01
-6.94
-10.57
-15.01
-20.16
-25.64
-30.71
-34.42
-35.85
-34.40
-30.04
-23.33
-15.27
-7.02
0.34
6.11
9.99
12.05
12.64
12.20
11.17
9.97
8.97
8.46
8.58
9.26
10.18
10.90
11.04
10.42
9.19
7.64
6.08
4.63
3.20
1.54
-0.59
-3.44
-7.13
-11.67
-16.96
-22.62
-28.03
-32.28
-34.44
-33.81
-30.18
-23.92
-15.88
-7.21
0.99
7.87
12.94
16.13
17.67
17.96
17.53
16.86
16.32
16.16
16.42
16.93
17.40
17.52
17.05
15.92
14.26
12.32
10.38
8.58
6.79
4.76
2.11
-1.43
-5.97
-11.40
-17.41
-23.48
-28.97
-33.13
-35.30
-34.99
-32.11
-26.97
-20.29
-12.95
-5.79
0.62
5.98
10.22
13.34
15.36
16.29
16.21
15.35
14.17
13.16
12.74
13.04
13.85
14.69
15.07
14.65
13.43
11.65
9.64
7.61
5.59
3.44
0.89
-2.30
-6.27
-10.94
-15.99
-20.82
-24.64
-26.64
-26.25
-23.35
-18.32
-11.90
-5.00
1.57
7.29
11.88
15.21
17.23
17.97
17.59
16.47
15.12
14.12
13.85
14.38
15.39
16.38
16.88
16.60
15.57
14.04
12.27
10.46
8.63
6.67
4.43
1.72
-1.59
-5.57
-10.13
-14.97
-19.53
-23.13
-25.05
-24.83
-22.36
-17.97
-12.29
-6.14
-0.26
4.77
8.66
11.39
13.08
13.96
14.24
14.14
13.92
13.82
14.08
14.79
15.78
16.70
17.08
16.58
15.11
12.90
10.34
7.82
5.55
3.52
1.53
-0.65
-3.22
-6.33
-9.94
-13.96
-18.08
-21.84
-24.69
-26.12
-25.82
-23.76
-20.23
-15.75
-10.91
-6.27
-2.23
0.96
3.24
4.63
5.20
5.09
4.50
3.76
3.23
3.25
3.97
5.25
6.69
7.72
7.91
7.11
5.49
3.40
1.22
-0.88
-2.88
-4.91
-7.04
-9.27
-11.57
-13.95
-16.43
-19.02
-21.50
-23.47
-24.32
-23.55
-20.94
-16.73
-11.54
-6.12
-1.11
3.11
6.45
8.96
10.74
11.85
12.34
12.34
12.06
11.79
11.75
12.00
12.42
12.73
12.65
12.00
10.80
9.18
7.35
5.42
3.38
1.10
-1.56
-4.65
-8.07
-11.57
-14.84
-17.57
-19.54
-20.58
-20.60
-19.50
-17.27
-14.02
-9.95
-5.41
-0.78
3.52
7.21
10.10
12.17
13.45
14.11
14.30
14.15
13.73
13.09
12.30
11.48
10.77
10.29
10.02
9.81
9.46
8.77
7.70
6.37
4.89
3.32
1.57
-0.47
-2.91
-5.75
-8.88
-12.13
-15.33
-18.21
-20.45
-21.62
-21.41
-19.68
-16.56
-12.45
-7.87
-3.29
0.99
4.84
8.27
11.24
13.67
15.37
16.15
15.97
14.98
13.57
12.24
11.45
11.38
11.90
12.57
12.94
12.63
11.58
9.91
7.88
5.66
3.35
0.94
-1.55
-4.09
-6.63
-9.21
-11.96
-15.09
-18.67
-22.54
-26.21
-29.03
-30.36
-29.81
-27.41
-23.49
-18.65
-13.49
-8.51
-4.11
-0.50
2.16
3.87
4.73
4.97
4.90
4.89
5.16
5.82
6.78
7.85
8.82
9.56
9.99
10.04
9.64
8.70
7.21
5.20
2.90
0.58
-1.56
-3.38
-4.92
-6.32
-7.77
-9.47
-11.61
-14.29
-17.50
-21.06
-24.57
-27.54
-29.43
-29.85
-28.65
-26.02
-22.34
-18.16
-13.96
-10.03
-6.48
-3.24
-0.18
2.72
5.38
7.67
9.48
10.79
11.67
12.20
12.44
12.40
12.12
11.68
11.29
11.08
11.16
11.40
11.59
11.39
10.55
8.98
6.81
4.32
1.84
-0.41
-2.43
-4.38
-6.56
-9.21
-12.46
-16.19
-20.19
-24.07
-27.38
-29.61
-30.34
-29.26
-26.35
-21.92
-16.59
-11.09
-6.07
-1.96
1.14
3.30
4.76
5.73
6.40
6.96
7.55
8.32
9.36
10.68
12.13
13.46
14.42
14.78
14.42
13.33
11.55
9.03
5.70
1.46
-3.65
-9.31
-14.97
-19.95
-23.73
-26.14
-27.42
-28.08
-28.69
-29.63
-31.05
-32.88
-34.86
-36.59
-37.70
-37.78
-36.58
-34.02
-30.25
-25.58
-20.35
-14.84
-9.26
-3.78
1.38
5.93
9.65
12.47
14.51
16.05
17.39
18.74
20.14
21.58
22.97
24.27
25.40
26.27
26.72
26.59
25.69
23.94
21.40
18.25
14.78
11.27
7.95
4.87
1.90
-1.22
-4.79
-9.04
-14.03
-19.58
-25.21
-30.22
-33.77
-35.13
-33.89
-30.07
-24.21
-17.22
-10.08
-3.68
1.44
5.04
7.18
8.09
8.08
7.55
6.91
6.58
6.81
7.67
9.01
10.53
11.88
12.77
13.07
12.82
12.10
11.05
9.72
8.11
6.15
3.76
0.91
-2.26
-5.60
-8.89
-12.06
-15.22
-18.57
-22.32
-26.42
-30.53
-33.97
-36.02
-36.08
-33.87
-29.57
-23.65
-16.81
-9.76
-3.10
2.76
7.59
11.29
13.87
15.43
16.17
16.34
16.27
16.24
16.44
16.92
17.56
18.20
18.63
18.73
18.36
17.40
15.76
13.40
10.38
6.95
3.40
0.05
-2.97
-5.70
-8.41
-11.44
-15.13
-19.58
-24.62
-29.69
-33.95
-36.43
-36.38
-33.47
-27.95
-20.58
-12.39
-4.40
2.66
8.45
12.90
16.13
18.24
19.35
19.59
19.18
18.48
17.89
17.71
18.06
18.78
19.51
19.91
19.73
18.94
17.60
15.84
13.66
11.03
7.90
4.38
0.63
-3.13
-6.82
-10.66
-14.92
-19.83
-25.20
-30.31
-34.03
-35.22
-33.16
-27.92
-20.30
-11.54
-2.91
4.77
11.15
16.31
20.41
23.51
25.52
26.36
26.09
25.04
23.74
22.76
22.45
22.90
23.86
24.88
25.46
25.29
24.28
22.57
20.39
18.00
15.51
12.89
10.03
6.75
2.92
-1.51
-6.53
-12.00
-17.64
-22.92
-27.16
-29.54
-29.36
-26.25
-20.36
-12.38
-3.40
5.44
13.16
19.20
23.41
25.99
27.26
27.58
27.23
26.52
25.80
25.39
25.56
26.33
27.44
28.35
28.50
27.44
25.13
21.90
18.31
14.89
11.91
9.25
6.57
3.43
-0.48
-5.31
-10.98
-17.28
-23.82
-30.00
-35.03
-38.02
-38.20
-35.22
-29.36
-21.42
-12.59
-4.09
3.23
8.96
13.15
16.07
18.04
19.26
19.84
19.90
19.65
19.41
19.48
20.03
21.03
22.20
23.18
23.59
23.21
21.97
19.98
17.41
14.41
11.09
7.48
3.54
-0.78
-5.47
-10.49
-15.75
-21.13
-26.43
-31.27
-35.08
-37.12
-36.72
-33.51
-27.63
-19.81
-11.11
-2.64
4.77
10.63
14.83
17.50
18.83
19.08
18.54
17.65
16.85
16.57
16.99
18.09
19.57
21.01
21.95
22.06
21.22
19.53
17.23
14.62
11.93
9.23
6.44
3.41
-0.03
-3.95
-8.38
-13.21
-18.25
-23.11
-27.23
-29.95
-30.60
-28.73
-24.30
-17.76
-9.93
-1.80
5.69
11.91
16.50
19.47
21.00
21.40
20.99
20.14
19.21
18.56
18.51
19.20
20.56
22.25
23.76
24.59
24.39
23.08
20.89
18.18
15.29
12.44
9.67
6.87
3.86
0.47
-3.42
-7.87
-12.89
-18.37
-23.98
-29.14
-33.01
-34.63
-33.33
-28.97
-22.14
-13.96
-5.81
1.20
6.44
9.84
11.66
12.31
12.12
11.39
10.41
9.50
8.98
8.99
9.47
10.19
10.82
11.14
11.10
10.73
10.10
9.23
8.10
6.68
4.97
2.98
0.72
-1.87
-4.92
-8.55
-12.80
-17.53
-22.37
-26.73
-29.92
-31.24
-30.26
-26.88
-21.43
-14.58
-7.12
0.15
6.59
11.78
15.46
17.50
17.96
17.05
15.15
12.76
10.45
8.65
7.65
7.48
7.90
8.52
8.89
8.69
7.77
6.23
4.23
1.98
-0.44
-2.99
-5.67
-8.42
-11.20
-13.99
-16.91
-20.11
-23.62
-27.22
-30.36
-32.26
-32.22
-29.85
-25.29
-19.11
-12.13
-5.11
1.38
7.01
11.67
15.27
17.72
18.96
19.02
18.20
16.99
15.97
15.60
16.07
17.13
18.32
19.08
19.04
18.06
16.34
14.19
11.88
9.54
7.09
4.38
1.25
-2.43
-6.71
-11.59
-17.01
-22.71
-28.18
-32.72
-35.47
-35.80
-33.47
-28.73
-22.30
-15.05
-7.82
-1.22
4.35
8.66
11.59
13.11
13.33
12.57
11.28
9.94
8.93
8.48
8.62
9.21
10.02
10.74
11.07
10.81
9.86
8.31
6.35
4.21
2.00
-0.30
-2.81
-5.73
-9.21
-13.34
-18.01
-22.91
-27.52
-31.13
-33.03
-32.65
-29.77
-24.62
-17.83
-10.29
-2.90
3.60
8.84
12.73
15.44
17.24
18.32
18.79
18.75
18.32
17.73
17.29
17.21
17.56
18.18
18.72
18.81
18.22
16.91
15.00
12.75
10.36
7.97
5.60
3.15
0.43
-2.76
-6.60
-11.15
-16.24
-21.47
-26.17
-29.57
-30.92
-29.79
-26.19
-20.64
-14.01
-7.27
-1.24
3.67
7.36
10.02
11.87
13.07
13.66
13.75
13.48
13.13
13.01
13.29
13.94
14.69
15.19
15.09
14.23
12.67
10.62
8.34
6.11
4.03
2.10
0.20
-1.85
-4.26
-7.14
-10.58
-14.54
-18.86
-23.13
-26.79
-29.14
-29.56
-27.73
-23.70
-17.99
-11.34
-4.61
1.55
6.70
10.63
13.27
14.65
14.91
14.26
13.10
11.87
11.03
10.86
11.46
12.55
13.70
14.40
14.29
13.31
11.70
9.86
8.11
6.56
5.05
3.25
0.85
-2.31
-6.20
-10.67
-15.52
-20.55
-25.53
-30.13
-33.84
-36.05
-36.18
-33.90
-29.31
-22.98
-15.83
-8.81
-2.67
2.22
5.85
8.36
9.88
10.45
10.05
8.78
6.95
5.06
3.66
3.09
3.41
4.36
5.56
6.56
7.04
6.80
5.78
4.00
1.58
-1.30
-4.37
-7.43
-10.31
-13.01
-15.68
-18.56
-21.86
-25.58
-29.39
-32.61
-34.35
-33.86
-30.74
-25.27
-18.27
-10.83
-3.90
1.90
6.36
9.54
11.49
12.19
11.67
10.13
8.09
6.25
5.31
5.64
7.16
9.37
11.55
13.03
13.37
12.50
10.60
8.03
5.13
2.17
-0.73
-3.53
-6.31
-9.20
-12.40
-16.07
-20.28
-24.80
-29.12
-32.44
-33.88
-32.77
-28.92
-22.65
-14.77
-6.37
1.54
8.18
13.10
16.19
17.55
17.39
16.06
14.00
11.78
10.03
9.30
9.80
11.31
13.26
14.88
15.56
15.06
13.51
11.32
8.90
6.49
4.16
1.76
-0.91
-4.06
-7.87
-12.46
-17.79
-23.68
-29.61
-34.82
-38.37
-39.43
-37.50
-32.61
-25.35
-16.77
-8.10
-0.38
5.69
9.90
12.41
13.60
13.87
13.52
12.81
12.01
11.40
11.26
11.76
12.83
14.15
15.19
15.51
14.83
13.18
10.80
8.05
5.21
2.44
-0.27
-3.01
-5.98
-9.38
-13.45
-18.29
-23.76
-29.29
-33.99
-36.79
-36.82
-33.76
-27.94
-20.30
-12.00
-4.13
2.57
7.74
11.33
13.46
14.35
14.32
13.81
13.31
13.28
14.06
15.69
17.97
20.48
22.65
24.00
24.23
23.27
21.34
18.84
16.15
13.55
11.06
8.51
5.63
2.16
-2.06
-7.02
-12.52
-18.16
-23.24
-26.98
-28.62
-27.69
-24.17
-18.56
-11.65
-4.35
2.59
8.68
13.66
17.41
19.89
21.13
21.31
20.77
19.97
19.37
19.30
19.90
21.01
22.30
23.35
23.77
23.33
22.02
20.01
17.54
14.84
12.01
9.05
5.93
2.60
-0.99
-4.86
-9.02
-13.44
-17.95
-22.23
-25.75
-27.89
-28.09
-26.06
-21.88
-16.02
-9.21
-2.24
4.25
9.85
14.40
17.84
20.16
21.40
21.62
21.03
20.01
18.99
18.38
18.38
18.90
19.70
20.39
20.65
20.29
19.25
17.58
15.41
12.81
9.82
6.45
2.70
-1.38
-5.70
-10.14
-14.62
-19.09
-23.41
-27.33
-30.31
-31.69
-30.89
-27.64
-22.19
-15.29
-7.91
-0.94
4.92
9.37
12.26
13.59
13.42
11.96
9.66
7.20
5.34
4.63
5.25
6.91
8.96
10.72
11.68
11.67
10.81
9.40
7.71
5.91
3.98
1.81
-0.74
-3.76
-7.30
-11.31
-15.69
-20.29
-24.79
-28.70
-31.36
-32.09
-30.38
-26.18
-19.93
-12.50
-4.93
1.90
7.47
11.59
14.35
15.92
16.46
16.16
15.30
14.34
13.79
14.06
15.23
17.02
18.83
19.98
20.00
18.77
16.53
13.72
10.77
7.95
5.28
2.67
-0.07
-3.10
-6.59
-10.70
-15.44
-20.64
-25.82
-30.18
-32.84
-33.08
-30.60
-25.65
-18.98
-11.58
-4.43
1.71
6.46
9.78
11.84
12.89
13.22
13.08
12.74
12.47
12.55
13.13
14.16
15.34
16.22
16.42
15.73
14.32
12.56
10.83
9.33
7.93
6.31
4.12
1.16
-2.59
-6.99
-11.84
-16.98
-22.14
-26.95
-30.80
-32.97
-32.79
-29.98
-24.77
-17.88
-10.37
-3.26
2.73
7.30
10.53
12.68
14.03
14.77
14.99
14.78
14.31
13.77
13.38
13.28
13.42
13.61
13.56
13.06
12.04
10.67
9.25
8.06
7.15
6.33
5.21
3.39
0.61
-3.14
-7.71
-12.81
-18.07
-23.04
-27.06
-29.43
-29.52
-27.01
-22.09
-15.49
-8.20
-1.24
4.67
9.22
12.36
14.24
15.00
14.79
13.84
12.46
11.12
10.30
10.34
11.28
12.86
14.62
16.04
16.73
16.51
15.41
13.60
11.34
8.85
6.33
3.90
1.51
-1.00
-3.85
-7.22
-11.19
-15.57
-19.99
-23.89
-26.67
-27.76
-26.81
-23.76
-18.93
-13.01
-6.84
-1.21
3.35
6.71
9.00
10.50
11.44
11.87
11.79
11.28
10.59
10.10
10.15
10.87
12.02
13.09
13.55
13.07
11.70
9.75
7.64
5.63
3.73
1.76
-0.45
-2.95
-5.60
-8.23
-10.69
-13.07
-15.50
-18.03
-20.49
-22.43
-23.25
-22.45
-19.85
-15.75
-10.72
-5.50
-0.71
3.24
6.20
8.12
9.05
9.07
8.31
7.02
5.63
4.54
4.07
4.31
5.07
5.97
6.61
6.69
6.14
5.09
3.81
2.51
1.29
0.05
-1.43
-3.39
-6.01
-9.34
-13.23
-17.44
-21.61
-25.33
-28.16
-29.65
-29.41
-27.27
-23.33
-18.08
-12.24
-6.59
-1.76
1.88
4.27
5.52
5.79
5.32
4.35
3.26
2.50
2.48
3.34
4.85
6.51
7.68
7.91
7.11
5.51
3.55
1.66
0.08
-1.20
-2.36
-3.67
-5.36
-7.54
-10.19
-13.14
-16.13
-18.79
-20.73
-21.52
-20.84
-18.56
-14.74
-9.73
-4.11
1.48
6.43
10.33
13.02
14.52
15.01
14.76
14.00
13.04
12.14
11.53
11.34
11.59
12.14
12.76
13.19
13.17
12.52
11.23
9.43
7.35
5.22
3.13
0.94
-1.63
-4.90
-9.00
-13.71
-18.49
-22.66
-25.57
-26.80
-26.19
-23.88
-20.16
-15.49
-10.38
-5.36
-0.88
2.77
5.43
7.16
8.07
8.33
8.08
7.51
6.86
6.43
6.48
7.09
8.07
8.99
9.37
8.91
7.64
5.88
4.08
2.54
1.27
-0.03
-1.71
-4.08
-7.22
-11.02
-15.31
-19.82
-24.25
-28.12
-30.81
-31.65
-30.25
-26.58
-21.18
-14.88
-8.61
-2.98
1.73
5.58
8.75
11.30
13.21
14.34
14.72
14.52
14.13
13.92
14.10
14.58
15.10
15.28
14.87
13.84
12.35
10.63
8.90
7.22
5.50
3.56
1.20
-1.75
-5.34
-9.59
-14.37
-19.43
-24.30
-28.32
-30.81
-31.17
-29.21
-25.15
-19.64
-13.52
-7.59
-2.40
1.80
5.02
7.40
9.09
10.22
10.92
11.31
11.55
11.79
12.15
12.69
13.41
14.18
14.86
15.25
15.19
14.63
13.64
12.40
11.07
9.70
8.14
6.15
3.48
0.10
-3.78
-7.80
-11.70
-15.41
-19.01
-22.56
-25.86
-28.37
-29.37
-28.27
-24.92
-19.71
-13.38
-6.79
-0.65
4.59
8.72
11.71
13.61
14.55
14.80
14.65
14.45
14.47
14.86
15.65
16.73
17.92
18.95
19.51
19.32
18.21
16.20
13.50
10.48
7.49
4.82
2.55
0.54
-1.47
-3.88
-7.02
-11.13
-16.17
-21.77
-27.19
-31.43
-33.51
-32.78
-29.16
-23.19
-15.85
-8.21
-1.20
4.66
9.18
12.47
14.68
16.00
16.60
16.63
16.30
15.82
15.39
15.25
15.49
16.12
16.99
17.86
18.39
18.38
17.70
16.35
14.38
11.78
8.50
4.61
0.26
-4.16
-8.24
-11.76
-14.79
-17.64
-20.65
-23.85
-26.79
-28.65
-28.54
-25.90
-20.77
-13.81
-6.05
1.43
7.87
12.90
16.48
18.83
20.15
20.62
20.44
19.91
19.38
19.24
19.72
20.83
22.32
23.76
24.74
24.97
24.24
22.58
20.11
17.03
13.65
10.24
6.98
3.90
0.97
-1.99
-5.14
-8.63
-12.58
-17.03
-21.82
-26.53
-30.46
-32.76
-32.76
-30.20
-25.38
-19.02
-12.03
-5.10
1.22
6.66
11.04
14.24
16.22
17.13
17.27
17.05
16.88
17.01
17.51
18.25
19.00
19.44
19.32
18.45
16.82
14.62
12.12
9.59
7.23
5.03
2.91
0.79
-1.49
-4.00
-6.85
-10.15
-14.01
-18.45
-23.31
-28.15
-32.29
-34.94
-35.46
-33.55
-29.42
-23.69
-17.18
-10.69
-4.78
0.31
4.52
7.88
10.44
12.17
13.14
13.48
13.44
13.30
13.29
13.56
14.12
14.90
15.75
16.49
16.90
16.80
16.04
14.64
12.64
10.17
7.39
4.46
1.48
-1.47
-4.44
-7.53
-10.92
-14.76
-19.01
-23.43
-27.52
-30.63
-32.12
-31.55
-28.80
-24.06
-17.87
-10.97
-4.17
1.82
6.54
9.86
11.92
13.04
13.53
13.63
13.50
13.32
13.27
13.58
14.38
15.62
16.98
17.98
18.10
17.07
14.93
12.10
9.14
6.53
4.52
2.99
1.59
-0.05
-2.21
-4.98
-8.34
-12.23
-16.60
-21.23
-25.69
-29.28
-31.14
-30.65
-27.62
-22.51
-16.18
-9.68
-3.81
0.93
4.44
6.87
8.41
9.28
9.68
9.77
9.73
9.74
9.94
10.38
11.00
11.62
11.98
11.90
11.27
10.16
8.75
7.25
5.77
4.30
2.68
0.79
-1.47
-4.08
-7.03
-10.34
-14.07
-18.26
-22.78
-27.22
-30.89
-33.07
-33.14
-30.89
-26.60
-20.95
-14.75
-8.74
-3.42
0.98
4.41
6.86
8.37
9.01
8.95
8.49
7.95
7.65
7.73
8.20
8.88
9.49
9.77
9.50
8.63
7.21
5.34
3.17
0.81
-1.66
-4.22
-6.81
-9.40
-12.01
-14.73
-17.68
-20.94
-24.36
-27.47
-29.56
-29.93
-28.10
-24.12
-18.50
-12.14
-5.93
-0.56
3.68
6.80
8.95
10.34
11.07
11.24
10.93
10.34
9.74
9.44
9.66
10.42
11.43
12.28
12.55
12.04
10.82
9.12
7.23
5.29
3.28
1.10
-1.34
-4.08
-7.10
-10.47
-14.27
-18.49
-22.94
-27.09
-30.18
-31.42
-30.27
-26.67
-21.05
-14.26
-7.26
-0.92
4.21
7.92
10.33
11.69
12.23
12.09
11.42
10.43
9.42
8.73
8.62
9.07
9.78
10.29
10.16
9.19
7.47
5.32
3.09
0.98
-1.06
-3.25
-5.83
-9.02
-12.81
-17.12
-21.81
-26.77
-31.74
-36.29
-39.66
-40.99
-39.59
-35.26
-28.50
-20.32
-11.90
-4.25
2.06
6.84
10.09
11.92
12.43
11.90
10.81
9.79
9.43
10.09
11.74
14.01
16.30
18.00
18.64
18.09
16.43
13.99
11.17
8.29
5.50
2.75
-0.13
-3.37
-7.14
-11.59
-16.73
-22.35
-27.93
-32.64
-35.51
-35.71
-32.87
-27.25
-19.63
-11.06
-2.58
5.00
11.21
15.81
18.76
20.16
20.31
19.67
18.78
18.15
18.12
18.74
19.83
20.97
21.75
21.80
21.03
19.51
17.51
15.24
12.88
10.38
7.70
4.74
1.49
-2.16
-6.33
-11.18
-16.72
-22.71
-28.44
-32.92
-35.09
-34.19
-30.09
-23.30
-14.86
-6.09
1.87
8.25
12.77
15.56
16.96
17.32
16.96
16.18
15.36
14.95
15.35
16.69
18.65
20.54
21.65
21.44
19.89
17.48
14.85
12.57
10.82
9.39
7.80
5.55
2.26
-2.26
-7.95
-14.56
-21.60
-28.34
-33.85
-37.10
-37.29
-34.08
-27.78
-19.41
-10.31
-1.76
5.37
10.76
14.54
16.95
18.17
18.23
17.25
15.54
13.71
12.44
12.16
12.84
14.02
15.01
15.25
14.56
13.12
11.34
9.56
7.91
6.28
4.32
1.69
-1.88
-6.51
-12.15
-18.55
-25.16
-31.16
-35.54
-37.29
-35.71
-30.72
-22.92
-13.47
-3.72
5.18
12.52
18.06
21.84
23.93
24.41
23.43
21.35
18.84
16.67
15.49
15.53
16.53
17.87
18.93
19.25
18.71
17.44
15.68
13.59
11.26
8.61
5.52
1.80
-2.77
-8.31
-14.77
-21.76
-28.51
-33.91
-36.81
-36.30
-32.10
-24.66
-15.05
-4.66
5.25
13.80
20.54
25.35
28.21
29.25
28.65
26.89
24.66
22.78
21.94
22.42
24.01
26.09
27.89
28.80
28.55
27.22
25.16
22.73
20.14
17.34
14.07
10.05
5.06
-0.90
-7.59
-14.53
-21.11
-26.45
-29.69
-30.00
-26.94
-20.63
-11.82
-1.69
8.41
17.32
24.27
28.97
31.50
32.17
31.45
29.84
27.88
26.07
24.77
24.21
24.35
24.97
25.68
26.05
25.72
24.54
22.55
19.98
17.08
14.05
10.92
7.59
3.84
-0.52
-5.63
-11.40
-17.50
-23.27
-27.83
-30.24
-29.78
-26.22
-19.90
-11.72
-2.84
5.68
13.07
18.95
23.18
25.75
26.67
26.03
24.16
21.67
19.37
18.00
17.95
19.10
20.82
22.26
22.70
21.82
19.73
16.89
13.84
10.95
8.28
5.63
2.64
-0.99
-5.47
-10.77
-16.66
-22.70
-28.25
-32.53
-34.73
-34.22
-30.77
-24.72
-16.92
-8.47
-0.44
6.44
11.80
15.58
17.87
18.76
18.40
17.11
15.37
13.80
12.92
12.98
13.89
15.22
16.40
16.92
16.49
15.08
12.90
10.24
7.41
4.59
1.78
-1.16
-4.46
-8.33
-12.88
-18.07
-23.58
-28.90
-33.27
-35.88
-36.02
-33.34
-27.93
-20.46
-11.86
-3.19
4.63
11.01
15.65
18.44
19.42
18.72
16.65
13.80
10.93
8.88
8.26
9.23
11.28
13.53
14.99
15.04
13.62
11.13
8.18
5.26
2.56
0.01
-2.57
-5.30
-8.29
-11.64
-15.52
-20.03
-24.99
-29.78
-33.37
-34.70
-33.01
-28.31
-21.36
-13.44
-5.91
0.25
4.63
7.29
8.54
8.70
8.01
6.73
5.20
3.89
3.23
3.48
4.54
6.05
7.46
8.38
8.59
8.16
7.25
6.07
4.73
3.18
1.35
-0.90
-3.65
-6.94
-10.74
-14.95
-19.36
-23.69
-27.48
-30.20
-31.24
-30.17
-26.80
-21.42
-14.72
-7.68
-1.26
3.84
7.28
9.12
9.67
9.29
8.33
7.14
6.06
5.41
5.44
6.17
7.38
8.67
9.54
9.65
8.85
7.26
5.15
2.84
0.55
-1.65
-3.80
-6.04
-8.55
-11.55
-15.15
-19.36
-23.92
-28.26
-31.61
-33.16
-32.38
-29.21
-24.13
-18.03
-11.86
-6.42
-2.10
0.96
2.85
3.69
3.62
2.86
1.76
0.73
0.16
0.21
0.75
1.42
1.85
1.74
1.03
-0.18
-1.72
-3.42
-5.13
-6.82
-8.42
-10.01
-11.73
-13.82
-16.56
-20.13
-24.41
-28.99
-33.14
-35.99
-36.75
-34.99
-30.77
-24.67
-17.60
-10.52
-4.23
0.78
4.33
6.42
7.16
6.76
5.53
3.97
2.63
1.95
2.12
2.99
4.14
5.06
5.34
4.84
3.65
2.03
0.27
-1.49
-3.21
-5.05
-7.15
-9.76
-13.02
-17.03
-21.71
-26.71
-31.38
-34.80
-36.02
-34.43
-29.94
-23.12
-15.05
-6.88
0.38
6.16
10.20
12.46
13.04
12.16
10.31
8.17
6.51
5.91
6.50
7.89
9.31
9.97
9.32
7.33
4.44
1.30
-1.46
-3.55
-5.10
-6.55
-8.45
-11.23
-15.06
-19.77
-24.92
-29.87
-33.89
-36.25
-36.38
-33.94
-29.01
-22.05
-13.91
-5.57
2.07
8.35
12.98
15.93
17.40
17.66
17.07
16.01
14.94
14.28
14.32
15.04
16.12
16.99
17.14
16.31
14.63
12.46
10.21
8.03
5.75
2.97
-0.76
-5.67
-11.68
-18.44
-25.33
-31.58
-36.38
-39.01
-38.89
-35.86
-30.18
-22.55
-13.93
-5.34
2.39
8.64
13.12
15.77
16.72
16.31
15.07
13.63
12.61
12.43
13.17
14.58
16.10
17.15
17.29
16.37
14.50
12.00
9.18
6.24
3.19
-0.14
-3.98
-8.52
-13.84
-19.87
-26.28
-32.54
-37.79
-41.06
-41.46
-38.48
-32.22
-23.50
-13.56
-3.75
4.84
11.57
16.23
18.93
19.96
19.68
18.65
17.47
16.79
17.11
18.58
20.91
23.51
25.64
26.64
26.18
24.28
21.25
17.59
13.76
10.05
6.50
2.85
-1.27
-6.22
-12.09
-18.64
-25.16
-30.61
-33.93
-34.26
-31.27
-25.27
-17.12
-7.94
1.18
9.37
16.09
21.05
24.15
25.43
25.15
23.80
22.14
20.91
20.70
21.61
23.33
25.19
26.48
26.71
25.73
23.74
21.11
18.21
15.27
12.30
9.10
5.38
0.85
-4.68
-11.10
-18.00
-24.65
-30.03
-33.07
-32.94
-29.26
-22.33
-13.06
-2.76
7.19
15.67
21.97
25.78
27.17
26.46
24.17
21.07
18.05
15.90
15.14
15.76
17.27
18.88
19.79
19.49
17.90
15.29
12.14
8.82
5.53
2.18
-1.49
-5.86
-11.21
-17.57
-24.56
-31.37
-36.88
-39.90
-39.52
-35.41
-27.88
-17.84
-6.59
4.56
14.46
22.29
27.62
30.34
30.70
29.21
26.63
23.84
21.63
20.47
20.39
20.95
21.47
21.28
20.01
17.71
14.78
11.70
8.84
6.21
3.53
0.26
-4.06
-9.70
-16.52
-23.92
-30.92
-36.35
-39.07
-38.31
-33.85
-26.07
-15.91
-4.56
6.70
16.75
24.76
30.20
32.95
33.25
31.69
29.14
26.54
24.65
23.93
24.29
25.30
26.31
26.74
26.28
24.92
22.85
20.31
17.45
14.27
10.66
6.42
1.36
-4.64
-11.48
-18.78
-25.75
-31.35
-34.44
-34.15
-30.19
-22.98
-13.53
-3.15
6.91
15.74
22.82
27.89
30.87
31.82
30.94
28.74
25.98
23.54
22.06
21.77
22.31
22.99
23.07
22.11
20.09
17.34
14.29
11.24
8.24
5.16
1.73
-2.31
-7.17
-12.92
-19.35
-25.91
-31.65
-35.43
-36.24
-33.57
-27.61
-19.23
-9.66
-0.15
8.33
15.21
20.27
23.49
24.98
24.95
23.74
21.90
20.04
18.74
18.37
18.92
19.99
20.95
21.13
20.12
17.88
14.73
11.12
7.49
4.03
0.62
-2.96
-7.02
-11.77
-17.28
-23.36
-29.52
-35.00
-38.82
-40.11
-38.28
-33.39
-26.11
-17.51
-8.75
-0.77
5.95
11.24
15.08
17.55
18.70
18.68
17.86
16.83
16.19
16.40
17.53
19.20
20.78
21.57
21.18
19.57
17.08
14.20
11.34
8.65
6.03
3.24
0.02
-3.82
-8.36
-13.50
-19.02
-24.43
-29.06
-32.16
-33.04
-31.38
-27.26
-21.22
-14.03
-6.58
0.41
6.43
11.23
14.76
17.14
18.52
19.09
19.08
18.77
18.42
18.23
18.26
18.42
18.46
18.13
17.24
15.73
13.75
11.51
9.20
6.94
4.76
2.54
0.12
-2.71
-6.16
-10.34
-15.23
-20.54
-25.74
-30.01
-32.49
-32.43
-29.50
-23.97
-16.65
-8.73
-1.34
4.69
9.03
11.76
13.19
13.64
13.33
12.48
11.34
10.28
9.71
9.92
10.92
12.43
13.92
14.83
14.80
13.75
11.91
9.63
7.30
5.14
3.15
1.12
-1.22
-4.11
-7.72
-12.07
-17.02
-22.26
-27.28
-31.40
-33.83
-33.87
-31.24
-26.15
-19.36
-11.99
-5.10
0.52
4.61
7.24
8.69
9.18
8.86
7.86
6.45
5.03
4.07
3.89
4.52
5.70
6.95
7.83
8.04
7.52
6.43
5.02
3.52
2.01
0.45
-1.25
-3.28
-5.78
-8.84
-12.52
-16.76
-21.38
-26.02
-30.17
-33.20
-34.60
-34.04
-31.57
-27.58
-22.70
-17.59
-12.78
-8.55
-4.97
-2.01
0.33
2.02
2.93
3.11
2.78
2.33
2.22
2.74
3.84
5.18
6.28
6.76
6.51
5.64
4.40
2.99
1.41
-0.46
-2.78
-5.64
-8.98
-12.71
-16.71
-20.87
-25.05
-28.96
-32.14
-34.05
-34.22
-32.50
-29.10
-24.58
-19.66
-14.98
-11.01
-8.04
-6.16
-5.46
-5.90
-7.32
-9.36
-11.43
-12.91
-13.33
-12.50
-10.60
-8.01
-5.12
-2.17
0.76
3.58
6.09
7.98
8.87
8.61
7.26
5.18
2.73
0.13
-2.65
-5.78
-9.29
-12.93
-16.12
-18.17
-18.50
-16.94
-13.66
-9.13
-3.86
1.70
7.19
12.29
16.61
19.74
21.35
21.33
19.92
17.72
15.48
13.93
13.45
13.98
15.08
16.08
16.44
15.86
14.43
12.46
10.30
8.14
5.94
3.50
0.56
-3.06
-7.41
-12.45
-17.95
-23.55
-28.63
-32.45
-34.24
-33.45
-30.00
-24.37
-17.47
-10.29
-3.66
2.00
6.57
10.09
12.57
13.98
14.36
13.93
13.16
12.60
12.70
13.55
14.88
16.21
17.05
17.05
16.15
14.45
12.20
9.66
7.06
4.54
2.12
-0.29
-2.90
-5.98
-9.84
-14.70
-20.49
-26.85
-32.87
-37.44
-39.48
-38.32
-34.01
-27.34
-19.50
-11.72
-4.92
0.50
4.55
7.41
9.28
10.30
10.57
10.29
9.79
9.47
9.64
10.38
11.40
12.19
12.17
11.01
8.78
5.90
2.93
0.29
-1.94
-4.05
-6.46
-9.58
-13.58
-18.40
-23.83
-29.50
-34.92
-39.47
-42.39
-43.04
-41.02
-36.47
-29.99
-22.56
-15.18
-8.64
-3.38
0.53
3.21
4.91
5.87
6.34
6.58
6.84
7.38
8.33
9.71
11.37
13.05
14.39
15.07
14.87
13.78
11.91
9.50
6.79
4.01
1.24
-1.53
-4.45
-7.75
-11.71
-16.50
-22.07
-28.01
-33.50
-37.51
-39.01
-37.32
-32.37
-24.75
-15.52
-5.92
2.94
10.27
15.71
19.17
20.77
20.80
19.68
18.00
16.43
15.59
15.79
17.02
18.85
20.66
21.91
22.26
21.71
20.44
18.71
16.72
14.54
12.17
9.50
6.41
2.71
-1.78
-7.17
-13.34
-19.90
-26.06
-30.86
-33.33
-32.74
-28.94
-22.34
-13.88
-4.72
4.03
11.51
17.30
21.24
23.40
23.92
23.08
21.34
19.33
17.74
17.15
17.75
19.33
21.30
22.96
23.77
23.42
21.96
19.65
16.76
13.55
10.13
6.51
2.65
-1.52
-6.07
-11.05
-16.44
-22.13
-27.76
-32.73
-36.19
-37.27
-35.43
-30.61
-23.32
-14.55
-5.42
3.03
10.05
15.19
18.24
19.26
18.50
16.46
13.87
11.53
10.14
10.09
11.34
13.45
15.72
17.47
18.20
17.73
16.14
13.73
10.83
7.73
4.60
1.47
-1.78
-5.41
-9.71
-14.85
-20.71
-26.80
-32.25
-36.05
-37.30
-35.51
-30.76
-23.66
-15.21
-6.47
1.59
8.33
13.39
16.73
18.45
18.79
18.14
16.96
15.83
15.25
15.54
16.62
18.09
19.31
19.72
19.01
17.29
14.95
12.45
10.13
8.11
6.22
4.16
1.56
-1.96
-6.58
-12.29
-18.68
-24.96
-30.11
-33.09
-33.14
-30.04
-24.15
-16.31
-7.56
1.09
8.87
15.29
20.08
23.19
24.69
24.79
23.87
22.44
21.10
20.35
20.45
21.32
22.48
23.37
23.51
22.73
21.19
19.22
17.09
14.93
12.59
9.82
6.35
2.02
-3.22
-9.29
-15.95
-22.73
-28.90
-33.49
-35.57
-34.53
-30.34
-23.57
-15.24
-6.47
1.78
8.86
14.43
18.31
20.48
21.05
20.33
18.89
17.38
16.39
16.21
16.77
17.71
18.55
18.90
18.55
17.51
15.90
13.93
11.75
9.41
6.86
3.88
0.21
-4.34
-9.80
-15.89
-22.06
-27.58
-31.64
-33.57
-32.92
-29.62
-24.00
-16.72
-8.63
-0.61
6.62
12.62
17.14
20.16
21.70
21.92
21.10
19.65
18.13
17.04
16.70
17.14
18.10
19.09
19.63
19.38
18.21
16.21
13.65
10.76
7.73
4.60
1.27
-2.43
-6.63
-11.36
-16.40
-21.30
-25.44
-28.12
-28.80
-27.17
-23.30
-17.57
-10.69
-3.45
3.31
8.98
13.18
15.79
16.95
16.89
15.95
14.56
13.16
12.18
11.97
12.57
13.75
15.06
15.92
15.89
14.81
12.82
10.30
7.65
5.13
2.80
0.49
-2.08
-5.20
-9.06
-13.59
-18.52
-23.34
-27.33
-29.75
-29.95
-27.59
-22.75
-16.02
-8.32
-0.70
5.96
11.10
14.56
16.43
17.00
16.56
15.44
14.04
12.78
12.08
12.19
13.04
14.30
15.36
15.67
14.85
12.85
9.97
6.66
3.40
0.54
-1.84
-3.88
-5.93
-8.36
-11.52
-15.50
-20.10
-24.77
-28.73
-31.11
-31.27
-28.98
-24.48
-18.44
-11.76
-5.28
0.38
4.85
8.03
9.94
10.71
10.52
9.64
8.47
7.45
6.97
7.23
8.13
9.33
10.34
10.72
10.27
9.03
7.25
5.25
3.26
1.32
-0.69
-2.93
-5.58
-8.75
-12.48
-16.72
-21.38
-26.15
-30.57
-33.94
-35.50
-34.69
-31.35
-25.86
-19.04
-11.93
-5.45
-0.26
3.38
5.46
6.12
5.59
4.18
2.31
0.52
-0.69
-1.01
-0.48
0.61
1.76
2.52
2.67
2.21
1.32
0.23
-0.93
-2.19
-3.65
-5.55
-8.06
-11.34
-15.40
-20.13
-25.19
-29.96
-33.64
-35.41
-34.69
-31.34
-25.75
-18.77
-11.36
-4.40
1.55
6.26
9.74
12.06
13.28
13.52
12.98
12.06
11.26
11.01
11.55
12.73
14.09
15.09
15.26
14.40
12.60
10.16
7.35
4.36
1.18
-2.24
-6.04
-10.26
-14.91
-19.91
-25.08
-30.01
-34.07
-36.50
-36.62
-34.10
-29.08
-22.21
-14.42
-6.67
0.30
5.99
10.16
12.73
13.73
13.33
11.92
10.11
8.57
7.90
8.42
10.00
12.12
14.06
15.16
15.04
13.68
11.41
8.65
5.74
2.81
-0.27
-3.76
-7.89
-12.76
-18.22
-23.85
-29.00
-32.90
-34.81
-34.19
-30.88
-25.22
-17.92
-9.96
-2.24
4.56
10.13
14.40
17.44
19.28
19.94
19.54
18.32
16.75
15.40
14.72
14.84
15.52
16.23
16.40
15.67
14.01
11.67
8.99
6.24
3.52
0.67
-2.54
-6.43
-11.21
-16.93
-23.36
-29.97
-35.93
-40.26
-42.09
-40.89
-36.66
-29.94
-21.66
-12.83
-4.33
3.18
9.32
13.86
16.72
17.97
17.91
17.11
16.25
15.94
16.47
17.74
19.26
20.40
20.67
19.84
18.01
15.49
12.63
9.71
6.83
3.98
0.99
-2.29
-6.08
-10.53
-15.69
-21.41
-27.26
-32.42
-35.91
-36.74
-34.24
-28.42
-20.00
-10.19
-0.40
8.23
15.05
19.95
23.12
24.89
25.57
25.40
24.69
23.76
23.00
22.69
22.90
23.42
23.86
23.78
22.88
21.13
18.74
16.05
13.38
10.77
8.07
4.92
1.00
-3.87
-9.63
-16.03
-22.69
-29.08
-34.51
-38.13
-39.08
-36.74
-30.98
-22.39
-12.12
-1.61
7.82
15.27
20.33
22.99
23.53
22.34
20.04
17.31
14.92
13.50
13.36
14.38
16.08
17.79
18.90
19.08
18.25
16.56
14.26
11.53
8.42
4.93
0.95
-3.61
-8.87
-14.90
-21.63
-28.72
-35.44
-40.75
-43.53
-42.90
-38.60
-31.09
-21.41
-10.87
-0.64
8.40
15.77
21.18
24.45
25.58
24.76
22.58
19.91
17.73
16.73
17.15
18.66
20.56
22.11
22.79
22.43
21.13
19.18
16.79
14.02
10.79
6.94
2.34
-3.03
-9.05
-15.46
-21.83
-27.54
-31.81
-33.84
-32.99
-29.05
-22.28
-13.46
-3.65
6.07
14.82
22.00
27.31
30.68
32.17
31.99
30.56
28.47
26.42
25.03
24.63
25.20
26.32
27.35
27.68
26.90
24.95
22.03
18.48
14.57
10.46
6.12
1.45
-3.69
-9.39
-15.70
-22.43
-29.15
-35.03
-39.02
-40.12
-37.68
-31.75
-23.12
-13.10
-3.08
5.79
12.93
18.24
21.89
24.08
24.93
24.52
23.07
21.11
19.34
18.44
18.76
20.11
21.78
22.86
22.60
20.77
17.62
13.78
9.88
6.32
3.13
0.07
-3.27
-7.23
-12.01
-17.60
-23.71
-29.78
-35.00
-38.47
-39.34
-37.16
-31.98
-24.39
-15.40
-6.06
2.70
10.24
16.16
20.22
22.32
22.56
21.29
19.21
17.16
15.93
15.92
17.10
18.96
20.79
21.97
22.13
21.26
19.55
17.26
14.61
11.70
8.54
5.12
1.37
-2.76
-7.39
-12.61
-18.42
-24.49
-30.12
-34.30
-35.99
-34.45
-29.63
-22.13
-13.15
-3.98
4.30
11.05
16.11
19.54
21.41
21.77
20.77
18.78
16.44
14.54
13.78
14.37
16.02
18.02
19.52
19.88
18.85
16.59
13.58
10.41
7.51
5.05
2.87
0.54
-2.43
-6.41
-11.48
-17.31
-23.30
-28.60
-32.35
-33.77
-32.37
-28.08
-21.32
-13.00
-4.27
3.71
10.11
14.54
17.02
17.79
17.26
15.86
14.10
12.53
11.67
11.79
12.87
14.54
16.24
17.41
17.68
16.93
15.28
12.97
10.26
7.40
4.54
1.77
-0.93
-3.68
-6.74
-10.34
-14.68
-19.69
-24.93
-29.56
-32.59
-33.09
-30.62
-25.37
-18.20
-10.30
-2.86
3.29
7.78
10.67
12.17
12.53
11.97
10.75
9.18
7.71
6.76
6.60
7.24
8.36
9.49
10.15
10.08
9.23
7.77
5.91
3.80
1.52
-0.93
-3.60
-6.53
-9.76
-13.39
-17.47
-22.05
-26.96
-31.75
-35.71
-37.98
-37.86
-35.09
-29.96
-23.27
-16.06
-9.29
-3.62
0.62
3.39
4.73
4.80
3.88
2.39
0.92
0.05
0.12
1.14
2.71
4.25
5.20
5.28
4.49
3.14
1.63
0.23
-0.95
-2.02
-3.28
-5.04
-7.63
-11.22
-15.79
-21.07
-26.53
-31.41
-34.84
-36.10
-34.71
-30.74
-24.66
-17.32
-9.70
-2.69
3.09
7.35
10.12
11.60
12.11
11.95
11.40
10.73
10.21
10.09
10.48
11.29
12.22
12.86
12.81
11.94
10.36
8.36
6.29
4.32
2.41
0.29
-2.38
-5.88
-10.31
-15.51
-21.04
-26.25
-30.31
-32.43
-32.06
-29.05
-23.77
-16.96
-9.62
-2.65
3.27
7.84
11.01
12.90
13.69
13.64
13.02
12.23
11.63
11.54
12.05
13.01
14.08
14.88
15.10
14.61
13.51
12.03
10.34
8.53
6.58
4.31
1.54
-1.88
-6.01
-10.77
-15.96
-21.15
-25.76
-29.06
-30.35
-29.20
-25.62
-20.11
-13.52
-6.78
-0.66
4.44
8.43
11.44
13.66
15.15
15.87
15.82
15.12
14.07
13.13
12.66
12.81
13.38
13.95
14.04
13.39
12.03
10.22
8.21
6.14
3.89
1.24
-2.00
-5.91
-10.41
-15.30
-20.29
-25.02
-28.99
-31.68
-32.56
-31.35
-28.08
-23.15
-17.21
-11.00
-5.11
0.07
4.33
7.57
9.77
10.91
11.12
10.61
9.76
8.95
8.49
8.51
8.87
9.26
9.34
8.89
7.86
6.42
4.75
3.01
1.19
-0.83
-3.23
-6.15
-9.59
-13.52
-17.85
-22.52
-27.38
-32.06
-35.97
-38.29
-38.26
-35.45
-30.01
-22.63
-14.32
-6.16
1.02
6.80
11.06
13.85
15.30
15.59
14.99
13.93
12.88
12.35
12.60
13.67
15.27
16.95
18.21
18.70
18.23
16.88
14.91
12.60
10.20
7.74
5.11
2.05
-1.71
-6.27
-11.60
-17.39
-23.19
-28.38
-32.26
-34.17
-33.68
-30.70
-25.56
-18.97
-11.80
-4.90
1.15
6.02
9.63
12.00
13.20
13.34
12.67
11.61
10.69
10.45
11.17
12.82
14.99
17.04
18.36
18.58
17.69
15.97
13.82
11.53
9.16
6.57
3.58
0.04
-4.06
-8.63
-13.57
-18.72
-23.80
-28.27
-31.38
-32.33
-30.57
-26.10
-19.46
-11.68
-3.84
3.17
8.82
12.93
15.52
16.70
16.65
15.66
14.21
12.85
12.15
12.45
13.73
15.63
17.54
18.83
19.09
18.22
16.40
13.96
11.22
8.33
5.36
2.26
-1.04
-4.61
-8.51
-12.85
-17.60
-22.58
-27.29
-30.98
-32.83
-32.19
-28.85
-23.12
-15.78
-7.88
-0.40
5.88
10.52
13.39
14.57
14.27
12.82
10.66
8.30
6.35
5.28
5.34
6.41
8.00
9.43
10.01
9.33
7.35
4.41
0.99
-2.43
-5.59
-8.54
-11.51
-14.82
-18.70
-23.27
-28.40
-33.80
-38.89
-42.91
-45.01
-44.46
-40.88
-34.49
-26.06
-16.66
-7.42
0.82
7.56
12.58
15.80
17.22
16.96
15.37
13.16
11.15
10.12
10.45
11.96
14.00
15.73
16.44
15.83
14.02
11.39
8.40
5.31
2.25
-0.89
-4.23
-7.92
-12.11
-16.89
-22.31
-28.20
-33.99
-38.78
-41.44
-41.02
-37.04
-29.79
-20.21
-9.65
0.55
9.33
16.05
20.44
22.57
22.74
21.51
19.66
18.01
17.22
17.60
18.99
20.89
22.67
23.75
23.80
22.73
20.66
17.90
14.73
11.44
8.10
4.69
0.93
-3.52
-8.96
-15.49
-22.86
-30.41
-37.08
-41.63
-42.90
-40.24
-33.73
-24.23
-13.15
-2.01
7.98
16.10
22.13
26.15
28.34
28.93
28.26
26.88
25.44
24.60
24.76
25.86
27.45
28.80
29.24
28.37
26.17
23.02
19.44
15.84
12.40
8.98
5.23
0.76
-4.73
-11.27
-18.67
-26.43
-33.75
-39.61
-42.90
-42.69
-38.54
-30.70
-20.20
-8.51
2.79
12.41
19.68
24.46
27.06
27.96
27.64
26.56
25.14
23.83
23.08
23.22
24.24
25.75
27.01
27.23
25.90
23.03
19.10
14.86
10.91
7.43
4.18
0.59
-3.89
-9.60
-16.52
-24.26
-32.10
-39.05
-44.01
-45.96
-44.27
-38.86
-30.37
-19.92
-8.85
1.61
10.60
17.66
22.65
25.66
26.87
26.63
25.39
23.76
22.40
21.86
22.34
23.67
25.30
26.52
26.76
25.75
23.67
20.92
17.90
14.83
11.65
8.07
3.78
-1.43
-7.63
-14.74
-22.55
-30.60
-38.15
-44.19
-47.56
-47.28
-42.92
-34.86
-24.17
-12.37
-0.96
8.97
16.90
22.75
26.70
28.96
29.75
29.36
28.25
27.08
26.47
26.76
27.89
29.36
30.50
30.71
29.76
27.77
25.07
21.99
18.75
15.36
11.77
7.92
3.74
-0.87
-6.08
-12.07
-18.85
-26.10
-33.05
-38.55
-41.45
-40.88
-36.62
-29.20
-19.68
-9.39
0.49
9.13
16.14
21.42
25.03
27.07
27.69
27.16
25.92
24.54
23.54
23.27
23.69
24.49
25.14
25.12
24.16
22.23
19.57
16.52
13.40
10.36
7.37
4.26
0.82
-3.15
-7.80
-13.22
-19.39
-25.99
-32.40
-37.59
-40.37
-39.73
-35.30
-27.54
-17.66
-7.17
2.57
10.75
17.05
21.53
24.32
25.48
25.15
23.65
21.57
19.63
18.48
18.43
19.34
20.70
21.93
22.52
22.23
21.06
19.17
16.73
13.86
10.58
6.84
2.60
-2.13
-7.34
-13.06
-19.28
-25.89
-32.50
-38.34
-42.36
-43.51
-41.15
-35.32
-26.80
-16.85
-6.85
2.11
9.33
14.53
17.63
18.75
18.15
16.27
13.78
11.48
10.09
10.08
11.42
13.64
15.97
17.61
18.05
17.16
15.19
12.56
9.63
6.55
3.28
-0.33
-4.36
-8.85
-13.75
-19.04
-24.60
-30.18
-35.24
-39.02
-40.69
-39.65
-35.76
-29.44
-21.56
-13.21
-5.44
0.99
5.65
8.42
9.42
8.97
7.54
5.73
4.19
3.51
3.98
5.52
7.64
9.65
10.90
11.05
10.11
8.36
6.11
3.60
0.89
-2.09
-5.39
-9.07
-13.19
-17.77
-22.72
-27.76
-32.29
-35.49
-36.47
-34.67
-30.05
-23.17
-15.02
-6.70
0.88
7.10
11.67
14.51
15.66
15.34
13.97
12.22
10.87
10.55
11.50
13.43
15.67
17.42
18.09
17.50
15.89
13.71
11.42
9.26
7.23
5.14
2.65
-0.56
-4.70
-9.74
-15.37
-20.91
-25.53
-28.31
-28.63
-26.28
-21.49
-14.89
-7.28
0.51
7.77
13.98
18.78
22.05
23.82
24.30
23.81
22.79
21.76
21.16
21.26
22.04
23.15
24.04
24.18
23.27
21.41
18.93
16.33
13.96
11.94
10.09
8.04
5.39
1.79
-2.86
-8.35
-14.15
-19.43
-23.30
-24.98
-24.14
-20.89
-15.84
-9.82
-3.71
1.85
6.49
10.05
12.57
14.10
14.75
14.69
14.22
13.76
13.69
14.25
15.37
16.72
17.79
18.08
17.33
15.59
13.20
10.61
8.15
5.92
3.73
1.27
-1.82
-5.69
-10.32
-15.47
-20.74
-25.68
-29.77
-32.46
-33.25
-31.81
-28.13
-22.65
-16.10
-9.44
-3.47
1.29
4.69
6.93
8.34
9.20
9.68
9.88
9.90
9.89
10.05
10.49
11.14
11.78
12.07
11.73
10.68
9.07
7.15
5.17
3.28
1.45
-0.50
-2.77
-5.55
-8.95
-12.90
-17.23
-21.58
-25.49
-28.44
-29.94
-29.63
-27.37
-23.29
-17.80
-11.54
-5.22
0.51
5.18
8.58
10.74
11.81
12.07
11.81
11.32
10.87
10.68
10.84
11.34
12.02
12.66
13.04
13.02
12.51
11.61
10.48
9.26
8.06
6.84
5.44
3.60
1.10
-2.17
-6.16
-10.67
-15.39
-19.94
-23.87
-26.73
-28.14
-27.80
-25.65
-21.91
-17.08
-11.83
-6.87
-2.76
0.24
2.15
3.26
3.88
4.27
4.54
4.70
4.77
4.87
5.18
5.86
6.89
8.08
9.09
9.63
9.51
8.73
7.39
5.60
3.50
1.18
-1.22
-3.56
-5.78
-7.92
-10.13
-12.65
-15.63
-19.08
-22.77
-26.28
-29.10
-30.75
-30.91
-29.50
-26.70
-22.95
-18.70
-14.41
-10.39
-6.85
-3.91
-1.66
-0.20
0.45
0.36
-0.25
-1.04
-1.64
-1.72
-1.19
-0.17
1.04
2.09
2.67
2.61
1.93
0.72
-0.81
-2.50
-4.18
-5.77
-7.21
-8.61
-10.13
-12.04
-14.58
-17.88
-21.81
-25.96
-29.63
-32.05
-32.54
-30.75
-26.81
-21.29
-15.07
-9.00
-3.74
0.42
3.48
5.56
6.80
7.26
7.07
6.51
6.02
6.07
6.97
8.68
10.84
12.87
14.26
14.71
14.24
13.05
11.45
9.71
8.03
6.48
5.00
3.44
1.56
-0.88
-4.02
-7.90
-12.43
-17.32
-22.16
-26.30
-29.03
-29.71
-28.00
-24.06
-18.50
-12.23
-6.15
-0.87
3.35
6.57
8.98
10.75
11.98
12.72
13.05
13.11
13.09
13.18
13.43
13.82
14.15
14.20
13.76
12.75
11.25
9.38
7.32
5.17
2.98
0.73
-1.59
-4.01
-6.57
-9.38
-12.60
-16.38
-20.80
-25.66
-30.53
-34.71
-37.47
-38.18
-36.58
-32.80
-27.36
-21.05
-14.62
-8.68
-3.55
0.67
4.02
6.55
8.29
9.29
9.68
9.69
9.63
9.77
10.28
11.15
12.24
13.31
14.11
14.44
14.15
13.20
11.64
9.61
7.31
4.95
2.64
0.36
-2.00
-4.69
-8.01
-12.16
-17.20
-22.92
-28.74
-33.88
-37.45
-38.71
-37.31
-33.33
-27.36
-20.22
-12.78
-5.80
0.25
5.13
8.87
11.60
13.55
14.94
16.00
16.92
17.91
19.09
20.54
22.19
23.84
25.26
26.16
26.36
25.75
24.34
22.17
19.41
16.30
13.09
10.02
7.19
4.52
1.76
-1.41
-5.22
-9.79
-15.07
-20.85
-26.80
-32.37
-36.92
-39.72
-40.14
-37.91
-33.22
-26.74
-19.42
-12.24
-5.87
-0.65
3.46
6.69
9.28
11.38
13.05
14.27
15.09
15.68
16.27
17.04
18.01
19.03
19.84
20.25
20.14
19.51
18.43
16.93
14.95
12.44
9.42
5.97
2.31
-1.39
-5.01
-8.63
-12.46
-16.81
-21.87
-27.59
-33.46
-38.57
-41.81
-42.20
-39.26
-33.24
-24.98
-15.71
-6.60
1.46
7.99
12.85
16.01
17.62
17.90
17.24
16.22
15.46
15.46
16.40
18.08
20.07
21.87
23.08
23.53
23.18
22.08
20.28
17.82
14.81
11.45
8.00
4.70
1.60
-1.42
-4.62
-8.31
-12.72
-17.88
-23.58
-29.26
-34.08
-37.02
-37.13
-33.93
-27.59
-18.99
-9.49
-0.42
7.28
13.24
17.57
20.59
22.54
23.59
23.85
23.57
23.13
22.94
23.27
24.06
25.02
25.69
25.67
24.77
23.02
20.69
18.05
15.36
12.70
10.02
7.19
4.04
0.51
-3.47
-7.94
-13.02
-18.82
-25.37
-32.33
-39.02
-44.41
-47.38
-47.16
-43.50
-36.86
-28.28
-19.03
-10.31
-2.98
2.62
6.57
9.14
10.62
11.24
11.12
10.44
9.55
8.93
9.04
10.11
12.02
14.37
16.61
18.31
19.27
19.49
19.08
18.07
16.48
14.25
11.38
7.94
4.04
-0.16
-4.60
-9.28
-14.26
-19.55
-24.91
-29.81
-33.34
-34.51
-32.57
-27.29
-19.18
-9.33
0.92
10.35
18.19
24.10
28.08
30.32
31.04
30.55
29.32
27.97
27.14
27.32
28.61
30.71
32.96
34.60
35.03
33.94
31.36
27.68
23.44
19.19
15.34
12.13
9.51
7.24
4.86
1.84
-2.26
-7.64
-14.09
-20.91
-27.04
-31.30
-32.68
-30.70
-25.53
-17.94
-9.13
-0.34
7.35
13.27
17.20
19.30
19.93
19.61
18.82
18.05
17.69
18.01
19.03
20.52
22.05
23.13
23.39
22.71
21.22
19.18
16.84
14.36
11.79
9.10
6.17
2.89
-0.96
-5.57
-11.14
-17.71
-25.13
-32.90
-40.23
-46.07
-49.40
