1624265406.00
64.000000
-0.00
-0.00
-0.00
-0.00
-0.00
-0.00
-0.00
-0.00
-0.00
-0.00
0.00
0.01
0.01
-0.00
-0.03
-0.05
-0.05
0.00
0.13
0.36
0.66
1.01
1.37
1.72
2.06
2.40
2.79
3.24
3.80
4.42
5.06
5.66
6.20
6.68
7.15
7.68
8.31
9.14
10.09
11.04
11.88
12.56
13.14
13.76
14.65
15.96
17.91
20.32
22.90
25.38
27.58
29.57
31.68
34.32
37.81
42.54
48.15
54.10
59.83
64.97
69.58
74.14
79.34
85.71
93.76
103.00
112.62
121.73
129.77
136.75
143.30
150.75
157.77
166.64
177.95
191.79
206.97
220.57
228.25
225.36
208.53
176.87
132.76
80.05
23.07
-34.94
-92.44
-149.16
-205.23
-260.37
-313.74
-363.87
-409.83
-450.91
-486.50
-515.74
-537.23
-549.22
-549.96
-538.37
-514.21
-478.67
-433.88
-382.45
-327.02
-269.84
-212.63
-156.66
-102.95
-52.37
-5.90
35.58
71.43
101.35
125.50
144.38
158.70
169.15
176.37
180.75
182.57
182.07
179.52
175.26
169.69
163.20
156.13
148.73
141.13
133.44
125.71
117.99
110.35
102.83
95.48
88.32
81.39
74.71
68.32
62.26
56.55
51.19
46.15
41.39
36.87
32.57
28.51
24.76
21.36
18.36
15.73
13.37
11.16
8.98
6.81
4.71
2.83
1.33
0.29
-0.35
-0.81
-1.37
-2.27
-3.56
-5.09
-6.55
-7.60
-8.05
-7.98
-7.73
-7.78
-8.50
-9.98
-11.97
-13.93
-15.38
-16.01
-15.90
-15.47
-15.21
-15.60
-16.91
-19.28
-22.60
-26.38
-29.57
-30.66
-28.13
-21.17
-10.30
2.57
14.81
24.08
29.31
30.98
30.60
29.80
29.51
29.67
29.64
28.83
27.17
25.11
23.27
22.03
21.21
20.31
18.69
16.04
12.57
8.97
6.07
4.50
4.40
5.40
6.88
8.22
9.11
9.52
9.57
9.30
8.71
7.80
6.79
6.17
6.51
8.15
10.92
14.17
17.05
18.93
19.62
19.30
18.31
16.88
15.06
12.91
10.65
8.75
7.73
7.80
8.76
9.70
9.65
7.89
4.32
-0.61
-6.06
-11.27
-15.81
-19.55
-22.52
-24.67
-25.81
-25.73
-24.31
-21.76
-18.63
-15.58
-13.14
-11.57
-10.73
-10.28
-9.82
-9.16
-8.43
-8.09
-8.70
-10.58
-13.60
-17.18
-20.44
-22.46
-22.83
-21.90
-20.69
-20.43
-21.92
-25.13
-29.24
-33.03
-35.20
-35.17
-33.39
-31.17
-30.03
-31.16
-34.94
-41.32
-49.86
-59.28
-67.54
-72.07
-70.65
-62.68
-50.24
-37.60
-30.05
-32.10
-43.56
-58.79
-69.75
-70.13
-58.90
-38.93
-14.44
10.24
32.02
49.30
61.13
66.81
66.65
62.91
55.82
48.91
45.27
45.87
49.71
54.77
59.21
62.01
62.63
60.35
54.58
44.64
30.99
16.02
3.37
-3.58
-2.93
5.05
18.38
34.67
51.31
65.97
76.93
83.10
83.90
79.26
69.41
54.87
36.68
16.00
-5.71
-26.73
-45.48
-60.88
-72.56
-80.61
-85.01
-85.21
-80.46
-70.54
-56.57
-41.22
-28.02
-19.89
-17.82
-20.39
-24.44
-26.89
-26.27
-23.36
-20.60
-20.50
-24.12
-30.28
-36.06
-38.19
-34.65
-25.55
-13.02
-0.02
11.07
19.57
26.65
34.49
45.02
58.75
74.40
89.58
101.66
108.97
111.17
108.84
102.97
94.77
86.17
80.12
80.10
88.32
103.78
121.37
133.41
133.02
117.70
90.86
60.33
34.56
18.82
13.46
15.05
19.16
23.01
26.17
29.46
33.17
36.13
36.09
31.17
21.04
7.31
-7.03
-19.10
-27.35
-32.22
-35.60
-39.61
-45.22
-51.29
-55.08
-53.39
-44.38
-28.67
-9.27
9.75
25.01
35.01
39.93
40.58
37.37
30.22
19.58
7.36
-3.02
-8.10
-6.46
0.14
7.41
10.91
8.61
2.02
-4.75
-7.41
-3.90
4.78
15.44
24.66
30.40
32.48
32.00
30.37
28.43
26.25
23.47
19.72
15.07
10.11
5.75
2.88
1.89
2.43
3.53
3.93
2.63
-0.71
-5.63
-11.19
-16.36
-20.50
-23.57
-26.02
-28.45
-31.17
-34.08
-36.69
-38.47
-39.11
-38.73
-37.81
-36.94
-36.59
-36.92
-37.80
-38.93
-40.08
-41.18
-42.32
-43.60
-44.99
-46.16
-46.61
-45.77
-43.31
-39.24
-33.90
-27.86
-21.70
-15.86
-10.59
-6.05
-2.28
0.66
2.78
4.13
4.82
4.95
4.61
3.90
2.90
1.80
0.76
-0.09
-0.77
-1.44
-2.32
-3.61
-5.33
-7.36
-9.53
-11.70
-13.80
-15.88
-17.98
-20.15
-22.38
-24.67
-26.98
-29.25
-31.31
-32.84
-33.43
-32.74
-30.59
-27.15
-22.82
-18.11
-13.47
-9.15
-5.23
-1.69
1.46
4.13
6.13
7.31
7.58
7.06
6.01
4.76
3.59
2.67
2.02
1.49
0.93
0.22
-0.70
-1.77
-2.98
-4.27
-5.64
-7.14
-8.79
-10.63
-12.66
-14.91
-17.43
-20.22
-23.19
-26.05
-28.30
-29.33
-28.65
-26.09
-21.95
-16.87
-11.61
-6.74
-2.53
1.07
4.22
6.99
9.26
10.87
11.71
11.83
11.43
10.65
9.61
8.27
6.62
4.70
2.67
0.69
-1.17
-2.94
-4.68
-6.42
-8.15
-9.80
-11.40
-13.08
-15.05
-17.50
-20.50
-23.97
-27.71
-31.47
-34.99
-37.97
-40.12
-41.17
-40.89
-39.22
-36.27
-32.29
-27.65
-22.73
-17.95
-13.72
-10.39
-8.21
-7.25
-7.46
-8.54
-10.08
-11.58
-12.54
-12.55
-11.40
-9.08
-5.76
-1.67
2.91
7.79
12.76
17.58
21.98
25.67
28.40
30.01
30.49
29.94
28.55
26.46
23.77
20.39
16.05
10.42
3.27
-5.28
-14.59
-23.51
-30.70
-35.01
-35.92
-33.66
-29.10
-23.40
-17.58
-12.31
-7.87
-4.30
-1.62
0.10
0.75
0.30
-1.07
-2.96
-4.85
-6.29
-7.01
-7.03
-6.58
-5.98
-5.50
-5.25
-5.14
-5.01
-4.68
-4.11
-3.40
-2.72
-2.27
-2.07
-2.06
-2.10
-2.11
-2.23
-2.81
-4.31
-7.16
-11.51
-17.07
-23.13
-28.59
-32.27
-33.14
-30.66
-24.92
-16.66
-6.99
2.89
12.03
19.89
26.30
31.30
34.95
37.23
38.12
37.73
36.40
34.61
32.88
31.53
30.57
29.74
28.72
27.30
25.49
23.54
21.70
20.10
18.68
17.17
15.30
12.89
9.99
6.85
3.80
1.16
-0.97
-2.70
-4.32
-6.24
-8.82
-12.27
-16.61
-21.56
-26.57
-30.86
-33.52
-33.71
-30.98
-25.42
-17.73
-8.97
-0.27
7.49
13.86
18.73
22.15
24.17
24.83
24.19
22.48
20.13
17.72
15.73
14.46
13.87
13.67
13.48
13.01
12.21
11.24
10.30
9.46
8.61
7.49
5.84
3.60
0.91
-1.89
-4.50
-6.75
-8.70
-10.55
-12.63
-15.23
-18.53
-22.51
-26.87
-30.98
-33.96
-34.87
-33.04
-28.33
-21.23
-12.72
-3.97
4.06
10.80
16.13
20.20
23.17
25.12
26.02
25.84
24.73
23.05
21.29
19.90
19.12
18.88
18.96
19.04
18.91
18.52
17.95
17.26
16.46
15.40
13.91
11.86
9.26
6.30
3.27
0.45
-1.97
-3.97
-5.66
-7.33
-9.34
-12.07
-15.82
-20.60
-26.00
-31.17
-34.95
-36.20
-34.18
-28.87
-20.91
-11.47
-1.79
7.11
14.66
20.66
25.19
28.38
30.37
31.25
31.16
30.31
28.99
27.48
26.02
24.70
23.46
22.14
20.61
18.81
16.79
14.72
12.77
11.07
9.64
8.40
7.16
5.72
3.89
1.61
-1.10
-4.08
-7.09
-9.94
-12.57
-15.06
-17.62
-20.49
-23.80
-27.59
-31.73
-35.93
-39.75
-42.63
-43.89
-42.94
-39.39
-33.24
-25.02
-15.60
-6.09
2.55
9.69
15.11
18.94
21.44
22.87
23.42
23.28
22.66
21.88
21.27
21.03
21.18
21.52
21.76
21.64
21.10
20.21
19.16
18.09
16.99
15.77
14.26
12.36
10.04
7.40
4.58
1.70
-1.15
-3.94
-6.63
-9.22
-11.70
-14.10
-16.49
-19.01
-21.82
-25.06
-28.66
-32.33
-35.48
-37.29
-36.99
-34.08
-28.64
-21.28
-12.99
-4.83
2.44
8.47
13.25
16.93
19.64
21.43
22.30
22.35
21.84
21.15
20.65
20.57
20.83
21.20
21.34
21.03
20.24
19.11
17.89
16.77
15.82
14.94
14.01
12.88
11.46
9.68
7.49
4.88
1.83
-1.57
-5.15
-8.67
-11.86
-14.53
-16.66
-18.42
-20.17
-22.33
-25.20
-28.83
-32.92
-36.82
-39.64
-40.55
-38.95
-34.70
-28.19
-20.20
-11.75
-3.77
3.06
8.39
12.20
14.61
15.83
16.01
15.37
14.19
12.86
11.80
11.35
11.59
12.38
13.38
14.21
14.64
14.63
14.30
13.81
13.23
12.47
11.32
9.52
6.95
3.70
0.06
-3.55
-6.79
-9.47
-11.61
-13.37
-14.99
-16.63
-18.40
-20.36
-22.53
-24.83
-27.02
-28.64
-29.12
-27.87
-24.55
-19.22
-12.35
-4.69
2.92
9.78
15.42
19.56
22.11
23.13
22.80
21.45
19.53
17.52
15.83
14.66
13.99
13.56
13.08
12.30
11.17
9.85
8.59
7.62
6.97
6.43
5.64
4.26
2.13
-0.63
-3.66
-6.56
-9.02
-11.02
-12.79
-14.70
-17.14
-20.39
-24.47
-29.13
-33.82
-37.68
-39.80
-39.36
-35.97
-29.82
-21.65
-12.50
-3.43
4.76
11.64
17.07
21.05
23.62
24.84
24.85
24.00
22.73
21.53
20.75
20.43
20.38
20.31
19.92
19.07
17.79
16.19
14.39
12.46
10.41
8.20
5.83
3.29
0.65
-2.05
-4.74
-7.44
-10.18
-13.06
-16.23
-19.77
-23.81
-28.34
-33.28
-38.33
-42.98
-46.43
-47.85
-46.52
-42.23
-35.33
-26.68
-17.33
-8.20
0.14
7.43
13.57
18.41
21.76
23.47
23.63
22.64
21.12
19.69
18.76
18.41
18.43
18.46
18.25
17.70
16.89
16.01
15.16
14.28
13.16
11.55
9.30
6.46
3.27
0.05
-2.91
-5.45
-7.61
-9.61
-11.77
-14.46
-17.98
-22.46
-27.73
-33.28
-38.29
-41.75
-42.80
-40.94
-36.25
-29.36
-21.23
-12.91
-5.22
1.42
6.94
11.42
14.93
17.39
18.66
18.68
17.62
15.92
14.14
12.80
12.11
11.96
12.03
12.00
11.74
11.35
11.06
11.00
11.11
11.09
10.55
9.14
6.73
3.48
-0.35
-4.38
-8.35
-12.14
-15.72
-19.25
-22.93
-27.04
-31.84
-37.44
-43.63
-49.79
-54.85
-57.51
-56.62
-51.56
-42.56
-30.61
-17.26
-4.07
7.71
17.33
24.50
29.23
31.72
32.27
31.36
29.66
27.91
26.78
26.64
27.46
28.79
29.93
30.16
29.03
26.55
23.15
19.59
16.59
14.62
13.63
13.23
12.82
11.95
10.43
8.40
6.11
3.82
1.59
-0.67
-3.18
-6.21
-10.02
-14.81
-20.62
-27.20
-33.94
-39.88
-43.89
-44.99
-42.67
-37.06
-28.94
-19.45
-9.78
-0.84
6.82
13.00
17.59
20.55
21.91
21.86
20.83
19.48
18.45
18.17
18.69
19.68
20.62
21.00
20.55
19.28
17.45
15.42
13.45
11.62
9.82
7.82
5.40
2.49
-0.77
-4.11
-7.24
-10.01
-12.47
-14.88
-17.59
-20.98
-25.22
-30.26
-35.66
-40.59
-44.04
-44.98
-42.80
-37.47
-29.58
-20.21
-10.50
-1.38
6.66
13.45
19.06
23.48
26.65
28.45
28.88
28.22
26.97
25.72
24.97
24.93
25.53
26.42
27.08
27.08
26.20
24.58
22.50
20.26
18.01
15.77
13.42
10.84
7.94
4.77
1.47
-1.82
-5.09
-8.39
-11.69
-15.01
-18.53
-22.59
-27.54
-33.37
-39.56
-45.05
-48.45
-47.93
-42.44
-32.39
-19.75
-7.23
2.81
9.16
12.02
12.66
13.96
18.28
26.25
36.63
47.28
56.52
63.62
68.63
71.90
75.72
82.02
91.45
103.15
115.48
126.64
134.51
136.65
131.04
119.89
107.72
99.73
99.85
109.89
129.21
154.47
180.50
187.37
161.97
104.94
31.08
-41.76
-102.41
-147.58
-178.48
-197.31
-207.36
-207.88
-198.14
-179.80
-157.23
-135.44
-117.63
-105.46
-98.42
-94.89
-91.00
-83.81
-72.68
-59.46
-47.08
-37.84
-32.72
-31.33
-32.49
-33.44
-32.00
-27.52
-21.07
-14.53
-9.48
-6.74
-6.33
-7.84
-10.04
-11.91
-12.98
-13.46
-13.85
-14.63
-16.18
-18.75
-22.53
-27.25
-32.37
-37.13
-40.63
-42.00
-40.56
-36.11
-29.03
-20.24
-10.90
-2.04
5.64
11.87
16.65
20.10
22.36
23.64
24.41
25.47
27.73
31.71
37.05
42.48
46.42
47.97
47.52
46.71
47.49
51.08
57.27
64.71
71.83
77.68
82.14
85.36
87.06
86.19
81.39
71.86
58.09
41.80
25.15
9.88
-3.28
-14.40
-23.80
-31.44
-36.65
-38.42
-35.95
-29.20
-19.10
-7.30
4.28
14.07
21.19
25.52
27.41
27.33
25.58
22.23
17.32
11.04
3.95
-3.17
-9.45
-14.16
-16.94
-17.81
-17.15
-15.55
-13.68
-12.12
-11.36
-11.66
-13.17
-15.88
-19.71
-24.47
-29.88
-35.58
-41.15
-46.27
-50.71
-54.35
-57.04
-58.56
-58.51
-56.40
-51.87
-44.80
-35.51
-24.68
-13.28
-2.22
7.76
16.29
23.30
28.87
33.13
36.15
37.91
38.38
37.58
35.70
33.04
30.04
27.09
24.55
22.63
21.41
20.83
20.75
20.97
21.21
21.18
20.56
19.10
16.64
13.17
8.91
4.20
-0.58
-5.14
-9.45
-13.72
-18.31
-23.51
-29.23
-34.86
-39.34
-41.47
-40.35
-35.72
-28.11
-18.58
-8.40
1.36
9.98
17.12
22.62
26.44
28.57
29.15
28.43
26.85
24.88
22.93
21.26
19.94
18.91
18.06
17.27
16.46
15.59
14.66
13.68
12.58
11.27
9.59
7.45
4.84
1.89
-1.20
-4.25
-7.24
-10.30
-13.65
-17.51
-21.98
-26.86
-31.68
-35.68
-37.99
-37.85
-34.87
-29.21
-21.52
-12.79
-4.01
4.07
11.03
16.70
21.04
24.00
25.52
25.66
24.64
22.94
21.12
19.66
18.80
18.46
18.33
18.03
17.29
16.05
14.47
12.75
11.03
9.27
7.30
4.89
1.96
-1.39
-4.86
-8.08
-10.80
-12.98
-14.84
-16.80
-19.42
-23.17
-28.34
-34.87
-42.20
-49.28
-54.73
-57.09
-55.25
-48.82
-38.25
-24.83
-10.27
3.66
15.56
24.60
30.49
33.37
33.60
31.67
28.14
23.66
18.88
14.40
10.66
7.92
6.19
5.32
5.06
5.16
5.39
5.53
5.37
4.70
3.38
1.40
-1.14
-4.01
-6.92
-9.66
-12.11
-14.27
-16.29
-18.36
-20.72
-23.49
-26.66
-29.92
-32.67
-34.09
-33.33
-29.80
-23.44
-14.79
-4.90
5.02
13.92
21.21
26.73
30.61
33.07
34.36
34.79
34.76
34.70
34.99
35.74
36.72
37.39
37.17
35.77
33.39
30.58
27.99
25.94
24.33
22.62
20.03
15.95
10.27
3.55
-3.22
-9.01
-13.17
-15.43
-16.30
-16.98
-18.97
-23.38
-30.33
-38.86
-47.20
-53.38
-55.18
-51.31
-42.10
-29.33
-15.44
-2.59
7.85
15.32
20.02
23.48
27.21
31.67
36.29
40.45
44.25
48.66
54.82
63.38
75.30
90.66
107.99
125.13
140.47
153.77
165.73
176.93
178.74
165.60
138.86
106.21
76.54
54.75
40.90
32.36
25.75
20.59
17.24
16.92
18.62
19.98
18.47
12.57
2.36
-11.93
-28.51
-44.08
-55.82
-64.77
-73.19
-82.82
-94.15
-106.34
-119.97
-135.70
-153.75
-174.19
-199.30
-229.30
-260.91
-288.23
-304.46
-306.54
-293.75
-267.23
-214.91
-138.15
-50.85
28.41
82.16
114.47
131.89
140.06
143.75
145.74
145.09
141.38
135.91
131.15
129.91
131.84
135.77
140.68
146.01
150.14
152.96
155.79
160.03
166.52
173.44
178.88
181.90
182.35
179.20
171.57
158.99
141.41
119.52
93.69
65.02
35.08
5.24
-24.17
-52.87
-80.06
-104.38
-124.24
-138.96
-148.53
-153.54
-154.84
-153.49
-150.04
-144.47
-136.22
-124.59
-109.32
-90.66
-69.62
-48.00
-28.09
-11.97
-0.80
5.70
9.10
11.53
14.73
19.44
25.26
31.28
36.80
41.96
47.60
54.70
63.51
72.96
80.86
84.70
82.73
74.84
62.57
48.41
34.66
22.54
11.97
1.93
-8.58
-19.98
-31.82
-43.23
-53.40
-62.06
-69.55
-76.54
-83.59
-90.81
-97.74
-103.56
-107.46
-109.03
-108.53
-106.78
-104.87
-103.72
-103.77
-105.08
-107.54
-111.25
-116.52
-123.69
-132.81
-143.46
-154.77
-165.70
-175.31
-182.78
-187.27
-187.92
-184.03
-175.60
-163.74
-150.81
-139.77
-133.14
-131.66
-133.67
-135.46
-132.59
-121.71
-102.12
-76.19
-48.62
-24.53
-7.69
0.52
0.90
-4.59
-13.82
-24.95
-36.14
-45.26
-49.93
-48.28
-39.93
-26.62
-11.87
0.16
6.23
5.13
-2.13
-12.95
-24.23
-33.32
-38.45
-38.94
-35.08
-27.90
-18.70
-8.70
1.36
11.19
20.73
29.81
37.97
44.61
49.31
52.07
53.33
53.80
53.98
54.11
54.31
54.71
55.52
56.89
58.61
60.16
61.08
61.32
61.25
61.37
61.68
61.47
59.66
55.60
49.67
43.17
37.50
33.17
29.50
25.03
18.72
10.89
3.21
-2.20
-3.87
-1.64
3.64
11.06
20.40
32.10
46.34
62.04
76.58
86.68
89.85
85.60
75.56
62.59
49.46
37.94
28.76
21.98
17.42
14.53
12.10
8.27
0.96
-11.01
-27.09
-44.71
-59.97
-69.07
-69.60
-61.21
-45.64
-26.11
-6.57
9.01
17.26
15.97
4.73
-14.69
-38.58
-62.22
-81.16
-92.40
-95.16
-90.55
-80.73
-67.78
-52.99
-36.82
-19.42
-1.17
17.08
34.19
49.24
61.86
72.24
80.89
88.25
94.46
99.35
102.57
103.83
103.08
100.51
96.52
91.58
86.22
80.88
75.86
71.17
66.54
61.50
55.55
48.50
40.64
32.66
25.45
19.62
15.21
11.54
7.44
1.89
-5.38
-13.58
-21.09
-26.18
-27.86
-26.36
-23.02
-19.38
-16.37
-13.81
-10.59
-5.44
2.32
12.40
23.71
34.79
44.34
51.53
56.08
58.28
58.92
59.00
59.38
60.34
61.53
62.23
61.90
60.59
58.90
57.42
56.20
54.52
51.40
46.25
39.51
32.44
26.57
22.76
20.84
19.77
18.32
15.69
11.76
6.90
1.77
-3.01
-6.76
-8.79
-8.43
-5.32
0.38
7.81
15.70
22.75
28.23
32.17
35.21
38.11
41.17
43.98
45.60
45.15
42.28
37.47
31.79
26.47
22.40
19.92
18.89
18.90
19.48
20.16
20.44
19.80
17.70
13.78
7.90
0.20
-8.89
-18.74
-28.50
-37.33
-44.57
-50.04
-54.15
-57.74
-61.67
-66.29
-71.15
-75.17
-77.07
-76.07
-72.16
-66.12
-59.10
-52.13
-45.70
-39.78
-34.09
-28.37
-22.65
-17.25
-12.53
-8.72
-5.80
-3.52
-1.56
0.33
2.25
4.20
6.14
8.05
9.98
11.94
13.88
15.69
17.21
18.27
18.82
18.93
18.76
18.55
18.48
18.70
19.20
19.86
20.38
20.34
19.30
16.89
12.99
7.90
2.36
-2.53
-5.56
-5.84
-3.12
2.07
8.59
15.14
20.72
24.89
27.79
29.79
31.19
32.03
32.07
31.10
29.07
26.26
23.10
20.04
17.32
14.92
12.66
10.28
7.59
4.46
0.86
-3.23
-7.79
-12.80
-18.18
-23.74
-29.21
-34.27
-38.70
-42.45
-45.68
-48.67
-51.57
-54.32
-56.53
-57.59
-56.77
-53.50
-47.45
-38.76
-28.01
-16.21
-4.60
5.72
14.06
20.39
25.23
29.32
33.25
37.18
40.84
43.79
45.71
46.51
46.29
45.20
43.34
40.72
37.43
33.64
29.67
25.88
22.57
19.87
17.72
15.91
14.15
12.20
9.87
7.16
4.21
1.22
-1.64
-4.34
-7.02
-9.94
-13.37
-17.45
-22.13
-27.16
-32.07
-36.25
-39.05
-39.99
-38.88
-35.94
-31.70
-26.83
-21.91
-17.22
-12.77
-8.46
-4.26
-0.35
2.94
5.27
6.50
6.74
6.34
5.71
5.18
4.88
4.72
4.51
4.05
3.23
2.13
1.00
0.13
-0.22
0.03
0.75
1.73
2.71
3.58
4.35
5.03
5.55
5.59
4.71
2.48
-1.34
-6.75
-13.55
-21.39
-29.76
-37.91
-44.87
-49.64
-51.53
-50.60
-47.68
-44.09
-41.01
-38.93
-37.42
-35.48
-32.19
-27.41
-22.00
-17.56
-15.73
-17.44
-22.55
-29.96
-38.14
-45.63
-51.38
-54.80
-55.53
-53.29
-47.84
-39.22
-27.90
-14.83
-1.21
11.85
23.64
33.87
42.59
49.99
56.32
61.86
66.84
71.33
75.13
77.67
78.33
76.76
73.24
68.66
64.17
60.60
58.13
56.32
54.58
52.61
50.71
49.53
49.61
51.07
53.50
56.30
58.99
61.36
63.38
64.96
65.76
65.28
63.18
59.56
55.02
50.43
46.57
43.77
41.89
40.51
39.23
37.98
36.97
36.55
36.85
37.71
38.66
39.18
38.85
37.48
35.02
31.40
26.50
20.30
13.02
5.24
-2.28
-8.93
-14.59
-19.67
-24.87
-30.76
-37.48
-44.57
-51.13
-56.23
-59.19
-59.87
-58.65
-56.25
-53.48
-50.96
-49.02
-47.66
-46.63
-45.47
-43.67
-40.78
-36.62
-31.39
-25.74
-20.59
-16.80
-14.81
-14.57
-15.56
-17.13
-18.72
-19.98
-20.82
-21.38
-22.08
-23.56
-26.50
-31.23
-37.40
-43.94
-49.43
-52.84
-54.10
-54.14
-54.40
-56.13
-59.81
-65.03
-70.77
-75.88
-79.27
-80.09
-77.74
-71.96
-62.96
-51.41
-38.29
-24.60
-11.15
1.50
12.91
22.68
30.45
36.10
39.89
42.42
44.35
46.05
47.46
48.18
47.80
46.22
43.71
40.80
38.00
35.66
33.96
33.00
32.78
33.19
33.85
34.14
33.48
31.66
29.01
26.17
23.70
21.72
19.88
17.71
14.98
11.99
9.35
7.72
7.36
8.18
9.88
12.19
14.99
18.17
21.49
24.52
26.85
28.30
28.97
29.18
29.15
28.94
28.49
27.78
26.88
25.95
25.04
23.98
22.37
19.76
15.92
10.98
5.40
-0.29
-5.72
-10.75
-15.39
-19.71
-23.65
-27.11
-30.11
-32.93
-36.14
-40.45
-46.40
-54.17
-63.42
-73.39
-83.12
-91.71
-98.64
-103.96
-108.14
-111.83
-115.42
-118.60
-120.19
-118.33
-111.08
-97.13
-76.43
-50.42
-21.78
6.28
30.93
50.48
64.50
73.75
79.42
82.63
84.01
83.72
81.81
78.49
74.31
70.09
66.75
65.07
65.56
68.37
73.13
78.88
84.00
86.52
84.80
78.13
67.06
53.14
38.15
23.30
8.87
-5.56
-20.38
-35.35
-49.50
-61.57
-70.71
-76.87
-80.69
-82.92
-83.90
-83.41
-81.06
-76.72
-70.90
-64.65
-59.21
-55.69
-54.97
-57.54
-63.47
-72.15
-82.11
-91.25
-97.40
-99.23
-96.63
-90.64
-82.82
-74.39
-65.80
-56.81
-46.85
-35.48
-22.54
-8.16
7.29
23.13
38.24
51.15
60.35
64.94
65.10
62.36
59.23
58.72
63.24
73.67
88.52
103.86
114.39
115.38
104.74
84.18
58.56
33.79
14.47
2.37
-3.23
-4.20
-2.00
2.84
10.20
19.44
29.21
38.09
45.42
51.47
56.68
60.47
60.73
54.52
39.82
17.21
-9.80
-36.00
-56.67
-69.40
-74.44
-73.82
-69.86
-64.21
-57.77
-51.24
-45.70
-42.56
-42.88
-46.68
-52.59
-58.20
-60.90
-58.90
-51.88
-40.95
-28.16
-15.60
-4.65
4.31
11.79
18.66
25.52
32.41
38.91
44.53
49.16
53.15
57.02
60.97
64.62
67.07
67.41
65.27
61.10
55.98
51.06
47.06
44.11
41.89
39.97
38.16
36.46
34.97
33.58
32.00
29.91
27.13
23.81
20.25
16.77
13.51
10.36
7.15
3.73
0.14
-3.39
-6.57
-9.14
-10.97
-12.05
-12.50
-12.52
-12.39
-12.37
-12.61
-13.13
-13.77
-14.33
-14.70
-14.95
-15.31
-16.05
-17.36
-19.32
-21.91
-25.12
-28.98
-33.51
-38.62
-44.01
-49.23
-53.83
-57.45
-60.03
-61.71
-62.75
-63.43
-63.94
-64.38
-64.82
-65.34
-66.01
-66.94
-68.15
-69.67
-71.47
-73.53
-75.80
-78.17
-80.39
-82.03
-82.60
-81.59
-78.65
-73.72
-67.04
-59.05
-50.33
-41.46
-32.97
-25.26
-18.56
-12.88
-8.10
-3.93
-0.09
3.68
7.54
11.47
15.30
18.73
21.42
23.10
23.69
23.32
22.31
20.99
19.60
18.16
16.55
14.64
12.39
9.95
7.50
5.16
2.91
0.57
-2.08
-5.18
-8.66
-12.15
-15.06
-16.67
-16.26
-13.26
-7.42
1.14
11.87
23.73
35.38
45.34
52.37
55.74
55.50
52.44
47.89
43.24
39.48
36.81
34.70
32.08
27.87
21.46
13.10
4.16
-2.95
-5.29
-0.18
13.76
35.93
63.63
92.76
118.89
138.39
149.16
150.68
143.81
130.30
112.58
93.46
75.71
61.47
51.61
45.58
41.73
38.29
34.14
29.28
24.59
21.11
19.37
19.15
19.66
20.10
20.03
19.44
18.51
17.28
15.47
12.62
8.34
2.65
-4.01
-10.95
-17.58
-23.70
-29.55
-35.73
-42.77
-50.98
-60.17
-69.81
-79.18
-87.63
-94.75
-100.44
-104.88
-108.51
-111.91
-115.59
-119.83
-124.47
-128.87
-131.98
-132.62
-129.73
-122.68
-111.41
-96.51
-79.21
-61.17
-44.23
-29.98
-19.38
-12.51
-8.60
-6.34
-4.34
-1.57
2.45
7.58
13.24
18.68
23.16
26.17
27.46
27.10
25.37
22.67
19.39
15.83
12.21
8.64
5.07
1.32
-2.93
-8.07
-14.38
-21.98
-30.73
-40.28
-50.17
-59.83
-68.61
-75.79
-80.71
-82.97
-82.65
-80.40
-77.29
-74.39
-72.21
-70.26
-67.06
-60.79
-50.33
-36.27
-21.15
-8.71
-2.25
-3.09
-9.53
-17.23
-20.80
-15.62
0.86
28.88
66.95
112.17
160.12
204.68
238.73
256.35
255.38
239.13
215.53
193.91
180.94
178.02
181.50
185.47
185.26
179.53
169.87
158.75
147.46
135.36
120.98
103.51
83.82
64.13
46.99
33.79
24.31
16.96
9.57
0.69
-9.90
-21.07
-30.93
-37.68
-40.44
-39.48
-36.09
-31.94
-28.42
-26.19
-25.13
-24.55
-23.67
-22.06
-19.79
-17.41
-15.63
-14.92
-15.36
-16.58
-17.94
-18.82
-18.87
-18.06
-16.66
-15.05
-13.53
-12.28
-11.34
-10.71
-10.38
-10.39
-10.78
-11.49
-12.37
-13.12
-13.49
-13.36
-12.87
-12.36
-12.25
-12.79
-14.01
-15.63
-17.33
-18.84
-20.03
-20.92
-21.54
-21.87
-21.82
-21.34
-20.52
-19.59
-18.81
-18.38
-18.34
-18.59
-18.98
-19.39
-19.77
-20.05
-20.15
-19.93
-19.31
-18.22
-16.79
-15.22
-13.74
-12.55
-11.75
-11.29
-11.12
-11.14
-11.27
-11.49
-11.78
-12.15
-12.56
-13.03
-13.62
-14.36
-15.24
-16.19
-17.09
-17.89
-18.61
-19.36
-20.24
-21.23
-22.10
-22.45
-21.89
-20.19
-17.45
-14.07
-10.58
-7.49
-5.09
-3.44
-2.48
-2.09
-2.17
-2.63
-3.38
-4.24
-5.01
-5.52
-5.67
-5.52
-5.19
-4.84
-4.58
-4.46
-4.52
-4.78
-5.25
-5.97
-6.90
-7.96
-9.08
-10.17
-11.22
-12.24
-13.26
-14.34
-15.58
-17.08
-18.87
-20.85
-22.71
-23.98
-24.11
-22.72
-19.71
-15.34
-10.21
-5.01
-0.29
3.61
6.59
8.76
10.23
11.12
11.51
11.49
11.20
10.77
10.32
9.91
9.49
8.97
8.30
7.43
6.39
5.25
4.07
2.87
1.68
0.47
-0.78
-2.10
-3.52
-5.05
-6.75
-8.70
-10.94
-13.49
-16.33
-19.32
-22.20
-24.59
-26.01
-25.95
-24.05
-20.28
-15.06
-9.16
-3.46
1.38
5.07
7.79
9.89
11.71
13.34
14.71
15.66
16.17
16.32
16.21
15.92
15.47
14.77
13.86
12.79
11.74
10.86
10.24
9.84
9.48
8.87
7.71
5.82
3.27
0.39
-2.33
-4.50
-5.98
-7.04
-8.18
-9.91
-12.49
-15.84
-19.50
-22.76
-24.83
-25.08
-23.17
-19.19
-13.67
-7.47
-1.46
3.65
7.55
10.19
11.73
12.40
12.48
12.29
12.21
12.56
13.49
14.86
16.28
17.28
17.55
17.04
15.94
14.59
13.28
12.17
11.27
10.42
9.46
8.22
6.67
4.90
3.15
1.68
0.66
0.04
-0.38
-0.94
-1.91
-3.42
-5.30
-7.17
-8.48
-8.73
-7.54
-4.82
-0.70
4.48
10.34
16.52
22.71
28.59
33.76
37.74
40.16
40.91
40.33
39.15
38.18
38.03
38.76
39.90
40.64
40.09
37.58
32.82
25.97
17.68
9.08
1.71
-2.89
-3.61
-0.35
5.75
12.57
17.64
19.06
16.15
9.46
0.42
-9.32
-18.42
-26.02
-31.47
-34.20
-33.63
-29.50
-22.24
-13.08
-3.88
3.53
7.99
9.37
8.35
5.86
2.33
-2.63
-10.10
-21.24
-36.62
-55.85
-77.55
-99.80
-120.64
-138.61
-152.91
-163.37
-170.23
-173.82
-174.41
-172.05
-166.74
-158.46
-147.16
-132.76
-115.28
-95.18
-73.73
-53.16
-36.08
-24.69
-19.84
-20.71
-25.23
-30.90
-35.61
-37.87
-36.78
-31.73
-22.58
-9.87
4.71
18.63
29.23
34.67
34.67
30.34
23.57
16.24
9.83
5.36
3.58
5.03
9.90
17.75
27.45
37.35
45.72
51.30
53.59
52.85
49.84
45.43
40.26
34.66
28.78
22.74
16.76
11.08
5.74
0.49
-5.20
-11.73
-19.15
-26.82
-33.54
-37.82
-38.32
-34.15
-25.11
-11.64
5.27
24.21
43.48
61.32
76.06
86.44
91.86
92.54
89.65
85.06
80.91
78.91
79.65
82.20
84.41
83.69
78.01
66.66
50.41
31.18
11.25
-7.29
-22.87
-34.44
-41.31
-43.11
-39.87
-32.25
-21.63
-9.96
0.67
8.55
12.81
13.49
11.34
7.38
2.45
-2.83
-7.98
-12.30
-14.81
-14.60
-11.48
-6.45
-1.74
-0.10
-3.73
-13.40
-28.07
-45.26
-61.92
-75.39
-83.97
-87.13
-85.28
-79.39
-70.60
-60.09
-49.00
-38.45
-29.54
-23.22
-20.15
-20.57
-24.24
-30.52
-38.50
-47.15
-55.37
-62.00
-65.88
-65.99
-61.75
-53.27
-41.34
-27.31
-12.70
1.16
13.32
23.30
30.88
36.11
39.17
40.47
40.60
40.21
39.87
39.85
40.07
40.14
39.50
37.69
34.54
30.24
25.32
20.36
15.79
11.65
7.62
3.16
-2.15
-8.48
-15.62
-23.10
-30.27
-36.42
-40.77
-42.57
-41.23
-36.44
-28.35
-17.60
-5.15
7.91
20.59
32.16
42.13
50.15
56.00
59.63
61.20
61.14
60.07
58.69
57.53
56.84
56.50
56.16
55.34
53.68
50.98
47.34
43.02
38.33
33.53
28.69
23.69
18.25
12.00
4.68
-3.70
-12.72
-21.55
-29.05
-34.10
-35.82
-33.89
-28.56
-20.64
-11.19
-1.34
8.03
16.31
23.19
28.54
32.37
34.78
35.91
36.01
35.41
34.42
33.33
32.31
31.36
30.36
29.19
27.79
26.26
24.77
23.48
22.39
21.27
19.75
17.39
13.87
9.10
3.27
-3.14
-9.43
-14.74
-18.23
-19.20
-17.27
-12.48
-5.30
3.47
12.93
22.19
30.51
37.31
42.18
44.91
45.50
44.28
41.86
38.97
36.28
34.22
32.77
31.63
30.35
28.54
26.11
23.21
20.14
17.20
14.55
12.13
9.72
7.00
3.60
-0.74
-6.07
-12.09
-18.15
-23.26
-26.43
-26.87
-24.31
-19.00
-11.69
-3.34
5.17
13.14
20.15
25.97
30.47
33.51
34.97
34.84
33.33
30.94
28.37
26.28
25.08
24.71
24.71
24.50
23.64
22.06
20.07
18.06
16.29
14.70
13.01
10.87
8.10
4.69
0.72
-3.75
-8.74
-14.10
-19.40
-23.83
-26.32
-25.94
-22.23
-15.44
-6.40
3.70
13.73
22.82
30.44
36.35
40.45
42.76
43.41
42.66
40.94
38.76
36.58
34.70
33.18
31.84
30.40
28.59
26.25
23.38
20.07
16.49
12.75
8.96
5.21
1.58
-1.83
-4.93
-7.77
-10.51
-13.47
-16.87
-20.76
-24.77
-28.24
-30.30
-30.25
-27.77
-23.03
-16.60
-9.27
-1.75
5.36
11.62
16.69
20.25
22.04
21.99
20.30
17.45
14.10
10.95
8.54
7.10
6.57
6.59
6.69
6.46
5.64
4.22
2.39
0.46
-1.33
-2.92
-4.47
-6.26
-8.61
-11.73
-15.69
-20.34
-25.32
-30.04
-33.70
-35.47
-34.70
-31.13
-25.04
-17.16
-8.50
-0.06
7.42
13.46
17.88
20.64
21.82
21.57
20.15
17.97
15.46
13.05
11.01
9.46
8.31
7.35
6.29
4.86
2.93
0.51
-2.24
-5.07
-7.75
-10.18
-12.39
-14.55
-16.82
-19.24
-21.72
-24.03
-25.88
-26.99
-27.07
-25.87
-23.24
-19.20
-14.06
-8.32
-2.51
3.04
8.32
13.52
18.81
23.91
28.00
29.78
27.96
21.69
10.97
-3.26
-19.28
-35.02
-48.59
-58.68
-64.90
-67.72
-68.08
-66.93
-64.75
-61.55
-57.10
-51.42
-44.90
-38.29
-32.25
-27.19
-23.33
-20.97
-20.67
-22.81
-27.07
-31.93
-34.87
-33.35
-25.94
-13.06
3.19
19.94
34.75
46.39
54.84
60.71
64.63
66.92
67.65
66.96
65.25
63.13
61.10
59.30
57.52
55.38
52.72
49.82
47.43
46.43
47.48
50.63
55.27
60.29
64.31
66.09
64.85
60.38
53.15
44.18
34.82
26.42
19.98
15.86
13.75
12.85
12.22
11.17
9.53
7.73
6.62
7.02
9.31
13.17
17.71
21.87
24.93
26.84
28.14
29.53
31.37
33.45
35.11
35.74
35.14
33.75
32.24
31.09
30.11
28.52
25.40
20.39
14.00
7.55
2.56
-0.06
-0.48
0.12
0.08
-2.03
-6.81
-13.98
-22.50
-31.13
-38.86
-45.29
-50.74
-56.18
-62.89
-71.94
-83.68
-97.37
-111.18
-122.64
-129.27
-129.30
-122.21
-108.81
-90.91
-70.80
-50.62
-32.01
-15.92
-2.69
7.85
16.16
22.87
28.54
33.37
37.08
39.00
38.42
35.11
29.66
23.41
17.96
14.45
13.01
12.87
12.89
12.32
11.24
10.40
10.64
12.23
14.53
16.31
16.36
14.23
10.38
5.93
1.89
-1.48
-4.79
-9.06
-14.88
-21.76
-28.14
-32.10
-32.31
-28.70
-22.41
-15.11
-8.17
-2.20
2.84
7.19
10.93
13.95
16.21
17.95
19.75
22.19
25.50
29.32
32.88
35.28
35.92
34.69
32.04
28.79
25.86
23.93
23.17
23.21
23.28
22.65
20.85
17.79
13.67
8.83
3.68
-1.23
-5.19
-7.54
-8.01
-7.10
-6.04
-6.37
-9.27
-15.00
-22.83
-31.43
-39.56
-46.56
-52.42
-57.52
-62.21
-66.53
-70.21
-72.98
-74.83
-76.09
-77.29
-78.88
-81.06
-83.76
-86.89
-90.52
-94.87
-99.93
-105.06
-108.74
-108.96
-104.15
-94.11
-80.34
-65.49
-52.25
-42.21
-35.57
-31.62
-29.61
-29.27
-30.66
-33.52
-36.76
-38.53
-36.94
-31.01
-21.31
-9.78
0.92
8.45
11.56
10.39
6.34
1.46
-2.25
-3.50
-2.03
1.49
5.97
10.53
14.94
19.57
24.98
31.50
38.87
46.35
52.96
57.98
61.12
62.63
63.03
62.90
62.55
61.86
60.43
57.78
53.78
48.76
43.51
38.99
35.97
34.81
35.29
36.83
38.69
40.25
41.22
41.66
41.82
41.95
42.12
42.13
41.66
40.34
38.01
34.78
30.93
26.82
22.68
18.67
14.83
11.21
7.77
4.31
0.40
-4.46
-10.65
-18.13
-26.47
-34.98
-43.06
-50.35
-56.77
-62.39
-67.26
-71.42
-75.07
-78.55
-82.18
-85.84
-88.72
-89.48
-86.77
-80.01
-69.81
-57.84
-46.17
-36.25
-28.40
-21.63
-14.36
-5.05
7.00
21.53
37.48
53.51
68.42
81.38
92.00
100.17
105.91
109.32
110.69
110.50
109.49
108.37
107.58
107.04
106.09
103.71
98.80
90.63
79.00
64.38
47.78
30.48
13.70
-1.60
-14.96
-26.22
-35.43
-42.55
-47.40
-49.75
-49.63
-47.53
-44.42
-41.54
-39.91
-40.00
-41.57
-43.90
-46.23
-48.09
-49.48
-50.69
-52.01
-53.47
-54.80
-55.63
-55.67
-54.89
-53.43
-51.54
-49.44
-47.36
-45.48
-43.89
-42.50
-41.00
-38.98
-36.17
-32.65
-28.84
-25.31
-22.49
-20.50
-19.17
-18.30
-17.70
-17.24
-16.65
-15.44
-13.07
-9.22
-4.07
1.75
7.40
12.30
16.30
19.64
22.63
25.34
27.55
28.91
29.22
28.58
27.43
26.24
25.38
24.90
24.64
24.30
23.65
22.60
21.26
19.81
18.45
17.31
16.36
15.43
14.23
12.51
10.17
7.37
4.41
1.68
-0.58
-2.36
-3.84
-5.31
-7.07
-9.33
-12.18
-15.55
-19.20
-22.65
-25.24
-26.22
-25.04
-21.50
-15.85
-8.71
-0.85
7.02
14.40
21.03
26.76
31.54
35.30
38.04
39.87
41.05
41.97
42.97
44.29
45.91
47.61
49.10
50.18
50.83
51.17
51.41
51.66
51.93
52.13
52.15
51.80
50.76
48.56
44.71
38.98
31.51
22.87
13.64
4.13
-5.86
-16.77
-28.89
-41.94
-55.15
-67.51
-78.27
-87.12
-94.03
-98.84
-101.05
-99.84
-94.56
-85.20
-72.62
-58.34
-44.08
-31.17
-20.32
-11.60
-4.69
0.87
5.40
9.08
11.95
14.06
15.55
16.60
17.41
18.06
18.50
18.65
18.42
17.86
17.10
16.25
15.31
14.10
12.40
10.05
7.14
3.94
0.85
-1.82
-4.01
-5.87
-7.79
-10.09
-13.00
-16.50
-20.30
-23.93
-26.76
-28.20
-27.79
-25.34
-20.96
-15.10
-8.33
-1.30
5.46
11.58
16.80
20.98
24.01
25.82
26.43
25.99
24.76
23.10
21.36
19.72
18.21
16.76
15.25
13.66
12.09
10.64
9.36
8.13
6.70
4.85
2.48
-0.31
-3.30
-6.25
-9.00
-11.50
-13.80
-16.01
-18.27
-20.79
-23.80
-27.46
-31.71
-36.21
-40.29
-43.13
-43.99
-42.45
-38.58
-32.84
-25.90
-18.44
-11.00
-3.93
2.59
8.41
13.40
17.40
20.29
22.05
22.84
22.98
22.85
22.80
23.02
23.43
23.83
23.96
23.73
23.19
22.55
21.99
21.59
21.20
20.59
19.54
17.91
15.72
13.07
10.09
6.95
3.79
0.75
-2.15
-4.99
-7.99
-11.47
-15.68
-20.66
-26.06
-31.23
-35.26
-37.31
-36.88
-33.95
-29.03
-22.94
-16.51
-10.38
-4.88
-0.06
4.14
7.75
10.69
12.81
13.98
14.21
13.66
12.58
11.23
9.77
8.19
6.36
4.13
1.48
-1.39
-4.18
-6.59
-8.54
-10.16
-11.77
-13.67
-15.97
-18.56
-21.15
-23.42
-25.13
-26.22
-26.76
-26.85
-26.63
-26.25
-25.84
-25.53
-25.33
-25.07
-24.44
-23.05
-20.61
-17.09
-12.73
-8.01
-3.42
0.61
3.85
6.20
7.63
8.13
7.68
6.31
4.16
1.50
-1.33
-3.95
-6.07
-7.45
-8.04
-7.84
-6.97
-5.60
-3.88
-2.01
-0.16
1.51
2.84
3.72
4.10
4.03
3.61
2.95
2.09
0.92
-0.85
-3.54
-7.43
-12.46
-18.17
-23.71
-28.00
-30.10
-29.48
-26.19
-20.75
-13.93
-6.47
1.17
8.74
16.15
23.28
29.87
35.56
40.00
42.97
44.47
44.70
43.97
42.63
40.96
39.13
37.18
35.02
32.51
29.51
25.97
22.02
17.97
14.16
10.86
8.11
5.74
3.47
1.06
-1.55
-4.23
-6.79
-9.18
-11.58
-14.33
-17.78
-21.97
-26.54
-30.76
-33.82
-35.08
-34.36
-31.93
-28.35
-24.23
-19.97
-15.56
-10.88
-5.98
-1.03
3.65
7.60
10.37
11.67
11.48
10.09
7.93
5.28
2.43
-0.39
-3.06
-5.55
-7.88
-10.00
-11.62
-12.51
-12.88
-12.93
-12.71
-12.30
-11.75
-11.00
-9.98
-8.11
-5.14
-2.03
0.46
2.19
3.09
3.19
2.62
1.64
1.69
4.04
7.76
12.58
19.13
27.57
37.47
48.00
58.35
69.72
82.99
95.36
104.83
111.25
114.74
116.02
116.41
117.26
121.60
130.79
140.73
148.69
154.99
160.53
166.19
172.00
162.46
128.49
90.71
57.81
26.19
-3.06
-28.28
-48.28
-62.83
-72.70
-77.05
-75.90
-73.70
-73.06
-73.72
-75.30
-77.55
-80.40
-83.88
-86.04
-85.14
-82.76
-79.51
-74.54
-67.90
-60.51
-53.78
-49.07
-46.01
-43.75
-43.00
-43.58
-44.33
-44.66
-44.57
-44.35
-44.29
-43.88
-42.47
-40.41
-37.91
-34.88
-31.54
-28.28
-25.44
-23.24
-21.50
-20.00
-18.92
-18.36
-18.25
-18.53
-19.16
-20.02
-21.01
-22.01
-22.97
-23.95
-25.08
-26.53
-28.39
-30.56
-32.65
-34.08
-34.25
-32.73
-29.40
-24.47
-18.45
-12.01
-5.74
-0.10
4.64
8.27
10.63
11.68
11.52
10.47
9.00
7.59
6.64
6.27
6.30
6.39
6.27
5.88
5.31
4.66
3.92
3.16
2.25
0.90
-1.14
-3.82
-6.69
-9.10
-10.51
-10.78
-9.74
-7.91
-6.37
-6.23
-7.80
-10.25
-11.87
-10.90
-6.27
2.64
14.88
28.12
39.73
48.15
53.67
58.00
63.18
70.60
81.43
95.06
109.31
121.32
128.90
131.18
128.39
121.60
105.66
80.32
50.71
24.49
5.96
-6.10
-15.79
-26.37
-38.12
-48.56
-53.15
-49.24
-37.86
-23.52
-11.82
-6.83
-9.55
-17.97
-28.26
-35.47
-37.42
-34.39
-28.72
-23.23
-19.53
-17.63
-16.28
-14.04
-9.69
-3.40
3.56
9.60
13.83
16.56
18.81
21.48
24.77
28.28
31.06
32.25
31.47
29.01
25.70
22.42
19.77
17.82
16.28
14.57
12.18
8.79
4.41
-0.56
-5.55
-10.09
-13.99
-17.37
-20.60
-24.06
-28.00
-32.44
-37.06
-41.27
-44.26
-45.21
-43.47
-38.83
-31.60
-22.61
-12.98
-3.76
4.33
10.99
16.32
20.59
24.09
26.96
29.15
30.45
30.56
29.15
25.96
20.89
14.12
6.13
-2.40
-10.70
-18.09
-24.04
-28.27
-30.69
-31.39
-30.67
-28.94
-26.74
-24.60
-22.99
-22.27
-22.61
-23.95
-26.11
-28.85
-31.93
-35.17
-38.28
-40.93
-42.62
-42.75
-40.86
-36.71
-30.53
-22.93
-14.76
-6.84
0.27
6.24
11.00
14.49
16.70
17.59
17.24
15.88
13.91
11.82
10.00
8.66
7.79
7.19
6.63
5.94
5.04
3.97
2.73
1.35
-0.21
-1.99
-4.03
-6.27
-8.64
-11.00
-13.31
-15.61
-18.01
-20.59
-23.27
-25.72
-27.38
-27.60
-25.85
-21.94
-16.06
-8.75
-0.74
7.24
14.61
20.97
26.11
29.98
32.58
33.95
34.17
33.41
31.92
30.03
28.12
26.46
25.17
24.16
23.21
22.03
20.49
18.60
16.54
14.56
12.78
11.14
9.40
7.20
4.23
0.36
-4.38
-9.81
-15.63
-21.56
-27.20
-32.07
-35.53
-36.88
-35.47
-30.98
-23.58
-13.96
-3.17
7.56
17.21
25.06
30.80
34.50
36.34
36.54
35.26
32.79
29.67
26.62
24.24
22.73
21.64
20.19
17.65
13.87
9.27
4.62
0.43
-3.36
-7.33
-12.05
-17.58
-23.25
-28.03
-31.05
-32.17
-32.00
-31.59
-31.86
-33.21
-35.47
-37.97
-39.86
-40.40
-39.09
-35.82
-30.91
-24.91
-18.50
-12.36
-7.02
-2.76
0.35
2.43
3.64
4.12
4.05
3.68
3.21
2.75
2.32
1.88
1.42
1.01
0.65
0.44
0.38
0.29
-0.20
-1.37
-3.30
-5.68
-8.05
-10.32
-12.41
-14.52
-17.36
-21.85
-28.58
-37.44
-47.56
-57.75
-67.86
-77.67
-87.33
-97.39
-108.39
-119.99
-130.88
-139.10
-142.98
-142.95
-139.63
-134.05
-128.07
-124.03
-123.98
-129.14
-139.38
-152.84
-167.14
-176.39
-173.28
-152.38
-113.04
-60.25
-3.51
46.13
89.78
122.26
140.24
146.23
146.50
145.59
144.33
141.56
136.70
131.02
125.26
121.11
119.42
119.03
117.55
113.05
105.22
95.38
85.90
77.78
72.15
69.31
68.24
67.02
64.03
58.73
51.76
44.69
38.29
33.22
29.64
26.83
23.69
19.34
13.19
5.17
-4.78
-17.37
-32.44
-48.20
-61.08
-66.56
-60.96
-42.39
-15.37
13.26
35.88
47.39
47.11
37.92
24.60
11.82
2.73
-1.21
1.09
9.67
23.28
38.63
50.31
52.17
39.81
13.07
-22.58
-56.54
-77.70
-78.65
-58.74
-23.72
17.12
54.91
84.21
100.47
104.26
98.09
83.55
60.98
31.47
-1.30
-31.37
-52.28
-60.34
-55.56
-42.99
-27.79
-14.69
-6.21
-2.17
-0.63
1.09
4.75
11.08
19.29
27.91
35.24
40.46
43.69
43.80
41.12
36.12
29.20
20.39
10.00
-1.22
-11.94
-20.63
-26.02
-27.11
-23.69
-16.40
-6.74
3.14
10.84
14.57
13.94
10.03
5.19
1.56
0.28
1.15
3.15
5.18
6.72
7.99
9.52
11.61
14.02
16.02
16.94
16.57
15.12
13.06
10.60
8.11
5.60
2.85
-0.60
-4.89
-9.85
-15.11
-20.29
-25.14
-29.54
-33.42
-36.96
-40.56
-43.85
-46.11
-46.88
-46.10
-44.10
-41.39
-38.47
-35.87
-34.49
-34.23
-34.47
-34.64
-34.42
-33.78
-33.01
-33.13
-36.43
-45.86
-61.44
-80.23
-96.78
-104.75
-99.09
-77.93
-42.99
6.08
64.10
127.08
191.99
254.55
308.40
346.24
362.05
354.09
322.17
271.15
211.76
154.64
105.85
67.46
40.27
24.85
20.84
19.66
12.74
-1.81
-21.05
-41.55
-61.09
-79.25
-97.69
-119.86
-157.08
-215.42
-289.41
-367.77
-441.56
-505.61
-556.43
-590.25
-555.25
-436.65
-274.25
-123.90
-14.18
54.20
93.11
115.70
131.54
144.90
148.29
136.88
115.59
94.88
82.58
81.71
90.61
105.20
120.78
127.89
122.32
108.93
96.60
91.67
96.77
110.93
131.80
156.50
178.02
190.68
192.15
182.58
158.98
125.38
88.39
55.57
32.56
19.20
11.32
4.99
-1.84
-10.24
-19.84
-30.59
-42.66
-56.61
-73.78
-90.34
-105.56
-118.45
-127.83
-132.44
-132.42
-129.40
-126.13
-125.55
-128.79
-134.13
-136.38
-128.95
-107.16
-71.51
-27.65
16.16
52.62
78.47
94.78
103.73
106.20
100.87
85.56
59.88
26.98
-7.36
-36.32
-55.53
-64.42
-65.81
-64.04
-62.09
-61.16
-61.53
-64.50
-71.68
-85.08
-105.18
-130.19
-155.96
-175.30
-182.20
-169.52
-137.62
-91.45
-38.90
13.09
59.44
97.59
129.52
156.94
178.07
187.76
182.19
160.69
128.70
94.94
68.95
61.90
79.96
120.40
173.21
227.46
274.06
310.04
335.58
330.32
286.77
218.15
147.64
90.67
57.77
38.96
25.71
10.92
-10.94
-43.58
-86.15
-137.14
-194.94
-256.68
-319.42
-377.84
-426.76
-461.35
-474.94
-463.45
-429.08
-379.32
-323.18
-268.65
-218.79
-173.61
-131.10
-86.92
-37.64
16.78
73.58
129.06
179.56
223.42
259.87
288.84
311.69
330.52
347.08
362.93
379.08
395.75
412.54
427.41
436.89
437.32
426.23
403.48
371.95
335.94
300.41
269.52
244.53
223.08
200.39
171.85
135.11
90.73
39.42
-16.57
-73.26
-125.50
-168.71
-200.10
-219.25
-228.00
-230.32
-234.64
-248.25
-273.76
-308.24
-345.44
-378.23
-400.01
-406.10
-395.10
-373.91
-351.69
-335.67
-329.22
-333.55
-348.82
-373.80
-405.18
-410.69
-369.74
-286.03
-183.62
-86.01
-5.74
53.62
93.65
118.54
132.97
136.45
128.81
111.61
89.70
68.52
51.76
41.09
36.48
36.61
36.43
31.98
22.85
11.84
2.29
-3.93
-6.43
-5.53
-1.58
3.23
7.40
10.94
15.05
20.31
26.05
30.99
34.38
36.57
37.80
38.91
41.11
45.58
52.65
61.66
71.50
81.08
89.43
95.23
97.27
94.89
88.43
79.13
68.83
59.42
52.25
47.80
45.73
45.14
45.00
44.42
42.73
39.58
34.90
29.03
22.73
16.97
12.65
10.21
9.49
9.87
10.67
11.60
13.08
15.98
21.21
29.13
39.18
50.03
60.01
67.65
72.15
73.42
71.85
67.93
62.07
54.52
45.55
35.53
25.03
14.74
5.31
-2.75
-9.10
-13.70
-16.84
-19.22
-21.67
-24.95
-29.40
-34.81
-40.44
-45.15
-47.74
-47.38
-43.78
-37.23
-28.14
-16.72
-2.79
14.07
34.36
58.11
84.56
112.11
138.56
161.46
178.52
188.38
191.28
189.88
188.64
191.72
200.55
212.54
221.74
220.92
204.43
170.14
120.69
62.32
1.80
-55.65
-106.72
-149.02
-180.67
-200.20
-207.84
-204.70
-192.87
-176.41
-161.33
-154.19
-159.85
-180.09
-212.69
-252.26
-289.48
-312.85
-313.06
-285.93
-233.84
-164.18
-87.89
-16.86
29.31
31.32
-13.77
-85.92
-154.39
-196.52
-203.90
-184.62
-149.78
-110.05
-71.14
-32.33
3.60
35.45
62.58
85.55
105.69
124.86
143.60
162.08
179.76
193.98
200.69
195.46
176.31
144.89
106.65
68.48
37.49
19.17
15.23
23.78
39.87
57.85
73.08
83.15
87.38
86.80
83.35
78.65
73.67
68.18
61.45
52.74
41.84
29.06
15.41
2.40
-8.47
-16.03
-19.85
-20.26
-18.20
-14.86
-11.46
-8.83
-7.28
-6.57
-6.11
-5.36
-4.22
-3.06
-2.68
-4.00
-7.65
-13.75
-21.70
-30.25
-37.76
-42.66
-43.83
-40.96
-34.61
-26.06
-16.86
-8.49
-1.99
2.17
4.04
3.99
2.56
0.28
-2.48
-5.42
-8.44
-11.48
-14.45
-17.21
-19.48
-20.97
-21.48
-20.94
-19.53
-17.58
-15.49
-13.60
-12.09
-11.00
-10.24
-9.77
-9.62
-9.94
-10.97
-12.92
-15.90
-19.86
-24.46
-29.19
-33.32
-36.10
-36.78
-34.83
-30.04
-22.68
-13.49
-3.49
6.28
14.99
22.19
27.73
31.63
33.92
34.63
33.82
31.73
28.78
25.51
22.36
19.62
17.34
15.50
14.08
13.08
12.49
12.18
11.84
11.05
9.45
6.86
3.40
-0.63
-4.81
-8.78
-12.32
-15.39
-18.15
-20.82
-23.53
-26.18
-28.25
-28.95
-27.45
-23.22
-16.36
-7.59
1.91
10.93
18.57
24.45
28.68
31.64
33.73
35.26
36.45
37.48
38.65
40.28
42.63
45.77
49.40
53.00
55.90
57.58
57.84
56.86
55.14
53.27
51.72
50.75
50.29
49.98
49.27
47.58
44.38
39.36
32.47
23.94
14.14
3.51
-7.62
-19.03
-30.54
-41.80
-52.16
-60.56
-65.69
-66.27
-61.51
-51.42
-36.88
-19.39
-0.68
17.67
34.42
48.65
59.62
66.67
69.40
67.83
62.51
54.54
45.20
35.55
26.14
16.81
6.97
-4.05
-16.56
-30.14
-43.53
-54.79
-61.86
-63.14
-58.14
-47.90
-35.05
-23.51
-18.09
-23.50
-43.09
-77.28
-122.34
-170.27
-210.49
-232.82
-230.79
-203.82
-157.14
-99.70
-41.14
10.77
51.35
78.79
93.23
95.91
88.82
74.70
56.96
39.33
25.14
16.66
14.75
18.84
27.17
37.30
46.79
53.69
56.97
56.58
53.18
47.76
41.29
34.51
27.96
22.02
17.01
13.20
10.77
9.61
9.25
8.82
7.29
3.73
-2.30
-10.54
-20.03
-29.44
-37.53
-43.48
-47.12
-48.73
-48.79
-47.58
-45.02
-40.70
-34.11
-24.93
-13.30
0.12
14.17
27.34
38.06
44.89
46.88
43.74
36.09
25.32
13.41
2.44
-5.83
-10.32
-10.78
-7.61
-1.80
5.24
11.70
15.54
14.81
8.26
-4.05
-20.44
-37.83
-52.61
-61.75
-63.74
-58.93
-49.26
-37.59
-26.80
-19.15
-15.77
-16.42
-19.45
-22.14
-21.47
-15.06
-2.15
16.01
36.42
55.22
68.83
74.89
72.60
62.72
47.21
28.80
10.60
-4.53
-14.47
-18.50
-17.37
-13.01
-7.71
-3.32
-0.57
0.91
2.10
3.81
6.12
8.32
9.26
8.11
4.77
-0.06
-5.32
-10.09
-14.02
-17.19
-19.72
-21.40
-21.62
-19.83
-16.06
-11.23
-7.00
-5.13
-6.66
-11.47
-18.32
-25.40
-31.01
-34.07
-34.38
-32.47
-29.20
-25.33
-21.12
-16.28
-10.09
-1.88
8.67
21.08
34.11
45.85
54.26
57.74
55.69
48.78
38.73
27.66
17.14
7.56
-1.98
-12.93
-26.40
-42.31
-59.22
-74.86
-86.99
-94.08
-95.48
-91.19
-81.49
-66.85
-48.02
-26.44
-4.33
15.58
30.62
38.96
40.09
34.96
25.71
15.13
5.92
0.06
-1.60
0.53
5.09
10.24
14.43
16.92
18.03
18.75
20.19
22.84
26.38
29.88
32.35
33.26
32.65
30.88
28.23
24.69
20.18
14.92
9.64
5.33
2.72
1.79
1.63
0.98
-1.10
-4.61
-8.65
-11.81
-12.95
-11.63
-8.24
-3.81
0.49
3.71
5.39
5.54
4.57
3.03
1.36
-0.20
-1.61
-2.98
-4.43
-6.11
-8.20
-10.88
-14.35
-18.68
-23.73
-29.21
-34.73
-39.98
-44.85
-49.46
-54.08
-59.00
-64.49
-70.67
-77.52
-84.84
-92.26
-99.34
-105.60
-110.59
-113.78
-114.38
-111.05
-101.94
-84.92
-58.40
-22.05
22.86
73.75
127.47
180.96
231.47
276.40
313.12
339.24
353.29
355.38
347.40
332.26
312.73
290.45
265.78
238.49
208.82
178.06
148.28
121.41
98.43
79.04
62.08
46.38
31.29
16.92
3.76
-7.80
-18.01
-27.73
-38.12
-50.03
-63.38
-77.02
-88.93
-96.93
-99.51
-96.33
-88.45
-77.86
-66.87
-57.35
-50.28
-45.72
-43.16
-42.02
-42.07
-43.42
-46.28
-50.61
-55.96
-61.49
-66.32
-69.89
-72.14
-73.37
-74.01
-74.27
-74.02
-72.92
-70.70
-67.28
-63.02
-58.53
-54.53
-51.55
-49.84
-49.30
-49.66
-50.64
-52.12
-54.00
-56.08
-57.86
-58.51
-57.13
-53.05
-46.18
-37.10
-26.87
-16.66
-7.36
0.56
6.96
11.94
15.65
18.20
19.68
20.22
20.03
19.32
18.38
17.42
16.57
15.86
15.27
14.76
14.31
13.93
13.62
13.29
12.77
11.84
10.32
8.18
5.57
2.77
0.09
-2.31
-4.44
-6.43
-8.54
-10.98
-13.83
-16.96
-20.01
-22.41
-23.50
-22.73
-19.85
-15.01
-8.77
-1.90
4.79
10.67
15.38
18.81
21.05
22.26
22.60
22.21
21.18
19.64
17.74
15.66
13.62
11.85
10.52
9.70
9.35
9.30
9.27
8.97
8.13
6.62
4.41
1.64
-1.47
-4.68
-7.75
-10.53
-12.95
-15.02
-16.90
-18.83
-21.03
-23.60
-26.35
-28.75
-30.00
-29.33
-26.21
-20.65
-13.17
-4.58
4.25
12.63
20.07
26.19
30.63
33.14
33.68
32.62
30.78
29.20
28.77
29.88
32.22
34.96
37.10
37.93
37.28
35.57
33.49
31.72
30.63
30.24
30.32
30.50
30.44
29.87
28.68
26.97
25.11
23.63
23.00
23.35
24.34
25.28
25.46
24.63
23.11
21.67
21.12
21.91
24.04
27.10
30.60
34.08
37.26
39.84
41.51
41.96
40.98
38.58
35.01
30.66
25.89
20.92
15.79
10.42
4.66
-1.53
-8.09
-14.77
-21.21
-27.02
-31.96
-36.05
-39.52
-42.73
-45.90
-49.03
-51.94
-54.34
-56.05
-57.12
-57.81
-58.50
-59.54
-61.13
-63.21
-65.49
-67.46
-68.51
-68.01
-65.59
-61.22
-55.32
-48.64
-42.10
-36.53
-32.49
-30.16
-29.35
-29.56
-30.06
-30.01
-28.57
-25.14
-19.48
-11.81
-2.83
6.51
15.31
22.88
28.90
33.39
36.58
38.83
40.49
41.83
42.98
43.82
44.00
43.03
40.43
35.92
29.49
21.39
12.04
1.97
-8.22
-17.87
-26.30
-32.85
-37.03
-38.56
-37.42
-33.78
-27.96
-20.36
-11.53
-2.15
7.00
15.01
21.08
24.58
25.24
23.15
18.76
12.73
5.70
-1.84
-9.75
-18.07
-26.90
-36.03
-44.78
-52.06
-56.65
-57.74
-55.23
-49.96
-43.46
-37.53
-33.81
-33.43
-36.87
-43.93
-53.77
-64.99
-75.80
-84.42
-89.38
-89.84
-85.80
-77.93
-67.32
-55.04
-41.93
-28.58
-15.48
-3.12
8.02
17.50
25.04
30.68
34.73
37.82
40.59
43.32
45.88
47.66
47.63
44.74
38.34
28.65
16.87
4.81
-6.11
-14.93
-21.50
-26.39
-30.46
-34.28
-37.74
-40.07
-40.33
-38.97
-36.66
-34.15
-32.02
-30.51
-29.77
-30.22
-32.80
-39.04
-51.92
-72.81
-100.79
-132.85
-164.92
-193.34
-215.71
-230.83
-238.06
-238.07
-229.50
-209.86
-177.80
-135.41
-89.24
-48.51
-21.84
-1.07
19.10
43.02
72.14
104.59
136.33
162.75
181.00
191.47
196.46
197.09
194.53
189.10
179.43
164.68
144.64
120.94
97.38
78.14
66.09
63.78
71.98
88.46
108.29
125.37
134.82
133.95
120.53
93.86
55.85
9.84
-40.67
-92.19
-140.95
-182.39
-202.42
-192.23
-155.04
-104.45
-55.47
-17.21
8.52
24.02
32.10
33.44
24.84
2.76
-32.94
-77.86
-125.83
-170.56
-207.69
-234.99
-251.06
-255.28
-246.53
-223.94
-188.51
-144.08
-96.90
-52.98
-16.40
11.53
32.55
50.28
67.96
87.08
107.81
129.01
149.38
168.52
187.32
207.09
229.07
253.98
282.61
316.57
355.83
397.66
436.54
465.60
478.79
473.10
449.58
413.17
371.55
330.05
290.20
250.76
210.29
169.08
129.17
92.59
52.04
7.03
-38.35
-78.19
-108.32
-127.09
-134.78
-133.26
-127.63
-122.88
-121.90
-127.00
-139.51
-159.32
-185.35
-216.66
-249.22
-281.01
-311.41
-340.64
-371.16
-405.91
-445.37
-485.32
-516.93
-529.95
-517.95
-481.14
-426.23
-364.33
-305.72
-255.60
-212.94
-173.02
-131.57
-88.20
-46.04
-9.00
20.66
44.38
67.24
95.90
136.16
190.69
257.46
330.13
399.20
453.63
483.45
482.81
452.65
401.89
345.73
301.05
280.51
287.50
314.85
347.99
371.44
375.08
357.46
324.32
284.05
242.79
201.94
159.12
111.19
56.99
-1.94
-62.21
-119.96
-171.35
-212.76
-241.39
-256.61
-261.73
-264.09
-272.95
-295.30
-331.89
-376.07
-416.25
-440.68
-442.01
-419.41
-377.54
-323.96
-266.67
-212.68
-167.90
-136.97
-122.38
-123.36
-135.71
-152.55
-166.68
-173.03
-170.17
-160.25
-147.62
-137.14
-132.83
-136.89
-149.15
-166.89
-185.10
-197.60
-198.87
-185.84
-159.22
-123.26
-83.82
-46.01
-12.25
18.05
47.30
77.81
110.33
143.79
175.79
203.94
226.76
244.05
256.82
266.88
276.28
286.84
299.64
314.34
328.93
339.84
342.83
334.35
312.94
280.06
239.99
198.70
162.30
135.48
120.48
116.75
121.54
130.86
140.70
147.95
150.98
149.51
144.11
135.76
125.52
114.45
103.30
92.10
79.86
64.96
46.37
25.00
4.11
-12.18
-21.54
-25.74
-30.58
-43.18
-67.87
-102.94
-140.55
-169.83
-181.46
-171.38
-141.78
-99.41
-52.63
-8.94
26.19
49.28
58.44
53.06
34.01
3.78
-33.70
-73.68
-111.50
-143.46
-167.43
-182.98
-190.90
-192.53
-189.08
-181.29
-169.53
-154.23
-136.15
-116.59
-97.07
-79.27
-64.80
-55.17
-51.48
-53.93
-61.16
-70.08
-76.36
-75.84
-66.14
-47.85
-24.48
-1.11
17.56
29.16
34.41
36.81
41.22
52.06
71.67
99.22
130.56
158.97
176.79
177.40
157.16
116.71
61.11
-1.18
-60.26
-107.14
-135.66
-143.38
-131.24
-102.48
-61.42
-12.72
38.72
87.67
128.79
157.48
171.07
169.65
155.90
133.76
106.64
76.22
42.50
5.16
-34.77
-73.91
-106.96
-128.31
-134.04
-123.29
-98.35
-63.46
-23.28
18.52
59.69
99.01
135.46
167.52
193.10
209.96
216.46
212.19
198.34
177.61
153.68
130.62
112.01
100.07
95.17
95.71
98.56
100.08
97.23
88.64
75.05
59.13
44.64
35.20
33.17
38.93
50.86
66.13
81.74
95.54
106.74
115.44
121.69
124.60
122.09
111.81
92.61
65.80
35.16
5.61
-18.87
-36.77
-49.34
-59.27
-68.76
-78.01
-85.10
-87.21
-82.28
-70.22
-53.03
-33.96
-16.64
-4.52
-0.82
-8.59
-30.15
-65.90
-113.09
-165.50
-214.60
-252.14
-272.88
-276.24
-265.89
-247.78
-227.59
-209.13
-194.12
-182.85
-174.88
-169.24
-164.36
-158.20
-149.01
-136.31
-121.31
-106.30
-93.03
-81.39
-69.16
-53.20
-31.39
-3.95
26.54
56.34
82.00
101.35
113.43
118.26
116.45
109.33
99.06
88.32
79.59
74.23
71.96
71.00
69.17
65.08
58.95
52.52
48.31
48.36
53.35
62.19
72.36
80.76
84.74
82.88
75.25
63.17
48.54
33.34
19.24
7.71
0.05
-2.64
0.23
8.37
20.37
33.88
46.14
54.66
57.89
55.45
48.10
37.41
25.29
13.64
3.92
-3.04
-7.20
-9.19
-9.96
-10.29
-10.47
-10.22
-9.03
-6.65
-3.48
-0.64
0.41
-1.59
-7.10
-15.51
-25.23
-34.24
-40.75
-43.84
-43.71
-41.56
-39.06
-37.62
-37.83
-39.32
-40.98
-41.58
-40.21
-36.66
-31.33
-24.98
-18.34
-11.85
-5.66
0.15
5.36
9.35
11.17
9.97
5.53
-1.36
-9.04
-15.59
-19.78
-21.50
-21.66
-21.39
-21.30
-21.11
-20.04
-17.60
-14.02
-10.18
-6.99
-4.58
-2.21
1.31
6.68
13.43
19.92
24.04
24.14
19.77
11.70
1.53
-9.13
-19.05
-27.55
-34.24
-38.65
-40.10
-37.93
-31.83
-22.26
-10.44
1.94
13.19
22.13
28.28
31.74
33.01
32.62
31.04
28.59
25.50
21.87
17.71
13.03
7.95
2.92
-1.31
-3.87
-4.18
-2.28
1.09
4.71
7.41
8.63
8.68
8.76
10.50
15.28
23.68
35.12
48.14
60.84
71.55
79.20
83.44
84.41
82.41
77.74
70.75
61.98
52.25
42.36
32.60
22.39
10.32
-5.18
-24.94
-48.34
-73.32
-97.16
-117.72
-134.40
-148.39
-162.00
-177.52
-196.20
-217.93
-241.55
-265.40
-287.59
-306.01
-318.21
-321.58
-314.08
-295.08
-265.90
-229.63
-190.19
-151.16
-114.87
-82.16
-52.73
-25.73
-0.13
25.07
50.99
79.02
110.88
148.32
192.36
242.36
295.33
346.08
388.52
417.54
430.79
429.34
417.05
398.79
378.68
359.05
340.58
323.17
306.79
291.73
278.12
265.28
251.43
234.29
212.23
185.30
155.59
126.57
101.42
81.47
65.46
50.16
32.05
9.00
-18.94
-50.14
-82.83
-116.34
-151.24
-188.31
-227.17
-265.63
-300.11
-327.05
-344.24
-351.23
-348.85
-338.05
-319.40
-293.20
-260.46
-223.64
-186.59
-153.60
-127.85
-110.29
-99.46
-92.30
-85.62
-77.35
-67.05
-55.83
-45.51
-37.76
-33.55
-33.09
-36.13
-42.18
-50.55
-59.96
-68.39
-73.16
-71.72
-62.78
-47.22
-28.18
-10.15
2.77
8.55
7.89
3.79
-0.10
-1.13
1.41
6.36
11.71
15.75
17.84
18.39
18.36
18.55
19.27
20.44
22.11
24.72
29.03
35.45
43.38
50.83
54.84
52.43
41.81
23.12
-1.22
-26.96
-48.64
-60.65
-58.34
-39.37
-4.89
40.17
88.00
130.02
159.52
173.61
173.54
163.53
148.79
133.57
120.41
110.28
103.21
98.97
97.21
97.23
97.93
97.91
95.94
91.42
84.66
76.55
68.07
59.66
50.77
40.03
25.88
7.48
-14.50
-37.77
-58.99
-75.07
-84.28
-86.93
-85.02
-81.21
-77.46
-74.03
-69.49
-61.53
-48.36
-29.78
-7.63
14.56
32.73
43.39
44.69
36.94
22.66
5.91
-8.80
-17.78
-19.24
-13.72
-3.60
7.99
18.68
27.79
36.55
47.24
61.70
80.00
99.84
117.25
128.01
129.48
121.72
107.42
90.70
75.53
64.47
58.15
55.38
53.77
50.39
42.49
28.17
6.95
-19.99
-49.99
-79.60
-105.46
-124.91
-136.32
-138.96
-132.95
-119.36
-100.35
-79.10
-59.16
-43.51
-33.58
-29.09
-28.51
-30.03
-32.28
-34.55
-36.58
-38.05
-38.35
-36.71
-32.47
-25.48
-16.11
-5.13
6.48
17.56
26.86
33.10
35.39
33.64
28.80
22.71
17.39
14.19
13.32
13.94
14.66
14.40
12.75
10.01
6.81
3.55
0.24
-3.44
-7.79
-12.80
-18.04
-22.94
-27.03
-30.15
-32.43
-34.06
-35.12
-35.43
-34.72
-32.84
-29.97
-26.62
-23.50
-21.15
-19.82
-19.31
-19.14
-18.78
-18.01
-16.96
-16.17
-16.24
-17.50
-19.78
-22.39
-24.52
-25.55
-25.37
-24.25
-22.59
-20.61
-18.30
-15.63
-12.85
-10.61
-9.75
-10.76
-13.47
-17.07
-20.52
-23.16
-25.04
-26.80
-29.14
-32.24
-35.49
-37.56
-36.99
-32.68
-24.37
-12.76
0.70
14.16
25.80
34.24
38.78
39.55
37.64
34.85
33.35
35.17
41.51
51.97
64.54
76.30
84.93
90.22
94.88
103.90
122.79
155.21
201.29
257.19
316.13
370.17
411.94
435.86
438.98
421.37
386.08
338.58
285.52
233.35
186.96
148.64
117.56
90.83
64.98
37.40
6.98
-26.23
-61.63
-98.38
-136.04
-175.34
-217.04
-260.79
-304.79
-347.04
-387.08
-425.82
-463.52
-498.43
-526.91
-543.37
-541.93
-518.15
-470.89
-403.19
-320.11
-226.83
-129.31
-36.32
41.15
92.48
111.21
96.99
54.68
-5.82
-70.96
-115.20
-116.11
-67.17
14.74
99.47
160.63
185.26
173.29
139.60
99.86
63.71
33.17
4.54
-27.43
-60.48
-93.94
-127.27
-160.25
-193.58
-228.39
-263.74
-294.70
-312.22
-306.67
-273.45
-214.95
-140.12
-62.21
5.89
56.64
90.34
114.12
136.95
163.24
190.83
212.22
218.26
202.72
164.87
108.84
40.85
-33.89
-112.08
-189.92
-260.58
-314.16
-340.72
-334.70
-298.11
-240.31
-174.24
-111.45
-57.73
-12.04
31.49
79.86
137.40
202.95
269.53
326.46
363.44
374.87
362.23
333.47
299.87
271.83
255.81
253.23
261.23
274.44
286.42
290.87
282.44
257.97
217.38
163.74
101.95
36.45
-30.63
-99.71
-171.56
-245.00
-315.26
-374.61
-414.96
-430.49
-419.51
-384.48
-330.97
-266.55
-199.77
-139.44
-93.24
-65.85
-57.07
-61.07
-67.74
-66.00
-48.11
-13.02
32.90
78.65
113.19
129.80
127.70
111.22
87.01
61.36
38.85
22.43
14.28
15.71
26.23
41.77
54.19
53.84
34.09
-4.39
-52.48
-95.87
-121.20
-121.65
-99.21
-62.26
-20.79
18.11
51.92
81.65
108.86
133.07
151.72
161.89
162.63
156.23
147.47
141.40
140.82
145.13
150.85
153.96
152.18
146.02
138.21
131.66
127.63
125.30
122.57
117.66
110.50
102.54
95.74
91.32
89.29
88.49
87.43
84.83
80.08
73.35
65.51
57.93
52.00
48.54
47.41
47.45
46.94
44.23
38.62
30.39
20.68
10.94
2.34
-4.54
-9.66
-13.41
-16.37
-19.13
-22.21
-25.84
-29.81
-33.51
-36.05
-36.69
-35.24
-32.20
-28.36
-24.48
-20.94
-17.52
-13.90
-10.14
-6.72
-4.28
-2.93
-1.80
0.62
5.56
13.05
21.58
28.79
32.52
32.02
27.99
22.01
15.78
10.43
6.45
3.77
1.95
0.38
-1.67
-4.90
-9.41
-14.42
-18.31
-19.21
-15.52
-6.55
7.37
25.07
45.31
67.30
90.78
115.51
140.18
161.59
175.01
176.04
163.21
140.00
114.62
96.81
93.41
104.84
124.32
140.90
144.50
130.10
99.17
57.84
13.56
-27.74
-62.82
-91.00
-113.01
-130.38
-145.46
-161.46
-182.33
-211.49
-249.89
-294.35
-337.81
-371.78
-390.11
-391.75
-380.96
-364.52
-347.61
-330.88
-310.62
-281.36
-239.59
-185.70
-123.33
-56.77
10.77
77.06
139.16
192.12
229.50
245.84
239.58
214.27
177.11
135.98
96.94
63.02
34.56
10.74
-9.27
-26.00
-39.77
-50.91
-59.92
-67.22
-73.19
-78.23
-82.79
-87.26
-91.59
-95.17
-97.20
-97.09
-94.82
-91.05
-86.56
-81.59
-75.36
-66.53
-54.13
-38.44
-21.34
-5.93
4.82
9.27
7.93
3.13
-2.15
-5.66
-6.86
-6.93
-7.92
-11.51
-18.08
-26.34
-34.01
-38.88
-39.82
-37.28
-32.80
-28.27
-24.95
-23.05
-21.88
-20.38
-17.52
-12.69
-5.54
3.90
15.21
27.29
38.31
46.25
49.73
48.59
44.13
38.40
33.16
29.15
25.93
22.52
18.46
14.28
11.12
9.76
9.79
9.66
7.48
2.19
-6.05
-15.74
-24.62
-31.05
-35.00
-38.03
-42.21
-48.85
-57.91
-68.68
-79.66
-88.87
-94.91
-97.49
-97.39
-95.65
-92.81
-89.02
-85.37
-82.62
-80.10
-76.53
-70.54
-61.69
-50.73
-39.00
-28.12
-20.36
-14.88
-6.56
11.32
44.18
93.24
155.48
226.11
300.54
374.42
433.95
466.33
465.55
436.81
391.33
337.81
279.73
227.56
177.02
126.60
79.95
42.04
15.99
1.33
-7.82
-15.23
-22.98
-33.05
-44.43
-54.34
-60.59
-62.54
-61.51
-59.66
-58.10
-57.11
-57.41
-58.14
-57.67
-54.91
-49.78
-43.43
-37.53
-32.98
-30.03
-29.09
-29.40
-29.86
-29.79
-29.08
-28.14
-27.47
-26.95
-26.15
-24.97
-23.12
-20.57
-17.67
-14.95
-13.03
-12.30
-12.75
-14.10
-16.04
-18.06
-19.77
-21.02
-21.90
-22.61
-23.40
-24.42
-25.68
-27.04
-28.24
-28.94
-28.81
-27.59
-25.20
-21.78
-17.68
-13.31
-9.08
-5.25
-1.99
0.59
2.37
3.30
3.46
3.09
2.58
2.31
2.50
3.10
3.87
4.50
4.72
4.41
3.63
2.54
1.38
0.36
-0.40
-0.91
-1.27
-1.68
-2.32
-3.28
-4.53
-5.95
-7.36
-8.64
-9.71
-10.65
-11.54
-12.53
-13.68
-14.96
-16.17
-17.02
-17.23
-16.64
-15.28
-13.33
-11.05
-8.64
-6.23
-3.92
-1.80
-0.05
1.08
1.46
1.15
0.45
-0.13
-0.11
0.75
2.33
4.16
5.61
6.19
5.74
4.54
3.22
2.45
2.72
4.12
6.37
8.90
11.12
12.58
13.08
12.67
11.58
10.10
8.53
7.11
5.99
5.23
4.71
4.19
3.33
1.82
-0.46
-3.29
-6.24
-8.74
-10.32
-10.77
-10.17
-8.75
-6.77
-4.41
-1.75
1.08
3.85
6.23
7.86
8.51
8.18
7.15
5.88
4.90
4.61
5.16
6.40
7.88
9.06
9.46
8.83
7.28
5.13
2.81
0.72
-0.90
-1.93
-2.34
-2.14
-1.35
-0.07
1.46
2.84
3.60
3.29
1.64
-1.30
-5.20
-9.51
-13.67
-17.24
-19.92
-21.54
-21.98
-21.21
-19.24
-16.28
-12.77
-9.22
-6.14
-3.87
-2.43
-1.66
-1.32
-1.21
-1.28
-1.54
-1.97
-2.43
-2.65
-2.33
-1.25
0.60
3.00
5.51
7.60
8.87
9.22
8.84
8.14
7.49
7.06
6.70
6.16
5.27
4.12
3.07
2.53
2.71
3.50
4.47
5.08
4.93
3.86
2.05
-0.12
-2.13
-3.41
-3.52
-2.20
0.48
4.17
8.25
12.11
15.31
17.67
19.28
20.29
20.83
20.94
20.52
19.48
17.78
15.55
13.02
10.48
8.17
6.17
4.42
2.80
1.18
-0.40
-1.80
-2.81
-3.33
-3.42
-3.34
-3.40
-3.89
-4.89
-6.35
-8.13
-10.09
-12.13
-14.17
-16.19
-18.23
-20.46
-23.13
-26.48
-30.64
-35.37
-40.09
-43.97
-46.21
-46.30
-44.21
-40.38
-35.51
-30.32
-25.35
-20.85
-16.83
-13.16
-9.69
-6.33
-3.07
0.08
3.06
5.80
8.25
10.38
12.16
13.61
14.74
15.56
16.07
16.29
16.26
16.03
15.71
15.37
15.06
14.67
13.97
12.64
10.41
7.18
3.13
-1.29
-5.53
-9.12
-11.78
-13.54
-14.68
-15.58
-16.65
-18.19
-20.34
-23.04
-26.02
-28.82
-30.91
-31.78
-31.14
-29.04
-25.79
-21.91
-17.92
-14.18
-10.83
-7.80
-4.98
-2.31
0.09
2.01
3.22
3.67
3.48
3.05
2.86
3.34
4.70
6.88
9.63
12.55
15.31
17.61
19.26
20.08
19.91
18.70
16.62
14.05
11.49
9.37
7.88
6.93
6.26
5.59
4.79
3.83
2.80
1.72
0.64
-0.38
-1.22
-1.70
-1.74
-1.46
-1.10
-0.93
-1.07
-1.39
-1.59
-1.41
-0.77
0.17
1.07
1.59
1.52
0.88
-0.10
-1.05
-1.55
-1.29
-0.17
1.68
3.94
6.26
8.43
10.43
12.35
14.31
16.27
18.14
19.79
21.18
22.36
23.41
24.34
25.04
25.32
24.96
23.84
21.97
19.45
16.42
13.08
9.55
5.94
2.33
-1.31
-4.94
-8.57
-12.17
-15.67
-18.99
-21.97
-24.42
-26.10
-26.83
-26.55
-25.38
-23.61
-21.55
-19.43
-17.31
-15.07
-12.54
-9.63
-6.36
-2.96
0.22
2.77
4.29
4.57
3.66
1.88
-0.24
-2.12
-3.33
-3.69
-3.33
-2.54
-1.70
-1.13
-1.01
-1.40
-2.21
-3.28
-4.43
-5.48
-6.41
-7.32
-8.38
-9.76
-11.53
-13.61
-15.84
-18.00
-19.94
-21.57
-22.96
-24.28
-25.82
-27.77
-30.09
-32.43
-34.15
-34.52
-33.01
-29.52
-24.41
-18.34
-12.07
-6.14
-0.83
3.83
7.97
11.69
15.05
17.99
20.42
22.19
23.22
23.54
23.26
22.59
21.76
20.98
20.43
20.25
20.44
20.91
21.41
21.63
21.24
20.04
18.02
15.34
12.27
9.08
5.98
3.15
0.65
-1.52
-3.44
-5.28
-7.23
-9.39
-11.78
-14.30
-16.90
-19.59
-22.44
-25.47
-28.54
-31.26
-33.07
-33.39
-31.82
-28.29
-23.00
-16.40
-9.03
-1.45
5.82
12.38
17.96
22.41
25.78
28.21
29.89
30.97
31.52
31.54
31.01
29.93
28.46
26.85
25.39
24.32
23.69
23.32
22.90
22.07
20.55
18.27
15.36
12.08
8.70
5.46
2.54
0.08
-1.85
-3.25
-4.21
-4.90
-5.60
-6.53
-7.83
-9.44
-11.21
-12.98
-14.70
-16.55
-18.76
-21.49
-24.62
-27.71
-30.12
-31.30
-30.98
-29.19
-26.20
-22.26
-17.53
-11.99
-5.67
1.30
8.51
15.42
21.47
26.26
29.60
31.50
32.07
31.47
29.89
27.64
25.04
22.50
20.35
18.79
17.91
17.63
17.85
18.44
19.28
20.24
21.15
21.79
21.90
21.32
19.98
17.93
15.32
12.29
8.91
5.26
1.38
-2.58
-6.40
-9.85
-12.84
-15.47
-18.08
-21.11
-24.84
-29.28
-34.07
-38.58
-42.18
-44.35
-44.87
-43.72
-40.99
-36.81
-31.31
-24.75
-17.51
-10.18
-3.40
2.23
6.35
8.84
9.86
9.70
8.73
7.34
5.89
4.74
4.17
4.28
5.01
6.13
7.33
8.39
9.15
9.59
9.70
9.44
8.75
7.56
5.93
3.99
1.97
0.08
-1.57
-2.99
-4.29
-5.59
-7.00
-8.60
-10.46
-12.63
-15.12
-17.86
-20.63
-23.06
-24.66
-24.95
-23.63
-20.68
-16.31
-10.96
-5.06
0.99
6.90
12.40
17.22
21.07
23.75
25.25
25.81
25.81
25.73
25.96
26.74
28.09
29.90
31.87
33.70
35.06
35.75
35.77
35.28
34.43
33.19
31.34
28.49
24.74
20.54
16.82
14.56
14.24
15.53
17.26
18.01
16.58
13.00
8.05
2.88
-1.60
-5.13
-8.13
-11.21
-14.51
-17.69
-19.09
-17.33
-11.71
-2.66
8.29
19.28
28.75
36.08
41.07
44.47
46.28
46.37
45.28
44.73
47.44
55.74
72.08
90.60
106.65
115.03
112.60
99.44
78.34
53.26
27.88
4.83
-14.67
-29.37
-39.11
-44.61
-47.22
-48.56
-49.98
-52.40
-56.37
-62.24
-68.82
-73.70
-73.39
-64.80
-47.62
-26.23
-9.34
-6.93
-25.57
-64.12
-113.89
-162.14
-197.88
-216.66
-221.22
-218.20
-212.98
-206.05
-192.92
-168.13
-129.93
-82.87
-36.44
-0.44
20.04
26.93
27.68
30.87
41.65
59.56
79.58
95.33
102.45
100.31
91.60
80.55
70.62
63.15
57.34
51.17
42.88
31.83
18.81
5.49
-6.35
-15.63
-22.24
-26.74
-30.00
-32.72
-35.28
-37.51
-38.99
-39.07
-37.23
-33.22
-27.19
-19.81
-12.08
-5.02
0.64
4.42
6.18
5.94
3.98
0.86
-2.54
-5.17
-6.14
-5.19
-2.84
-0.20
1.54
1.55
-0.39
-4.11
-9.33
-15.76
-23.20
-31.47
-40.49
-50.38
-61.72
-75.30
-91.80
-111.04
-131.26
-149.74
-163.73
-171.56
-173.16
-169.63
-162.45
-152.62
-140.25
-123.91
-101.80
-72.42
-35.09
9.99
61.87
118.72
177.58
234.22
284.93
326.24
355.69
371.99
375.55
368.22
352.85
332.45
309.35
286.32
265.21
247.20
232.99
223.20
218.56
219.22
223.66
218.85
193.89
144.24
75.98
2.98
-60.81
-107.45
-136.19
-151.39
-158.98
-162.06
-161.33
-156.24
-146.95
-135.21
-123.55
-114.07
-107.87
-105.02
-103.50
-101.16
-96.55
-89.77
-82.45
-77.32
-76.17
-79.53
-86.14
-92.52
-94.47
-88.79
-74.87
-55.22
-34.35
-16.80
-5.58
-1.33
-2.52
-6.47
-10.51
-12.94
-13.20
-11.63
-8.83
-5.44
-2.36
-1.11
-3.41
-10.06
-21.05
-34.88
-48.40
-57.17
-56.63
-42.10
-14.14
20.10
49.69
65.50
64.19
48.37
24.13
-1.90
-25.12
-43.91
-58.40
-69.11
-76.10
-79.24
-78.56
-75.53
-70.75
-65.15
-59.81
-55.23
-51.31
-47.74
-44.62
-42.42
-41.75
-42.74
-45.06
-48.08
-51.00
-53.13
-54.10
-54.53
-54.99
-55.95
-57.52
-59.44
-60.83
-59.92
-54.29
-41.72
-21.47
4.89
33.44
59.18
77.95
88.01
90.61
88.97
86.43
84.68
83.08
79.21
70.39
55.18
34.43
11.28
-9.85
-24.73
-30.85
-28.16
-18.91
-6.70
4.73
12.48
15.04
12.04
3.92
-8.42
-23.78
-40.61
-57.54
-73.63
-88.41
-101.43
-111.45
-116.27
-113.18
-100.01
-75.45
-40.38
2.43
49.35
96.96
142.52
182.96
214.13
230.86
230.46
213.79
186.06
154.79
126.02
100.96
75.35
42.38
-2.34
-54.17
-101.57
-131.07
-133.88
-110.05
-67.72
-18.63
27.18
64.71
97.47
132.33
175.41
229.07
291.79
360.14
431.02
503.07
556.16
574.38
548.67
480.67
380.35
260.22
132.78
11.42
-89.82
-159.96
-192.90
-192.94
-172.95
-148.29
-129.78
-119.83
-114.48
-109.32
-104.46
-102.68
-108.16
-122.33
-142.15
-161.30
-173.51
-175.75
-169.88
-161.34
-154.21
-149.60
-145.29
-137.49
-123.69
-104.46
-83.71
-67.07
-59.17
-60.51
-67.45
-74.23
-75.83
-70.39
-59.62
-47.41
-37.58
-32.34
-31.98
-35.96
-44.39
-57.67
-75.44
-95.14
-111.67
-119.00
-112.85
-92.64
-61.58
-25.69
8.84
37.49
58.35
71.90
79.85
84.28
87.40
92.01
98.26
106.03
113.75
118.50
117.18
107.52
88.97
60.62
26.58
-5.85
-29.37
-40.54
-40.71
-33.77
-23.90
-14.25
-6.11
1.28
8.87
17.16
24.86
29.11
27.34
18.51
3.61
-14.51
-31.56
-43.70
-49.08
-46.35
-37.25
-25.63
-16.58
-15.20
-25.02
-46.53
-74.41
-99.94
-114.33
-114.32
-103.00
-86.42
-69.41
-53.83
-39.14
-24.23
-9.46
3.29
11.48
13.96
11.79
7.59
4.43
4.35
7.89
13.66
19.30
22.40
21.91
18.55
14.25
11.12
10.44
12.38
15.73
18.72
19.65
17.88
13.96
9.25
5.03
1.71
-0.61
-2.73
-5.74
-10.65
-17.98
-27.59
-38.55
-49.05
-56.68
-58.85
-53.90
-41.95
-25.23
-7.42
7.65
17.43
21.42
20.95
18.24
15.18
12.71
10.90
9.42
8.07
6.97
6.33
6.10
5.95
5.35
3.90
1.53
-1.36
-4.21
-6.49
-7.86
-8.52
-9.02
-9.98
-11.72
-13.95
-15.89
-16.40
-14.48
-9.67
-2.22
6.95
16.60
25.56
33.02
38.72
42.80
45.63
47.53
48.60
48.79
48.01
46.33
44.08
41.79
39.93
38.74
38.04
37.35
36.16
34.13
31.35
28.18
25.07
22.31
19.93
17.71
15.31
12.44
8.90
4.66
-0.15
-5.26
-10.17
-14.16
-16.40
-16.19
-13.17
-7.55
-0.02
8.42
16.71
24.11
30.24
35.07
38.81
41.66
43.74
44.99
45.25
44.39
42.41
39.57
36.25
32.89
29.83
27.15
24.71
22.23
19.50
16.43
13.12
9.70
6.23
2.62
-1.34
-5.78
-10.74
-16.05
-21.49
-26.85
-32.11
-37.40
-42.84
-48.38
-53.56
-57.62
-59.64
-58.90
-55.19
-48.89
-40.80
-31.84
-22.73
-13.81
-5.19
3.00
10.42
16.45
20.49
22.24
21.89
20.10
17.72
15.44
13.58
12.10
10.77
9.39
7.88
6.35
4.94
3.78
2.87
2.01
0.95
-0.62
-2.85
-5.72
-9.02
-12.37
-15.45
-18.10
-20.33
-22.38
-24.54
-27.08
-30.23
-34.09
-38.68
-43.88
-49.31
-54.31
-57.99
-59.43
-57.97
-53.49
-46.44
-37.78
-28.62
-19.89
-12.07
-5.22
0.86
6.40
11.42
15.75
19.13
21.40
22.63
22.97
22.69
22.02
21.15
20.22
19.37
18.64
18.01
17.31
16.39
15.13
13.57
11.81
9.94
8.00
5.96
3.79
1.49
-0.88
-3.30
-5.79
-8.43
-11.29
-14.30
-17.34
-20.26
-23.00
-25.67
-28.46
-31.62
-35.18
-38.91
-42.28
-44.54
-44.97
-43.10
-38.90
-32.79
-25.43
-17.53
-9.64
-2.06
5.05
11.58
17.31
22.04
25.59
27.95
29.26
29.79
29.82
29.63
29.40
29.22
29.05
28.77
28.30
27.57
26.69
25.72
24.72
23.56
22.06
20.08
17.66
15.02
12.48
10.27
8.38
6.59
4.59
2.13
-0.86
-4.26
-7.81
-11.20
-14.20
-16.73
-18.92
-21.04
-23.47
-26.52
-30.24
-34.34
-38.24
-41.21
-42.58
-41.94
-39.21
-34.63
-28.69
-22.00
-15.14
-8.58
-2.70
2.31
6.27
9.11
10.87
11.73
11.99
12.00
12.04
12.28
12.64
12.92
12.87
12.32
11.19
9.54
7.51
5.23
2.83
0.37
-2.16
-4.81
-7.61
-10.52
-13.41
-16.12
-18.59
-20.91
-23.30
-25.98
-29.03
-32.29
-35.35
-37.75
-39.10
-39.24
-38.30
-36.62
-34.63
-32.77
-31.41
-30.83
-31.03
-31.51
-31.41
-29.74
-25.72
-19.00
-9.91
0.64
11.29
20.84
28.60
34.51
38.79
41.74
43.45
43.92
43.15
41.03
37.94
34.70
32.06
30.32
29.16
27.96
26.22
23.80
20.22
15.83
11.78
9.27
8.61
9.15
9.74
9.42
7.63
2.89
-4.83
-13.62
-20.89
-25.33
-27.27
-28.05
-29.01
-31.18
-37.41
-48.31
-61.25
-72.22
-78.64
-80.30
-78.85
-76.78
-77.41
-87.07
-108.88
-139.86
-172.41
-198.14
-210.57
-206.23
-184.83
-128.36
-38.46
62.03
146.71
204.31
238.58
258.90
273.73
290.44
311.51
332.91
348.14
353.31
347.57
331.60
306.76
272.24
231.86
191.02
152.17
113.29
73.46
34.28
-1.56
-32.27
-57.63
-78.12
-95.51
-113.55
-139.57
-176.87
-223.06
-272.43
-320.06
-364.02
-404.58
-443.77
-453.48
-419.59
-349.58
-266.71
-190.94
-129.96
-82.74
-45.02
-13.26
14.15
32.59
38.72
33.63
22.47
11.06
3.44
1.27
4.39
11.33
16.16
14.43
5.49
-8.03
-23.12
-37.92
-51.01
-60.12
-61.55
-53.98
-37.05
-11.93
18.12
47.88
71.97
87.27
94.15
95.95
94.76
91.97
88.59
85.77
84.65
86.30
91.10
98.50
107.41
115.36
120.67
122.98
123.37
123.73
126.13
132.34
141.00
151.91
161.75
164.91
155.54
130.54
91.67
45.64
1.77
-31.81
-50.84
-56.76
-54.48
-49.58
-45.90
-44.39
-44.26
-44.25
-43.74
-42.87
-42.66
-43.88
-46.25
-48.37
-48.31
-45.39
-41.01
-38.37
-40.18
-46.99
-55.75
-60.86
-57.14
-43.02
-21.97
-0.97
12.77
15.96
10.10
0.02
-9.21
-14.83
-16.97
-17.42
-17.72
-17.90
-17.17
-14.46
-9.65
-3.54
2.45
6.97
9.37
9.96
9.74
10.08
11.77
14.79
18.50
21.92
24.24
25.17
24.99
24.40
24.39
25.29
26.90
28.75
30.22
30.89
30.69
29.88
28.90
28.49
28.78
29.52
30.28
30.44
29.46
27.06
23.32
16.61
8.50
0.20
-7.66
-14.90
-21.58
-27.80
-33.60
-38.90
-43.60
-47.36
-50.32
-52.64
-54.37
-55.53
-56.18
-56.53
-56.71
-56.83
-56.56
-55.21
-52.30
-47.19
-39.53
-29.50
-17.97
-5.85
5.77
16.30
25.60
34.02
42.13
50.17
57.69
63.64
67.29
68.04
66.15
62.78
59.71
58.76
61.18
67.38
76.78
88.61
100.96
111.21
116.73
115.90
109.18
99.40
91.08
84.73
82.26
83.19
84.40
81.58
71.47
53.65
30.60
6.40
-15.32
-32.11
-43.91
-51.94
-57.34
-60.57
-61.44
-59.79
-56.00
-51.19
-46.47
-43.38
-43.28
-46.91
-54.21
-64.17
-75.04
-84.69
-91.38
-93.85
-92.27
-87.79
-81.77
-75.08
-67.72
-59.36
-50.29
-42.14
-37.41
-38.48
-45.65
-56.22
-65.16
-67.46
-60.76
-46.85
-30.87
-18.36
-12.38
-11.50
-10.67
-4.04
11.94
36.63
65.48
91.12
107.83
112.11
103.40
83.03
53.84
20.50
-10.22
-30.55
-34.21
-19.86
6.75
33.95
48.42
41.28
12.89
-26.76
-62.76
-82.06
-78.52
-54.03
-15.53
28.09
68.97
101.62
122.57
129.13
119.17
92.07
47.86
-5.48
-55.14
-90.49
-107.84
-109.15
-98.87
-81.93
-63.06
-46.36
-34.19
-28.04
-28.26
-34.04
-42.99
-51.82
-55.74
-49.31
-28.07
8.78
55.25
99.29
127.21
130.12
108.17
70.50
30.54
-0.15
-16.51
-21.06
-20.30
-20.08
-22.35
-25.57
-27.12
-25.66
-21.59
-15.97
-10.04
-3.23
5.29
15.66
26.85
36.51
41.96
41.47
35.07
24.52
12.83
3.13
-2.13
-1.67
4.34
14.45
26.04
36.01
41.35
40.00
31.27
16.09
-3.04
-22.98
-40.75
-54.26
-62.44
-65.08
-62.41
-55.23
-45.07
-33.88
-23.60
-15.63
-10.52
-7.86
-6.82
-6.69
-6.36
-6.07
-6.22
-6.82
-7.28
-6.91
-5.35
-2.82
0.40
3.99
7.83
12.26
17.42
22.44
24.95
21.74
10.20
-8.77
-29.86
-45.84
-51.22
-44.06
-25.58
0.81
30.88
59.87
85.86
106.73
120.24
124.32
117.86
101.34
77.11
48.99
19.66
-5.97
-23.77
-31.98
-32.08
-27.93
-24.14
-24.56
-31.32
-46.04
-68.01
-94.74
-122.23
-146.16
-162.58
-168.63
-163.15
-138.93
-96.60
-45.59
0.73
33.92
53.41
64.24
72.78
83.21
95.69
104.46
101.43
79.81
37.84
-19.29
-79.64
-127.96
-151.38
-144.55
-113.24
-70.38
-30.10
-1.77
12.44
16.71
18.47
22.67
30.93
41.36
50.49
54.71
51.05
37.48
13.78
-18.55
-56.02
-93.26
-124.69
-145.21
-151.09
-140.60
-114.69
-76.13
-29.93
17.89
62.28
100.18
131.21
157.10
180.63
198.26
207.61
206.71
195.17
175.23
151.23
127.84
108.58
94.72
85.16
78.18
71.42
62.95
52.09
39.43
26.41
14.64
5.38
-0.80
-3.66
-3.96
-2.97
-1.72
-0.77
-0.49
-1.18
-2.93
-5.34
-7.40
-8.30
-7.47
-4.69
-0.17
5.25
10.22
13.86
16.22
17.63
17.54
14.17
5.04
-11.67
-36.35
-67.96
-103.91
-137.85
-161.50
-169.47
-163.30
-149.79
-134.66
-119.78
-104.57
-87.86
-69.65
-51.90
-37.83
-30.41
-31.47
-41.28
-56.90
-74.88
-90.79
-99.71
-97.58
-82.75
-54.07
-18.23
16.03
41.70
55.51
58.91
56.08
51.20
46.57
42.58
38.46
34.64
33.33
35.60
41.71
50.44
59.65
67.30
72.65
76.55
81.59
90.23
102.61
116.29
126.44
128.38
119.86
102.14
79.14
56.07
37.82
26.34
24.00
31.63
47.85
68.63
87.38
96.12
87.86
59.67
14.48
-40.86
-99.44
-157.11
-212.70
-265.47
-312.47
-347.90
-364.24
-355.66
-322.88
-274.35
-222.52
-177.25
-141.19
-109.70
-75.88
-34.31
16.70
73.70
130.46
181.86
226.68
267.15
306.34
344.78
369.20
369.34
343.55
299.69
248.14
195.70
144.69
100.51
59.93
21.77
-11.62
-37.68
-55.67
-67.05
-73.49
-75.98
-74.87
-71.28
-65.68
-57.88
-48.50
-39.01
-31.05
-25.47
-22.04
-19.85
-18.76
-18.23
-17.31
-15.55
-13.12
-10.75
-9.09
-8.47
-8.88
-10.69
-13.89
-18.02
-22.59
-26.95
-30.35
-31.92
-31.09
-28.10
-24.40
-21.85
-21.92
-25.09
-30.37
-35.64
-38.55
-37.75
-33.72
-28.85
-26.29
-28.53
-36.38
-48.73
-63.08
-76.54
-86.63
-91.38
-89.35
-79.59
-61.88
-37.58
-10.07
15.84
35.63
47.24
52.30
55.32
61.32
72.94
88.83
104.34
113.90
113.89
103.95
86.54
65.00
41.67
17.21
-8.57
-35.29
-61.20
-83.66
-100.35
-110.41
-114.72
-115.08
-112.76
-107.59
-97.81
-81.36
-57.57
-28.47
1.35
26.27
42.02
47.54
45.33
40.05
36.27
36.67
41.69
50.20
60.72
72.28
84.31
96.01
105.80
111.47
110.92
103.32
89.64
72.39
54.96
40.55
31.40
28.35
30.64
36.09
41.69
44.65
43.10
37.03
28.03
18.12
8.40
-1.69
-13.72
-28.59
-45.14
-60.90
-72.85
-79.17
-80.08
-77.55
-73.88
-70.24
-66.08
-59.90
-51.95
-43.85
-38.08
-36.19
-37.44
-39.18
-38.21
-32.54
-22.59
-12.87
-8.54
-13.63
-29.32
-53.95
-84.76
-119.59
-157.47
-189.28
-206.58
-204.33
-184.91
-155.34
-122.31
-90.61
-63.92
-45.27
-36.39
-40.99
-56.26
-76.41
-93.73
-100.23
-90.60
-64.44
-26.19
19.17
59.13
84.30
95.71
99.24
101.58
108.07
122.04
141.56
165.22
190.04
213.47
232.51
243.74
244.75
234.96
215.49
188.80
158.35
126.63
96.35
69.75
48.17
32.37
22.29
16.78
13.65
10.70
5.46
-3.33
-16.03
-32.34
-50.95
-69.62
-85.56
-96.17
-99.69
-96.33
-88.07
-78.23
-70.48
-67.42
-69.73
-76.43
-85.88
-96.73
-108.66
-121.97
-136.77
-152.46
-167.54
-180.15
-188.75
-192.39
-190.28
-181.08
-162.76
-133.46
-93.17
-44.71
6.80
55.77
98.44
133.92
163.38
188.09
207.77
220.33
223.14
214.58
194.87
165.87
130.21
90.68
50.49
13.58
-15.56
-32.96
-36.82
-28.47
-12.05
6.84
22.73
31.46
31.10
22.65
10.49
1.48
2.59
17.12
41.87
67.51
82.81
80.42
61.14
33.79
10.58
0.96
7.31
25.07
46.50
65.39
79.46
89.49
96.55
99.79
96.60
84.34
62.52
33.65
2.48
-25.96
-48.25
-63.35
-72.47
-77.76
-81.61
-85.89
-91.37
-97.66
-103.77
-109.17
-114.17
-120.11
-127.51
-136.37
-145.61
-153.07
-155.64
-149.93
-133.27
-103.92
-62.33
-10.17
47.60
103.45
149.46
180.66
197.11
202.93
204.78
207.60
214.42
223.77
231.44
233.49
228.91
220.09
210.48
203.69
188.36
157.90
112.95
61.47
12.86
-26.85
-52.58
-68.41
-78.04
-84.53
-88.02
-88.54
-86.40
-81.99
-75.51
-67.08
-57.85
-48.68
-41.19
-35.83
-33.50
-35.13
-41.52
-51.38
-61.56
-71.22
-80.25
-89.52
-97.33
-102.94
-106.26
-107.92
-108.33
-107.93
-107.99
-109.73
-114.23
-121.05
-128.71
-134.84
-137.21
-133.81
-123.55
-106.71
-83.87
-55.46
-21.43
17.69
60.86
101.23
129.88
141.44
137.00
122.41
104.27
87.27
73.15
61.63
51.57
42.82
36.41
33.46
34.35
38.35
44.05
49.68
53.66
54.94
53.85
51.75
50.03
49.59
50.64
53.00
56.24
59.90
63.46
66.70
70.22
74.06
77.94
81.52
84.77
87.92
91.28
94.91
98.61
101.98
104.34
105.13
104.08
101.28
96.98
91.35
84.31
75.59
64.89
51.92
36.59
19.03
-0.43
-21.30
-42.93
-64.48
-85.00
-103.55
-119.41
-132.09
-141.44
-147.54
-150.63
-150.98
-148.96
-144.94
-139.37
-132.77
-125.60
-118.22
-110.78
-103.31
-95.74
-87.98
-79.99
-71.74
-63.28
-54.72
-46.25
-38.15
-30.74
-24.24
-18.74
-14.07
-9.83
-5.55
-0.77
4.82
11.30
18.54
26.25
34.02
41.37
47.85
53.08
56.80
58.92
59.50
58.71
56.84
54.23
51.18
47.90
44.47
40.78
36.63
31.83
26.28
20.03
13.25
6.09
-1.35
-8.98
-16.61
-23.90
-30.35
-35.41
-38.70
-40.09
-39.69
-37.82
-34.89
-31.41
-27.97
-25.09
-23.09
-21.90
-21.06
-19.94
-18.16
-15.93
-14.09
-13.66
-15.19
-18.24
-21.49
-23.39
-22.93
-20.32
-16.90
-14.55
-14.81
-18.26
-24.44
-32.18
-40.26
-47.81
-54.46
-60.14
-64.76
-68.01
-69.42
-68.56
-65.38
-60.33
-54.33
-48.46
-43.53
-39.92
-37.47
-35.72
-34.18
-32.52
-30.61
-28.35
-25.67
-22.45
-18.64
-14.29
-9.56
-4.70
0.07
4.51
8.42
11.60
13.91
15.33
16.01
16.20
16.22
16.28
16.49
16.81
17.14
17.35
17.39
17.25
16.92
16.41
15.69
14.71
13.43
11.90
10.21
8.53
7.01
5.70
4.55
3.36
1.87
-0.11
-2.60
-5.39
-8.04
-10.02
-10.85
-10.31
-8.49
-5.73
-2.56
0.55
3.25
5.38
6.94
7.99
8.62
8.85
8.73
8.31
7.66
6.90
6.21
5.75
5.57
5.64
5.75
5.65
5.11
4.07
2.60
0.96
-0.62
-1.99
-3.18
-4.30
-5.52
-6.99
-8.75
-10.82
-13.24
-16.05
-19.19
-22.41
-25.16
-26.75
-26.51
-24.13
-19.79
-14.15
-8.12
-2.55
2.04
5.50
7.98
9.70
10.86
11.57
11.88
11.89
11.69
11.38
10.98
10.52
9.98
9.36
8.65
7.85
6.87
5.64
4.09
2.21
0.11
-2.09
-4.25
-6.30
-8.23
-10.10
-12.00
-13.99
-16.17
-18.65
-21.47
-24.58
-27.71
-30.42
-32.09
-32.17
-30.27
-26.32
-20.61
-13.72
-6.37
0.71
6.94
11.94
15.58
17.90
19.11
19.47
19.27
18.73
18.09
17.49
17.02
16.67
16.34
15.87
15.11
14.03
12.71
11.23
9.67
7.94
5.85
3.23
0.06
-3.51
-7.13
-10.51
-13.52
-16.31
-19.23
-22.62
-26.70
-31.35
-36.12
-40.31
-43.11
-43.87
-42.20
-38.18
-32.25
-25.16
-17.70
-10.55
-4.17
1.21
5.50
8.70
10.83
11.98
12.32
12.10
11.61
11.07
10.61
10.16
9.64
8.94
8.08
7.17
6.38
5.75
5.23
4.59
3.55
1.92
-0.28
-2.83
-5.40
-7.73
-9.77
-11.75
-14.04
-17.06
-21.01
-25.83
-31.09
-36.14
-40.19
-42.49
-42.47
-39.91
-34.95
-28.10
-20.08
-11.65
-3.43
4.18
10.92
16.60
20.98
23.85
25.10
24.85
23.49
21.66
20.03
19.10
18.99
19.48
20.09
20.28
19.65
18.03
15.60
12.73
9.92
7.59
6.04
5.32
5.31
5.78
6.45
7.01
7.14
6.51
4.83
1.92
-2.18
-7.17
-12.48
-17.37
-21.06
-22.89
-22.41
-19.48
-14.29
-7.33
0.67
8.90
16.59
23.22
28.50
32.41
35.14
36.91
38.00
38.63
39.03
39.38
39.76
40.11
40.21
39.76
38.53
36.50
33.93
31.24
28.83
26.89
25.28
23.65
21.61
18.97
15.82
12.45
9.23
6.40
3.97
1.70
-0.82
-4.00
-8.12
-13.16
-18.73
-24.07
-28.22
-30.30
-29.77
-26.62
-21.36
-14.76
-7.64
-0.62
5.94
11.86
17.04
21.36
24.74
27.15
28.65
29.44
29.78
29.92
30.01
30.10
30.11
29.94
29.49
28.74
27.80
26.81
25.89
25.02
24.01
22.56
20.45
17.67
14.48
11.33
8.64
6.58
4.95
3.29
1.07
-2.10
-6.32
-11.37
-16.78
-21.92
-26.10
-28.62
-28.91
-26.71
-22.16
-15.81
-8.49
-1.05
5.88
11.97
17.17
21.54
25.11
27.81
29.56
30.36
30.44
30.14
29.85
29.78
29.91
30.00
29.77
29.04
27.85
26.38
24.82
23.25
21.58
19.64
17.24
14.33
10.93
7.23
3.45
-0.14
-3.28
-5.81
-7.78
-9.46
-11.33
-13.85
-17.23
-21.29
-25.41
-28.75
-30.51
-30.19
-27.71
-23.39
-17.76
-11.41
-4.86
1.51
7.42
12.69
17.14
20.65
23.15
24.69
25.40
25.53
25.33
25.05
24.82
24.69
24.57
24.35
23.94
23.29
22.38
21.24
19.90
18.37
16.67
14.79
12.71
10.42
7.91
5.20
2.34
-0.53
-3.28
-5.83
-8.15
-10.37
-12.69
-15.29
-18.32
-21.79
-25.56
-29.32
-32.66
-35.05
-35.95
-34.96
-31.90
-26.97
-20.68
-13.74
-6.87
-0.57
4.90
9.49
13.27
16.27
18.45
19.77
20.27
20.12
19.66
19.28
19.24
19.67
20.45
21.35
22.11
22.59
22.82
22.95
23.23
23.81
24.74
25.89
27.11
28.32
29.56
30.97
32.69
34.71
36.87
38.87
40.42
41.38
41.85
42.12
42.51
43.32
44.71
46.71
49.27
52.30
55.66
59.09
62.18
64.47
65.73
66.12
66.29
66.98
68.51
70.27
70.62
67.32
58.45
43.33
22.92
-0.25
-22.77
-41.20
-52.97
-57.01
-54.30
-47.62
-40.80
-37.50
-39.62
-46.61
-55.67
-63.02
-65.75
-63.18
-56.96
-50.21
-46.30
-47.30
-53.77
-64.80
-77.89
-89.31
-94.88
-91.11
-77.19
-56.52
-35.58
-21.94
-20.95
-32.92
-52.97
-73.40
-86.69
-88.54
-78.89
-60.97
-40.18
-23.25
-14.86
-15.59
-22.60
-31.44
-35.87
-35.45
-32.04
-29.67
-33.79
-49.45
-79.19
-123.23
-175.19
-224.11
-258.42
-269.29
-253.88
-215.33
-160.37
-96.40
-29.82
34.46
91.63
136.26
163.92
172.82
165.29
147.61
127.75
111.99
102.77
98.24
94.11
86.86
75.69
62.56
50.69
42.66
39.31
39.98
43.29
48.06
54.07
61.96
72.16
84.18
96.56
107.36
114.90
118.22
117.12
112.21
104.88
96.13
86.11
74.33
60.59
45.45
30.30
16.53
5.19
-2.94
-8.61
-14.01
-21.72
-32.95
-46.81
-60.34
-69.92
-72.00
-63.20
-42.75
-13.52
18.35
45.45
60.92
60.39
42.81
6.59
-41.52
-88.56
-123.01
-142.12
-150.70
-156.95
-162.61
-164.24
-156.80
-136.60
-104.84
-66.54
-30.28
-3.13
11.78
15.06
8.57
-5.79
-25.34
-46.48
-63.98
-71.27
-61.75
-32.17
14.61
68.93
117.86
150.86
163.37
157.82
141.56
123.24
109.00
100.61
96.12
92.50
88.20
83.35
78.78
74.56
69.85
63.77
56.47
49.62
45.57
45.97
50.28
55.68
58.17
54.89
45.55
32.71
20.26
10.96
4.32
-4.05
-20.98
-52.46
-100.02
-158.54
-216.78
-260.53
-277.49
-261.79
-216.40
-152.57
-86.37
-33.76
-5.83
-5.95
-29.60
-66.69
-105.27
-135.25
-150.97
-151.60
-139.90
-120.14
-96.18
-70.57
-45.02
-21.06
-0.61
14.34
22.73
25.40
25.49
27.38
34.88
49.20
68.47
88.59
105.34
116.36
121.99
124.74
127.69
132.90
140.41
148.65
155.49
159.26
159.39
156.43
151.81
147.21
143.97
141.94
139.83
135.49
126.58
111.35
89.59
63.26
36.24
13.01
-4.39
-16.49
-26.05
-36.80
-51.55
-70.71
-91.73
-110.16
-121.94
-127.18
-128.74
-130.33
-134.73
-142.95
-154.42
-167.74
-181.57
-195.23
-210.70
-229.22
-249.45
-268.08
-281.72
-288.78
-289.86
-286.81
-267.76
-226.84
-166.21
-95.28
-25.45
34.95
81.46
112.56
129.42
135.50
134.10
128.49
122.47
118.84
118.35
119.60
120.46
120.17
119.60
119.09
118.15
118.28
120.65
125.08
129.74
132.22
131.06
125.47
113.78
91.69
59.72
23.22
-10.26
-35.21
-51.59
-59.90
-59.63
-51.06
-35.20
-11.97
16.01
44.93
69.98
86.46
92.10
86.99
72.27
49.99
23.84
-1.81
-22.58
-35.81
-41.83
-43.65
-45.78
-51.96
-62.24
-72.22
-76.23
-70.90
-57.61
-41.73
-30.01
-24.88
-25.39
-27.71
-27.39
-22.29
-13.61
-5.05
-0.35
-1.09
-6.07
-12.80
-18.81
-22.73
-24.80
-26.30
-28.60
-32.16
-36.36
-39.83
-41.11
-39.72
-36.14
-31.48
-26.91
-23.10
-20.02
-17.02
-13.20
-8.12
-1.95
4.63
10.68
15.36
18.20
19.26
18.96
17.92
16.62
15.35
14.23
13.31
12.55
11.92
11.37
10.88
10.50
10.26
10.17
10.15
10.10
9.79
9.08
7.88
6.31
4.57
2.84
1.22
-0.35
-2.00
-3.84
-5.90
-8.17
-10.64
-13.27
-16.00
-18.66
-20.95
-22.46
-22.83
-21.85
-19.60
-16.36
-12.52
-8.43
-4.33
-0.35
3.36
6.60
9.15
10.79
11.46
11.30
10.64
9.85
9.22
8.85
8.62
8.28
7.61
6.54
5.13
3.56
2.01
0.55
-0.84
-2.21
-3.56
-4.79
-5.70
-6.04
-5.66
-4.48
-2.61
-0.32
1.99
3.90
5.02
5.12
4.23
2.65
0.90
-0.42
-0.81
0.01
2.05
5.06
8.61
12.22
15.46
18.06
19.93
21.15
21.91
22.39
22.66
22.68
22.37
21.70
20.76
19.75
18.87
18.22
17.76
17.31
16.70
15.86
14.84
13.78
12.77
11.74
10.51
8.89
6.79
4.33
1.78
-0.55
-2.46
-3.95
-5.19
-6.50
-8.17
-10.42
-13.29
-16.56
-19.82
-22.49
-24.03
-24.09
-22.65
-20.03
-16.79
-13.47
-10.46
-7.88
-5.68
-3.75
-2.05
-0.59
0.58
1.48
2.18
2.84
3.61
4.67
6.11
7.99
10.28
12.87
15.54
18.03
20.09
21.52
22.26
22.30
21.67
20.42
18.56
16.14
13.24
10.01
6.63
3.26
0.02
-3.02
-5.87
-8.62
-11.37
-14.18
-16.98
-19.56
-21.58
-22.71
-22.76
-21.79
-20.11
-18.12
-16.11
-14.20
-12.36
-10.51
-8.75
-7.35
-6.61
-6.70
-7.47
-8.44
-9.02
-8.81
-7.74
-6.19
-4.73
-3.80
-3.45
-3.26
-2.56
-0.69
2.63
7.24
12.70
18.53
24.47
30.47
36.55
42.58
48.27
53.16
56.96
59.64
61.41
62.54
63.14
63.07
62.14
60.34
58.00
55.76
54.24
53.68
53.87
54.20
54.05
53.06
51.34
49.27
47.20
45.23
43.11
40.37
36.65
31.89
26.35
20.54
14.96
9.91
5.46
1.51
-2.06
-5.26
-7.94
-9.90
-11.09
-11.65
-11.94
-12.39
-13.29
-14.69
-16.37
-17.95
-19.14
-19.84
-20.24
-20.65
-21.34
-22.37
-23.56
-24.56
-25.04
-24.78
-23.77
-22.11
-19.89
-17.14
-13.87
-10.11
-6.07
-2.10
1.37
4.00
5.62
6.29
6.22
5.64
4.74
3.64
2.36
0.93
-0.62
-2.28
-4.04
-5.93
-7.96
-10.12
-12.31
-14.40
-16.31
-18.05
-19.73
-21.48
-23.38
-25.38
-27.28
-28.86
-29.89
-30.22
-29.85
-28.91
-27.62
-26.25
-25.06
-24.25
-23.84
-23.67
-23.38
-22.55
-20.83
-18.07
-14.39
-10.12
-5.67
-1.41
2.43
5.77
8.57
10.84
12.49
13.47
13.78
13.53
12.94
12.28
11.78
11.52
11.48
11.53
11.49
11.24
10.74
10.03
9.17
8.23
7.19
5.97
4.51
2.77
0.87
-1.01
-2.68
-4.01
-5.08
-6.10
-7.36
-9.09
-11.32
-13.83
-16.20
-17.96
-18.72
-18.30
-16.79
-14.49
-11.80
-9.16
-6.82
-4.89
-3.31
-1.98
-0.85
0.01
0.41
0.20
-0.64
-1.96
-3.49
-4.91
-6.03
-6.79
-7.23
-7.37
-7.22
-6.76
-6.08
-5.42
-5.08
-5.22
-5.67
-5.86
-5.01
-2.43
2.14
8.34
15.35
22.12
27.71
31.52
33.29
33.15
31.46
28.78
25.70
22.76
20.37
18.78
18.17
18.67
20.30
22.86
25.87
28.63
30.39
30.75
29.78
27.98
25.95
24.06
22.24
20.15
17.52
14.41
11.24
8.56
6.70
5.55
4.69
3.69
2.36
0.93
-0.24
-0.92
-1.17
-1.37
-1.94
-3.07
-4.70
-6.60
-8.55
-10.45
-12.38
-14.36
-16.33
-18.11
-19.53
-20.52
-21.18
-21.69
-22.11
-22.34
-22.10
-21.14
-19.30
-16.71
-13.62
-10.36
-7.13
-4.00
-0.95
2.04
4.84
7.21
8.89
9.74
9.79
9.33
8.74
8.37
8.41
8.83
9.46
10.11
10.63
10.95
11.05
10.86
10.27
9.20
7.67
5.88
4.17
2.86
2.06
1.62
1.23
0.57
-0.41
-1.54
-2.53
-3.15
-3.49
-3.92
-4.89
-6.66
-9.05
-11.45
-13.10
-13.42
-12.31
-10.08
-7.26
-4.23
-0.95
2.88
7.52
12.85
18.27
22.92
26.17
27.83
28.30
28.29
28.37
28.68
28.97
28.85
28.13
26.99
25.72
24.58
23.64
22.57
20.79
17.61
12.46
5.23
-3.73
-13.89
-24.43
-34.27
-42.55
-48.88
-53.45
-56.90
-59.78
-62.38
-65.16
-68.21
-71.22
-73.89
-76.22
-78.46
-81.00
-83.91
-87.02
-90.97
-96.32
-102.70
-108.96
-113.09
-112.73
-106.16
-92.85
-74.15
-53.73
-35.13
-19.41
-5.42
9.66
28.85
50.81
71.53
92.51
113.99
131.86
143.85
149.15
148.31
142.81
134.36
124.66
114.66
103.49
90.15
74.91
58.70
42.38
26.20
9.59
-7.79
-25.32
-41.88
-55.40
-63.40
-64.78
-60.44
-52.80
-44.57
-37.37
-31.42
-26.57
-22.41
-18.62
-15.25
-12.70
-11.08
-10.01
-8.59
-5.79
-1.19
5.29
13.44
22.84
32.33
40.50
46.32
49.65
51.48
53.36
57.25
64.22
74.16
84.68
92.46
94.93
91.50
83.74
74.19
66.23
61.98
62.59
66.39
70.22
70.97
66.42
55.78
38.69
17.08
-6.85
-29.89
-51.18
-71.94
-94.43
-121.16
-153.65
-193.05
-237.35
-284.15
-317.41
-322.95
-296.59
-247.61
-191.99
-142.05
-111.66
-97.75
-96.07
-101.77
-111.86
-123.93
-129.82
-122.79
-92.66
-40.82
21.72
78.68
119.77
142.39
149.79
147.65
140.75
132.54
124.06
119.31
119.65
126.45
138.36
150.75
157.94
155.27
141.50
118.16
90.17
62.75
39.28
22.14
11.23
5.18
2.57
2.73
4.95
8.91
13.82
19.05
23.89
27.36
28.92
28.43
25.98
21.14
13.65
3.74
-7.23
-17.06
-24.05
-27.42
-27.69
-26.70
-26.87
-29.54
-33.89
-37.51
-37.64
-33.11
-24.30
-12.36
1.15
14.44
25.33
31.26
28.89
15.20
-11.64
-50.64
-94.09
-129.87
-147.48
-144.67
-127.35
-104.76
-83.75
-67.62
-56.47
-48.63
-42.49
-37.60
-34.33
-32.94
-35.42
-41.37
-50.52
-62.93
-78.98
-99.37
-124.30
-152.22
-174.02
-182.66
-173.55
-147.20
-109.64
-70.27
-38.33
-19.42
-14.02
-17.82
-24.87
-32.20
-39.15
-46.19
-53.56
-60.52
-65.72
-68.15
-67.13
-64.01
-60.76
-59.02
-59.07
-59.47
-57.20
-48.25
-33.92
-14.61
7.88
31.21
53.43
73.57
91.88
109.61
128.24
148.93
172.93
200.40
230.56
261.72
291.05
314.79
329.14
331.45
321.31
301.39
275.85
248.95
223.78
201.55
182.09
164.71
149.03
134.98
122.70
111.49
99.94
86.65
71.19
54.62
39.01
26.52
18.19
13.51
10.56
7.00
1.28
-6.63
-15.32
-22.57
-26.40
-25.74
-20.80
-13.05
-4.84
1.12
2.29
-3.18
-15.91
-34.86
-57.19
-78.82
-95.63
-104.93
-106.33
-101.71
-94.22
-86.90
-81.38
-77.49
-73.78
-68.59
-61.21
-52.46
-44.31
-38.83
-36.92
-37.68
-38.68
-37.13
-31.36
-21.83
-11.16
-2.90
0.29
-2.03
-7.87
-13.90
-17.17
-16.48
-12.79
-8.56
-6.52
-8.44
-14.38
-22.72
-30.87
-36.18
-37.00
-33.20
-26.18
-18.09
-11.05
-6.23
-3.66
-2.40
-1.30
0.44
2.93
5.70
8.21
10.28
12.26
14.77
18.21
22.28
25.92
27.70
26.47
22.12
15.69
8.95
3.44
-0.42
-3.47
-7.30
-13.18
-21.28
-30.56
-39.64
-47.49
-53.98
-59.71
-65.43
-71.62
-78.39
-85.68
-93.27
-100.63
-106.41
-108.34
-103.52
-89.48
-65.56
-33.68
1.78
35.26
61.92
79.04
86.63
86.86
82.84
77.38
72.38
68.72
66.73
66.40
67.32
68.33
67.49
62.61
52.12
36.10
16.50
-3.49
-20.67
-33.15
-41.19
-47.14
-54.44
-66.22
-83.82
-106.20
-130.22
-151.74
-167.07
-173.96
-171.88
-161.67
-144.89
-123.33
-98.80
-73.02
-47.55
-23.57
-1.74
17.75
35.02
50.15
63.17
74.05
82.89
89.89
95.18
98.63
99.87
98.59
94.97
89.85
84.54
80.26
77.64
76.54
76.23
75.88
75.01
73.73
72.65
72.49
73.78
76.57
80.49
84.92
89.29
93.23
96.74
100.15
104.09
109.28
116.35
125.51
136.39
147.88
158.52
167.13
173.46
178.56
184.42
192.80
203.93
215.57
223.16
221.12
204.90
172.75
126.49
70.89
12.03
-44.85
-96.88
-144.11
-189.15
-236.04
-288.66
-349.11
-416.20
-484.67
-545.86
-589.78
-607.86
-595.75
-555.08
-493.60
-423.59
-358.61
-309.43
-280.69
-269.52
-267.22
-263.40
-250.80
-228.54
-201.91
-179.14
-166.75
-166.26
-173.72
-182.25
-185.58
-180.32
-166.21
-144.54
-116.45
-82.29
-42.21
2.92
50.97
98.90
144.06
185.45
224.04
262.06
301.12
340.65
377.33
405.92
421.44
421.35
406.77
382.04
353.03
325.06
301.42
283.03
268.98
257.54
247.12
236.73
226.14
215.71
206.13
197.98
191.48
186.32
181.90
177.56
172.99
168.23
163.56
159.06
154.48
149.32
143.01
135.15
125.40
113.27
97.75
77.44
50.88
17.29
-22.91
-68.09
-116.20
-165.81
-216.70
-269.33
-323.21
-375.25
-419.28
-447.43
-452.89
-432.76
-389.32
-328.93
-259.21
-186.35
-113.91
-43.79
21.79
78.88
122.35
147.92
154.66
145.86
127.90
107.34
88.09
70.29
51.16
27.72
-0.58
-30.69
-56.99
-73.58
-76.85
-66.95
-47.43
-23.63
-0.69
18.10
31.52
39.81
43.62
43.28
38.58
29.31
15.97
0.26
-15.07
-27.02
-33.45
-34.06
-30.47
-25.52
-21.87
-20.98
-22.57
-25.03
-26.35
-24.92
-19.87
-11.02
1.48
17.20
35.12
53.37
69.41
80.71
85.70
84.40
78.27
69.41
59.54
49.50
39.31
28.86
18.36
8.34
-0.74
-9.07
-17.46
-26.76
-37.01
-47.08
-54.92
-58.53
-56.92
-50.58
-41.19
-30.84
-21.21
-13.13
-6.62
-1.28
3.26
7.15
10.22
12.20
12.91
12.51
11.45
10.52
10.48
11.82
14.37
17.29
19.27
18.91
15.21
7.89
-2.48
-14.71
-27.26
-38.74
-48.28
-55.88
-62.60
-70.50
-81.99
-99.04
-122.24
-150.21
-179.72
-206.42
-226.00
-235.42
-233.63
-221.51
-201.09
-174.51
-143.21
-107.81
-68.77
-27.05
15.42
56.17
93.07
125.11
152.71
177.08
199.22
219.15
235.78
247.63
253.89
254.97
252.30
247.50
241.43
233.84
223.85
210.75
194.71
176.86
158.63
140.88
123.42
105.19
85.12
62.97
39.57
16.39
-5.27
-24.83
-42.35
-57.98
-71.36
-81.57
-87.65
-89.35
-87.61
-84.25
-81.31
-80.14
-80.91
-82.77
-84.44
-84.92
-83.80
-81.19
-77.45
-72.85
-67.58
-61.81
-55.98
-50.90
-47.45
-46.24
-47.25
-49.70
-52.32
-53.77
-53.20
-50.59
-46.56
-42.11
-37.99
-34.46
-31.20
-27.67
-23.48
-18.70
-13.92
-10.17
-8.90
-11.76
-20.40
-35.68
-56.74
-80.27
-100.92
-112.83
-111.99
-98.17
-75.14
-48.97
-25.32
-7.20
5.55
15.04
23.40
31.38
38.32
43.24
45.84
46.81
47.26
47.90
48.57
48.60
47.56
45.83
44.60
45.33
49.00
55.66
64.55
74.42
84.07
92.66
99.83
105.63
110.46
114.81
119.15
123.75
128.57
133.21
137.07
139.53
140.17
138.99
136.36
132.84
128.90
124.70
120.09
114.81
108.88
102.70
96.90
91.73
86.55
79.52
67.90
49.00
20.90
-17.06
-64.38
-119.52
-179.86
-241.10
-296.95
-339.63
-361.53
-357.63
-327.45
-275.53
-210.09
-140.58
-75.22
-19.65
23.36
53.41
71.81
81.07
84.38
84.86
84.74
84.70
83.95
80.93
74.25
63.25
48.17
29.72
8.78
-13.57
-35.83
-55.98
-71.98
-82.57
-88.28
-91.34
-94.83
-101.14
-110.68
-121.65
-131.17
-136.85
-138.03
-135.71
-131.40
-125.82
-118.44
-107.97
-93.75
-76.49
-58.09
-40.62
-25.06
-11.04
2.54
16.34
30.07
42.63
53.02
61.11
67.74
74.05
80.65
87.29
93.07
97.17
99.35
100.00
99.85
99.40
98.78
97.89
96.62
95.10
93.63
92.49
91.72
91.14
90.33
88.77
85.98
81.67
75.82
68.80
61.27
53.87
46.96
40.46
34.10
27.84
22.21
18.27
17.09
19.11
23.82
29.98
36.37
42.60
49.35
57.95
69.44
83.69
99.29
114.09
126.22
134.87
140.43
143.79
145.40
144.86
141.12
133.21
121.08
105.73
88.49
70.20
50.64
28.89
4.37
-22.15
-48.35
-71.25
-88.84
-101.44
-111.94
-124.65
-143.26
-168.86
-199.21
-229.60
-254.91
-271.85
-280.24
-282.67
-282.73
-283.04
-284.10
-284.66
-283.09
-278.83
-272.74
-266.40
-260.79
-255.55
-249.32
-241.01
-230.94
-220.75
-212.36
-206.47
-201.63
-194.79
-182.75
-164.00
-139.31
-111.16
-81.88
-52.14
-20.86
13.59
51.54
90.94
128.07
159.19
182.27
197.52
206.39
210.13
209.00
202.67
191.38
176.72
161.59
148.80
139.72
133.80
129.52
125.59
121.81
118.71
116.55
114.57
111.37
105.98
98.85
92.01
88.15
89.19
95.42
105.60
117.87
130.74
143.57
156.19
168.16
178.43
185.60
188.71
188.07
185.04
181.03
176.23
168.76
155.00
130.97
94.20
45.01
-13.35
-75.72
-136.53
-191.06
-236.08
-269.99
-292.86
-306.52
-314.37
-320.53
-328.27
-338.21
-347.51
-350.74
-342.22
-318.68
-280.72
-232.16
-177.76
-120.70
-61.53
0.77
66.10
131.37
190.23
235.27
261.28
267.67
258.55
240.42
218.76
195.73
170.13
139.37
101.92
58.83
13.34
-30.35
-68.36
-97.25
-113.54
-113.51
-94.26
-55.94
-3.59
52.79
100.93
130.65
137.82
125.42
101.24
73.38
46.55
20.90
-5.98
-35.71
-66.74
-94.49
-113.71
-121.45
-118.59
-108.85
-96.42
-83.74
-70.84
-56.36
-39.29
-20.12
-0.86
15.85
27.91
34.48
36.19
34.81
32.68
31.85
33.38
36.93
40.89
43.38
43.24
40.75
37.44
35.12
34.87
36.37
38.26
39.02
37.79
34.76
30.84
27.14
24.53
23.53
24.40
27.21
31.79
37.69
44.28
50.90
57.05
62.28
65.95
67.13
64.86
58.79
49.58
38.94
28.95
21.09
15.62
11.63
7.69
2.85
-2.86
-8.60
-13.29
-16.42
-18.32
-19.91
-22.09
-25.19
-28.81
-32.15
-34.51
-35.70
-36.09
-36.27
-36.68
-37.39
-38.19
-38.98
-40.06
-42.07
-45.58
-50.57
-56.19
-61.10
-64.07
-64.61
-63.11
-60.57
-58.03
-56.02
-54.47
-52.90
-50.82
-48.00
-44.58
-40.95
-37.59
-34.95
-33.29
-32.61
-32.53
-32.32
-31.04
-27.72
-21.63
-12.48
-0.40
14.01
29.78
45.71
60.58
73.30
83.24
90.30
94.84
97.50
98.83
99.15
98.49
96.73
93.74
89.62
84.65
79.30
74.02
69.04
64.17
58.83
52.28
44.03
34.27
23.93
14.46
7.30
3.42
3.03
5.65
10.41
16.27
22.29
27.61
31.53
33.60
33.78
32.49
30.53
28.81
27.99
28.15
28.57
27.91
24.51
17.07
5.31
-9.60
-25.13
-38.05
-45.60
-46.44
-41.13
-31.86
-21.59
-12.96
-7.52
-5.40
-5.63
-6.76
-7.56
-7.51
-6.99
-7.00
-8.78
-13.32
-21.01
-31.40
-43.19
-54.48
-63.09
-67.11
-65.34
-57.74
-45.45
-30.62
-15.82
-3.29
5.61
10.80
13.25
14.44
15.57
17.01
18.29
18.58
17.39
15.03
12.55
11.08
11.05
11.85
12.26
11.21
8.58
5.26
2.53
1.15
0.82
0.33
-1.63
-5.57
-10.86
-16.15
-20.18
-22.37
-23.08
-23.25
-23.84
-25.44
-28.16
-31.76
-35.81
-39.75
-42.94
-44.76
-44.79
-42.99
-39.64
-35.25
-30.18
-24.63
-18.65
-12.33
-5.98
-0.07
4.99
9.14
12.77
16.47
20.48
24.23
26.21
24.44
17.35
4.78
-11.57
-28.54
-42.50
-50.70
-52.12
-47.55
-38.93
-28.32
-17.29
-6.78
2.60
10.21
15.36
17.56
16.92
14.30
11.12
8.77
8.13
9.23
11.38
13.54
14.83
14.86
13.79
12.19
10.78
10.01
9.93
10.17
10.09
9.17
7.27
4.76
2.42
1.13
1.43
3.38
6.53
10.27
14.10
17.83
21.54
25.27
28.94
32.21
34.71
36.23
36.84
36.82
36.48
36.00
35.45
34.82
34.20
33.79
33.77
34.20
34.87
35.28
34.82
32.88
29.14
23.63
16.75
9.26
2.08
-4.01
-8.55
-11.58
-13.56
-15.16
-17.11
-19.91
-23.78
-28.69
-34.58
-41.43
-49.32
-58.21
-67.64
-76.59
-83.68
-87.67
-88.10
-85.62
-81.72
-77.98
-75.22
-73.16
-70.72
-66.87
-61.38
-55.00
-48.99
-44.28
-40.97
-38.36
-35.43
-31.49
-26.44
-20.69
-14.69
-8.72
-2.87
2.66
7.54
11.29
13.68
14.97
15.97
17.60
20.49
24.54
28.99
32.73
34.85
34.89
32.90
29.14
23.88
17.33
9.90
2.38
-4.02
-8.05
-8.96
-6.90
-2.91
1.55
5.22
7.57
8.83
9.66
10.61
11.77
12.80
13.26
12.91
11.89
10.58
9.45
8.97
9.62
11.82
15.77
21.13
26.93
31.69
33.98
33.01
29.00
23.06
16.60
10.80
6.21
2.81
0.38
-1.26
-2.19
-2.51
-2.51
-2.71
-3.60
-5.47
-8.24
-11.52
-14.75
-17.43
-19.26
-20.28
-20.75
-21.06
-21.55
-22.37
-23.49
-24.71
-25.86
-26.84
-27.66
-28.42
-29.32
-30.65
-32.78
-36.06
-40.43
-45.25
-49.21
-50.85
-49.22
-44.49
-38.02
-31.73
-27.15
-24.53
-22.82
-20.29
-15.60
-8.53
0.01
8.72
16.69
23.90
30.96
38.48
46.53
54.51
61.53
67.04
71.14
74.44
77.61
80.83
83.62
85.16
84.74
82.10
77.48
71.29
63.90
55.56
46.48
36.99
27.59
18.74
10.58
2.82
-5.06
-13.41
-22.00
-29.91
-35.81
-38.48
-37.33
-32.69
-25.58
-17.35
-9.10
-1.38
5.86
12.94
20.06
27.00
33.20
38.06
41.38
43.56
45.45
47.84
51.04
54.69
57.95
60.03
60.59
59.94
58.74
57.69
57.15
57.01
56.79
55.90
53.86
50.45
45.81
40.37
34.77
29.59
25.19
21.58
18.51
15.68
13.03
10.91
10.03
11.23
15.06
21.47
29.72
38.70
47.32
54.88
60.96
65.22
67.12
65.98
61.29
53.08
41.84
27.97
11.07
-10.25
-37.65
-71.65
-110.30
-148.92
-181.43
-202.71
-210.76
-207.42
-197.28
-185.29
-174.61
-165.74
-157.27
-147.61
-136.51
-125.38
-116.31
-110.72
-108.27
-107.09
-104.83
-99.94
-92.41
-83.48
-74.68
-66.86
-59.88
-52.92
-45.14
-36.30
-26.89
-17.86
-10.06
-3.85
1.02
5.17
9.17
13.21
16.97
19.88
21.47
21.77
21.37
21.14
21.82
23.62
26.16
28.75
30.85
32.29
33.27
34.12
35.03
35.90
36.52
36.75
36.65
36.43
36.24
35.96
35.26
33.65
30.88
27.02
22.56
18.24
14.83
12.92
12.80
14.45
17.57
21.65
26.02
29.95
32.75
33.93
33.35
31.21
27.98
24.25
20.54
17.25
14.64
12.94
12.36
12.93
14.35
15.89
16.55
15.52
12.53
8.05
3.06
-1.44
-4.87
-7.34
-9.40
-11.68
-14.51
-17.83
-21.41
-25.18
-29.29
-33.98
-39.14
-44.04
-47.39
-47.79
-44.23
-36.62
-25.88
-13.56
-1.37
9.50
18.55
26.04
32.56
38.65
44.46
49.62
53.41
55.06
54.02
50.16
43.83
35.78
27.02
18.68
11.74
6.80
3.83
2.19
1.01
-0.44
-2.37
-4.41
-5.86
-6.13
-5.12
-3.32
-1.67
-1.29
-3.16
-7.71
-14.48
-21.98
-27.90
-29.92
-26.60
-18.19
-6.57
5.46
15.45
22.14
25.67
27.08
27.44
27.38
27.05
26.46
25.76
25.29
25.29
25.61
25.67
24.77
22.44
18.65
13.81
8.58
3.58
-0.71
-3.98
-6.02
-6.78
-6.47
-5.54
-4.63
-4.34
-4.93
-6.27
-7.85
-9.12
-9.74
-9.74
-9.52
-9.58
-10.30
-11.81
-13.91
-16.18
-18.15
-19.41
-19.70
-18.93
-17.19
-14.74
-11.89
-8.97
-6.23
-3.81
-1.72
0.02
1.43
2.50
3.28
3.80
4.13
4.30
4.24
3.86
3.08
1.92
0.53
-0.86
-2.06
-3.06
-4.03
-5.22
-6.81
-8.82
-11.09
-13.35
-15.41
-17.21
-18.80
-20.27
-21.71
-23.15
-24.50
-25.59
-26.13
-25.66
-23.60
-19.35
-12.45
-2.87
8.85
21.71
34.48
46.11
55.94
63.88
70.14
75.01
78.55
80.58
80.74
78.69
74.40
68.12
60.39
51.83
42.98
34.25
25.93
18.20
11.24
5.14
-0.09
-4.64
-8.76
-12.67
-16.39
-19.70
-22.28
-23.93
-24.75
-25.11
-25.45
-26.04
-26.83
-27.50
-27.62
-26.92
-25.33
-22.98
-20.07
-16.79
-13.34
-9.96
-6.88
-4.33
-2.41
-1.09
-0.23
0.35
0.77
1.09
1.30
1.35
1.22
0.91
0.49
0.05
-0.35
-0.65
-0.84
-0.96
-1.05
-1.22
-1.55
-2.09
-2.90
-3.94
-5.12
-6.29
-7.27
-7.94
-8.34
-8.63
-9.05
-9.83
-11.00
-12.40
-13.67
-14.35
-14.11
-12.79
-10.54
-7.67
-4.57
-1.51
1.36
4.06
6.62
8.98
10.98
12.38
12.99
12.74
11.78
10.35
8.78
7.27
5.91
4.68
3.48
2.30
1.20
0.36
-0.10
-0.18
-0.07
-0.09
-0.47
-1.30
-2.44
-3.67
-4.81
-5.83
-6.82
-7.91
-9.13
-10.41
-11.61
-12.59
-13.27
-13.61
-13.56
-13.06
-12.02
-10.37
-8.15
-5.47
-2.51
0.43
3.09
5.18
6.52
7.12
7.18
7.00
6.87
6.94
7.15
7.25
6.98
6.19
4.97
3.57
2.38
1.68
1.59
2.02
2.68
3.26
3.48
3.21
2.49
1.46
0.32
-0.77
-1.74
-2.63
-3.52
-4.49
-5.53
-6.49
-7.18
-7.43
-7.11
-6.24
-4.90
-3.23
-1.33
0.68
2.74
4.73
6.55
8.07
9.19
9.79
9.81
9.19
7.97
6.32
4.52
2.92
1.82
1.33
1.38
1.69
1.98
2.01
1.75
1.26
0.70
0.14
-0.45
-1.17
-2.11
-3.27
-4.51
-5.67
-6.59
-7.22
-7.70
-8.22
-8.98
-10.03
-11.20
-12.20
-12.65
-12.28
-11.03
-9.03
-6.58
-3.99
-1.48
0.85
2.97
4.82
6.29
7.24
7.62
7.53
7.17
6.81
6.60
6.54
6.50
6.32
5.90
5.28
4.57
3.92
3.40
3.01
2.63
2.12
1.40
0.46
-0.65
-1.82
-2.97
-4.07
-5.15
-6.21
-7.23
-8.18
-9.03
-9.84
-10.70
-11.68
-12.73
-13.63
-14.04
-13.68
-12.40
-10.32
-7.66
-4.71
-1.70
1.18
3.79
5.92
7.41
8.18
8.29
7.94
7.40
6.82
6.27
5.72
5.11
4.48
3.92
3.55
3.39
3.38
3.34
3.10
2.60
1.87
1.09
0.43
0.04
-0.07
-0.02
0.02
-0.12
-0.54
-1.25
-2.15
-3.14
-4.14
-5.10
-5.97
-6.70
-7.14
-7.17
-6.69
-5.75
-4.50
-3.17
-1.95
-0.90
0.05
1.06
2.27
3.68
5.18
6.51
7.45
7.87
7.80
7.40
6.86
6.31
5.77
5.20
4.56
3.90
3.34
3.03
3.03
3.25
3.50
3.51
3.12
2.31
1.22
0.09
-0.84
-1.45
-1.82
-2.17
-2.79
-3.88
-5.42
-7.14
-8.64
-9.49
-9.42
-8.36
-6.45
-3.95
-1.15
1.66
4.19
6.19
7.47
7.99
7.88
7.43
6.92
6.53
6.25
5.93
5.39
4.57
3.59
2.66
1.99
1.64
1.49
1.30
0.86
0.11
-0.84
-1.82
-2.67
-3.37
-3.98
-4.59
-5.28
-6.06
-6.90
-7.78
-8.72
-9.74
-10.80
-11.82
-12.59
-12.87
-12.46
-11.22
-9.19
-6.53
-3.56
-0.63
1.93
3.92
5.33
6.31
7.07
7.74
8.34
8.78
8.94
8.73
8.21
7.50
6.73
6.04
5.48
5.02
4.58
4.07
3.41
2.58
1.59
0.53
-0.52
-1.49
-2.36
-3.12
-3.78
-4.37
-4.92
-5.46
-6.09
-6.88
-7.89
-9.09
-10.30
-11.24
-11.63
-11.24
-10.00
-8.04
-5.58
-2.91
-0.25
2.20
4.32
5.98
7.10
7.64
7.67
7.39
7.01
6.74
6.62
6.58
6.44
6.05
5.39
4.56
3.73
3.02
2.44
1.90
1.29
0.54
-0.30
-1.11
-1.80
-2.35
-2.85
-3.48
-4.33
-5.40
-6.56
-7.66
-8.58
-9.27
-9.77
-10.08
-10.16
-9.88
-9.10
-7.76
-5.88
-3.63
-1.23
1.10
3.17
4.85
6.06
6.78
7.06
7.02
6.79
6.46
6.04
5.48
4.76
3.95
3.21
2.72
2.55
2.64
2.80
2.84
2.67
2.30
1.83
1.34
0.80
0.14
-0.68
-1.63
-2.57
-3.33
-3.85
-4.17
-4.47
-4.95
-5.72
-6.72
-7.73
-8.37
-8.34
-7.48
-5.88
-3.80
-1.57
0.57
2.51
4.26
5.87
7.33
8.53
9.39
9.85
9.93
9.74
9.37
8.88
8.29
7.64
6.97
6.37
5.86
5.38
4.85
4.16
3.30
2.30
1.27
0.27
-0.71
-1.67
-2.64
-3.60
-4.50
-5.32
-6.06
-6.80
-7.62
-8.54
-9.49
-10.27
-10.65
-10.43
-9.55
-8.08
-6.19
-4.08
-1.89
0.29
2.36
4.24
5.79
6.89
7.50
7.64
7.39
6.84
6.03
5.00
3.86
2.77
1.87
1.23
0.81
0.47
0.08
-0.38
-0.88
-1.35
-1.79
-2.31
-2.99
-3.82
-4.71
-5.49
-6.08
-6.55
-7.08
-7.86
-8.90
-10.05
-10.99
-11.42
-11.19
-10.30
-8.90
-7.19
-5.29
-3.23
-1.02
1.33
3.70
5.89
7.68
8.92
9.59
9.82
9.78
9.58
9.27
8.79
8.09
7.18
6.16
5.15
4.24
3.46
2.79
2.19
1.67
1.21
0.80
0.36
-0.19
-0.88
-1.67
-2.45
-3.14
-3.74
-4.34
-5.10
-6.11
-7.39
-8.79
-10.09
-11.05
-11.51
-11.37
-10.65
-9.39
-7.70
-5.61
-3.22
-0.59
2.11
4.68
6.88
8.52
9.54
9.96
9.93
9.56
8.95
8.21
7.44
6.78
6.32
6.05
5.83
5.46
4.74
3.64
2.30
1.00
0.01
-0.57
-0.78
-0.88
-1.09
-1.60
-2.44
-3.46
-4.49
-5.37
-6.09
-6.74
-7.50
-8.44
-9.52
-10.53
-11.19
-11.27
-10.66
-9.39
-7.53
-5.20
-2.51
0.38
3.23
5.78
7.76
9.07
9.74
9.93
9.81
9.48
8.96
8.26
7.40
6.46
5.57
4.83
4.26
3.86
3.56
3.29
3.01
2.67
2.26
1.74
1.13
0.42
-0.32
-1.05
-1.72
-2.32
-2.87
-3.46
-4.21
-5.18
-6.38
-7.71
-8.93
-9.73
-9.88
-9.24
-7.82
-5.78
-3.35
-0.74
1.85
4.28
6.40
8.11
9.30
9.93
10.01
9.64
8.99
8.18
7.33
6.52
5.75
5.04
4.37
3.69
2.97
2.16
1.25
0.30
-0.62
-1.43
-2.12
-2.71
-3.28
-3.89
-4.55
-5.22
-5.87
-6.53
-7.28
-8.21
-9.34
-10.56
-11.62
-12.26
-12.22
-11.40
-9.82
-7.62
-4.98
-2.11
0.79
3.56
6.04
8.11
9.67
10.65
11.06
10.91
10.29
9.33
8.19
7.05
6.06
5.30
4.76
4.37
4.04
3.68
3.24
2.71
2.08
1.33
0.46
-0.55
-1.62
-2.67
-3.63
-4.45
-5.19
-5.93
-6.76
-7.69
-8.69
-9.69
-10.60
-11.34
-11.78
-11.71
-10.91
-9.21
-6.60
-3.30
0.29
3.72
6.61
8.77
10.20
10.97
11.24
11.14
10.77
10.23
9.56
8.78
7.90
6.95
5.94
4.98
4.14
3.50
3.07
2.78
2.51
2.11
1.49
0.61
-0.48
-1.69
-2.89
-4.01
-4.99
-5.82
-6.50
-7.05
-7.49
-7.92
-8.45
-9.20
-10.21
-11.31
-12.19
-12.44
-11.72
-9.89
-7.12
-3.76
-0.27
2.96
5.62
7.62
8.99
9.82
10.18
10.17
9.81
9.16
8.28
7.26
6.25
5.37
4.71
4.29
4.07
3.94
3.79
3.54
3.15
2.62
1.96
1.19
0.30
-0.70
-1.85
-3.12
-4.45
-5.74
-6.86
-7.73
-8.34
-8.77
-9.13
-9.50
-9.81
-9.89
-9.54
-8.63
-7.24
-5.66
-4.25
-3.31
-2.91
-2.91
-3.11
-3.39
-3.76
-4.20
-4.55
-4.33
-3.05
-0.43
3.27
7.27
10.62
12.69
13.50
13.63
13.81
14.44
15.34
15.95
15.81
14.92
13.83
13.31
13.87
15.45
17.37
18.72
18.80
17.45
15.12
12.58
10.59
9.62
9.69
10.48
11.51
12.36
12.80
12.75
12.19
11.06
9.28
6.77
3.58
-0.02
-3.60
-6.73
-9.13
-10.76
-11.81
-12.53
-13.11
-13.59
-13.90
-13.98
-13.84
-13.56
-13.25
-12.95
-12.60
-12.09
-11.36
-10.48
-9.62
-9.01
-8.83
-9.10
-9.65
-10.28
-10.84
-11.34
-11.90
-12.70
-13.77
-14.91
-15.74
-15.85
-15.00
-13.19
-10.70
-7.93
-5.21
-2.75
-0.62
1.22
2.73
3.89
4.64
4.96
4.91
4.63
4.30
4.04
3.90
3.81
3.63
3.20
2.44
1.34
0.05
-1.25
-2.39
-3.25
-3.87
-4.34
-4.76
-5.20
-5.62
-5.93
-6.07
-6.03
-5.87
-5.74
-5.78
-6.07
-6.58
-7.16
-7.59
-7.62
-7.06
-5.80
-3.89
-1.48
1.13
3.64
5.79
7.46
8.68
9.54
10.11
10.37
10.21
9.49
8.15
6.29
4.16
2.10
0.41
-0.68
-1.05
-0.66
0.49
2.35
4.76
7.42
9.93
11.87
12.95
13.01
12.08
10.27
7.75
4.67
1.22
-2.42
-5.92
-8.93
-11.07
-12.05
-11.81
-10.54
-8.71
-6.93
-5.76
-5.49
-6.03
-6.90
-7.46
-7.12
-5.54
-2.71
1.10
5.48
9.95
14.00
17.18
19.06
19.45
18.35
16.02
12.89
9.41
5.94
2.67
-0.32
-3.10
-5.78
-8.48
-11.30
-14.22
-16.94
-18.99
-19.83
-19.18
-17.11
-14.10
-10.81
-7.77
-5.12
-2.68
-0.08
2.87
6.09
9.25
12.00
14.13
15.64
16.68
17.34
17.57
17.27
16.37
14.99
13.45
12.05
11.00
10.26
9.59
8.73
7.50
5.96
4.25
2.54
0.91
-0.63
-2.10
-3.46
-4.57
-5.20
-5.21
-4.57
-3.45
-2.18
-1.16
-0.75
-1.22
-2.71
-5.11
-8.09
-11.13
-13.60
-15.00
-15.05
-13.80
-11.54
-8.68
-5.60
-2.56
0.29
2.88
5.15
7.08
8.67
9.95
10.95
11.57
11.65
10.98
9.47
7.21
4.55
1.90
-0.37
-2.11
-3.40
-4.43
-5.35
-6.22
-6.96
-7.52
-7.91
-8.24
-8.67
-9.33
-10.23
-11.28
-12.38
-13.49
-14.71
-16.14
-17.81
-19.51
-20.82
-21.18
-20.15
-17.61
-13.79
-9.26
-4.69
-0.65
2.59
5.02
6.76
7.99
8.71
8.82
8.20
6.80
4.73
2.27
-0.23
-2.44
-4.20
-5.60
-6.94
-8.64
-10.99
-14.09
-17.72
-21.47
-24.93
-27.88
-30.47
-33.13
-36.39
-40.61
-45.77
-51.44
-57.00
-61.89
-65.87
-69.12
-72.19
-75.78
-80.39
-86.09
-92.33
-97.97
-101.27
-100.13
-92.51
-77.02
-53.57
-23.76
9.29
41.79
70.44
93.44
110.84
124.02
134.73
144.04
151.99
157.84
160.72
160.25
156.77
150.97
143.58
135.10
125.71
115.43
104.39
92.97
81.61
70.67
60.13
49.56
38.31
25.84
12.21
-1.83
-14.98
-25.81
-33.25
-36.79
-36.43
-32.50
-25.59
-16.63
-7.14
0.89
5.45
5.28
0.42
-8.00
-18.25
-28.86
-38.84
-47.58
-54.35
-58.10
-57.86
-53.37
-45.59
-36.58
-28.68
-23.45
-20.97
-19.94
-18.37
-14.61
-8.01
0.85
10.59
19.69
27.05
32.37
35.98
38.46
40.14
40.98
40.66
39.07
36.55
33.88
31.74
30.18
28.33
24.80
18.49
9.33
-1.55
-12.42
-21.88
-29.62
-36.34
-43.02
-49.94
-56.20
-59.98
-59.61
-54.62
-46.09
-36.22
-27.18
-20.17
-15.09
-11.00
-7.00
-2.85
0.86
3.27
3.76
2.40
-0.12
-2.90
-5.24
-6.91
-8.04
-8.93
-9.66
-10.09
-9.96
-9.12
-7.73
-6.24
-5.17
-4.89
-5.41
-6.40
-7.35
-7.85
-7.67
-6.84
-5.53
-3.94
-2.18
-0.40
1.28
2.72
3.84
4.62
5.13
5.46
5.71
5.90
6.01
6.06
6.14
6.39
6.90
7.59
8.21
8.37
7.70
6.05
3.57
0.61
-2.37
-4.99
-7.03
-8.45
-9.29
-9.66
-9.68
-9.48
-9.20
-9.04
-9.13
-9.51
-10.08
-10.57
-10.67
-10.18
-9.10
-7.69
-6.30
-5.26
-4.67
-4.38
-4.04
-3.34
-2.15
-0.53
1.28
2.98
4.38
5.40
6.10
6.57
6.88
7.09
7.21
7.27
7.31
7.34
7.34
7.20
6.78
5.97
4.79
3.38
2.02
1.02
0.55
0.61
0.98
1.34
1.40
0.97
0.06
-1.22
-2.65
-3.98
-5.05
-5.77
-6.21
-6.53
-6.90
-7.48
-8.23
-8.99
-9.51
-9.52
-8.88
-7.57
-5.70
-3.43
-0.92
1.70
4.30
6.71
8.75
10.27
11.20
11.61
11.65
11.51
11.33
11.13
10.88
10.52
10.00
9.36
8.67
7.98
7.34
6.75
6.18
5.57
4.89
4.10
3.23
2.28
1.31
0.31
-0.72
-1.79
-2.91
-4.05
-5.16
-6.22
-7.23
-8.27
-9.40
-10.62
-11.85
-12.93
-13.72
-14.23
-14.60
-15.02
-15.66
-16.48
-17.20
-17.38
-16.58
-14.60
-11.53
-7.76
-3.84
-0.28
2.59
4.71
6.23
7.39
8.39
9.31
10.09
10.59
10.67
10.34
9.72
8.97
8.26
7.62
7.03
6.41
5.79
5.28
5.00
5.03
5.30
5.61
5.70
5.38
4.61
3.48
2.20
1.00
0.08
-0.50
-0.77
-0.86
-0.96
-1.21
-1.71
-2.49
-3.54
-4.76
-6.05
-7.21
-7.98
-8.09
-7.39
-5.86
-3.65
-1.05
1.64
4.16
6.33
8.06
9.34
10.22
10.78
11.14
11.32
11.32
11.07
10.52
9.69
8.66
7.57
6.54
5.63
4.83
4.10
3.37
2.60
1.79
0.96
0.13
-0.67
-1.44
-2.24
-3.08
-3.95
-4.79
-5.49
-6.01
-6.39
-6.74
-7.21
-7.87
-8.65
-9.41
-10.00
-10.37
-10.63
-10.93
-11.42
-12.14
-13.00
-13.83
-14.43
-14.61
-14.19
-13.10
-11.31
-8.92
-6.08
-2.97
0.22
3.28
6.02
8.27
9.90
10.90
11.39
11.52
11.42
11.14
10.62
9.79
8.71
7.51
6.42
5.63
5.17
4.96
4.81
4.56
4.12
3.47
2.65
1.70
0.67
-0.41
-1.49
-2.47
-3.29
-3.92
-4.40
-4.84
-5.35
-6.01
-6.82
-7.68
-8.48
-9.14
-9.65
-10.07
-10.50
-11.01
-11.65
-12.40
-13.21
-13.96
-14.47
-14.48
-13.73
-12.04
-9.40
-6.05
-2.35
1.32
4.62
7.42
9.66
11.36
12.54
13.20
13.40
13.20
12.69
11.94
11.01
9.91
8.65
7.29
5.92
4.67
3.63
2.86
2.39
2.19
2.22
2.39
2.61
2.77
2.83
2.82
2.82
2.92
3.14
3.39
3.51
3.32
2.74
1.81
0.66
-0.53
-1.61
-2.55
-3.36
-4.08
-4.68
-5.00
-4.86
-4.12
-2.82
-1.24
0.26
1.41
2.25
3.08
4.35
6.37
9.06
12.00
14.53
16.09
16.42
15.64
14.16
12.44
10.86
9.55
8.43
7.28
5.87
4.04
1.80
-0.77
-3.61
-6.63
-9.65
-12.27
-13.85
-13.76
-11.86
-8.82
-6.18
-5.72
-8.60
-14.67
-22.43
-29.69
-34.58
-36.26
-35.06
-32.00
-28.09
-23.88
-19.43
-14.65
-9.62
-4.68
-0.28
3.23
5.85
7.80
9.47
11.16
13.05
15.08
16.99
18.41
18.96
18.50
17.14
15.32
13.53
12.17
11.36
10.93
10.54
9.88
8.79
7.35
5.76
4.20
2.72
1.28
-0.19
-1.61
-2.80
-3.53
-3.73
-3.54
-3.26
-3.17
-3.33
-3.55
-3.52
-3.12
-2.52
-2.17
-2.42
-3.36
-4.72
-6.02
-6.90
-7.32
-7.45
-7.51
-7.47
-6.95
-5.39
-2.38
2.00
7.13
12.02
15.72
17.70
17.98
17.09
15.73
14.45
13.46
12.69
11.95
11.17
10.41
9.80
9.37
9.01
8.49
7.73
6.81
6.01
5.61
5.64
5.85
5.80
5.08
3.52
1.28
-1.30
-3.86
-6.19
-8.21
-9.97
-11.52
-12.87
-14.04
-15.14
-16.47
-18.34
-20.95
-24.25
-27.82
-31.11
-33.60
-34.99
-35.25
-34.55
-33.09
-30.99
-28.32
-25.09
-21.39
-17.33
-13.06
-8.73
-4.44
-0.28
3.63
7.23
10.54
13.64
16.61
19.49
22.11
24.18
25.33
25.28
24.01
21.81
19.17
16.60
14.44
12.80
11.59
10.62
9.74
8.85
7.82
6.49
4.65
2.19
-0.74
-3.69
-6.00
-7.06
-6.58
-4.69
-1.92
1.12
3.97
6.42
8.51
10.36
12.01
13.34
14.17
14.35
13.88
12.94
11.76
10.52
9.30
8.06
6.75
5.40
4.16
3.28
2.98
3.33
4.15
5.08
5.63
5.40
4.21
2.15
-0.48
-3.29
-5.97
-8.32
-10.28
-11.91
-13.33
-14.74
-16.41
-18.54
-21.17
-24.09
-26.82
-28.69
-29.04
-27.45
-23.98
-19.25
-14.27
-10.16
-7.75
-7.31
-8.44
-10.35
-12.18
-13.41
-13.95
-14.18
-14.59
-15.62
-17.58
-20.66
-24.90
-29.93
-34.72
-37.60
-36.76
-31.03
-20.60
-7.12
6.99
19.57
29.67
37.57
44.16
50.01
54.88
57.89
58.34
56.29
52.74
49.07
46.27
44.48
43.04
41.08
38.09
34.23
30.25
27.01
24.96
23.85
22.82
20.92
17.59
13.09
8.41
4.78
3.09
3.46
5.30
7.79
10.40
13.19
16.58
20.86
25.71
30.04
32.30
31.12
25.94
17.25
6.47
-4.65
-14.59
-22.49
-28.21
-32.04
-34.40
-35.57
-35.72
-35.02
-33.77
-32.29
-30.86
-29.61
-28.47
-27.40
-26.44
-25.76
-25.55
-25.87
-26.60
-27.51
-28.38
-29.09
-29.67
-30.12
-30.39
-30.36
-29.87
-28.80
-27.08
-24.62
-21.40
-17.45
-12.94
-8.18
-3.57
0.61
4.23
7.39
10.31
13.13
15.77
17.91
19.09
18.90
17.18
14.15
10.37
6.67
3.88
2.55
2.84
4.38
6.48
8.44
9.75
10.25
9.93
8.79
6.59
2.92
-2.52
-9.62
-17.65
-25.41
-31.64
-35.50
-36.84
-36.12
-34.01
-31.10
-27.58
-23.41
-18.52
-13.02
-7.18
-1.25
4.72
10.93
17.59
24.57
31.31
36.93
40.72
42.55
42.97
42.94
43.28
44.23
45.37
45.97
45.49
43.85
41.45
38.81
36.25
33.85
31.51
29.27
27.30
25.76
24.59
23.34
21.39
18.26
13.94
8.86
3.74
-0.86
-4.75
-8.08
-11.12
-14.11
-17.07
-19.90
-22.45
-24.65
-26.54
-28.21
-29.80
-31.36
-32.92
-34.41
-35.67
-36.46
-36.48
-35.47
-33.35
-30.27
-26.65
-23.03
-19.84
-17.28
-15.22
-13.35
-11.45
-9.53
-7.84
-6.68
-6.12
-5.89
-5.57
-4.86
-3.73
-2.40
-1.12
0.04
1.28
2.78
4.58
6.39
7.77
8.39
8.22
7.53
6.63
5.69
4.64
3.36
1.94
0.74
0.25
0.82
2.30
4.06
5.20
4.84
2.52
-1.64
-7.01
-12.69
-17.82
-21.77
-24.31
-25.40
-25.17
-23.71
-21.08
-17.29
-12.37
-6.51
-0.03
6.61
12.91
18.41
22.80
25.97
27.94
28.79
28.65
27.62
25.80
23.33
20.35
17.06
13.67
10.33
7.17
4.27
1.64
-0.77
-3.12
-5.63
-8.52
-11.88
-15.64
-19.48
-22.90
-25.36
-26.42
-25.99
-24.40
-22.38
-20.83
-20.48
-21.59
-23.89
-26.80
-29.74
-32.43
-34.95
-37.49
-40.02
-42.06
-42.75
-41.26
-37.16
-30.65
-22.41
-13.28
-3.84
5.72
15.46
25.38
35.05
43.69
50.42
54.70
56.64
56.92
56.43
55.84
55.40
55.00
54.36
53.11
50.70
46.34
39.10
28.45
14.75
-0.35
-14.22
-24.04
-27.99
-25.98
-19.69
-11.79
-4.86
-0.44
1.25
0.91
-0.49
-2.33
-4.48
-7.05
-9.92
-12.55
-14.09
-13.91
-11.98
-9.05
-6.23
-4.45
-3.94
-4.16
-4.15
-3.08
-0.72
2.38
5.16
6.60
6.24
4.49
2.37
0.99
0.93
1.76
2.23
0.91
-3.04
-9.32
-16.56
-22.96
-27.06
-28.42
-27.61
-25.88
-24.48
-24.13
-24.88
-26.19
-27.26
-27.42
-26.31
-24.01
-20.90
-17.49
-14.22
-11.35
-8.89
-6.67
-4.41
-1.75
1.72
6.38
12.48
19.92
28.16
36.28
43.19
48.05
50.51
50.79
49.51
47.39
45.01
42.67
40.50
38.54
36.85
35.50
34.49
33.62
32.60
31.09
28.82
25.70
21.81
17.38
12.73
8.29
4.44
1.49
-0.45
-1.53
-2.01
-2.18
-2.19
-2.03
-1.63
-1.02
-0.34
0.20
0.47
0.52
0.50
0.62
0.92
1.31
1.60
1.70
1.70
1.77
2.14
2.81
3.58
4.12
4.05
3.20
1.66
-0.25
-2.12
-3.57
-4.43
-4.69
-4.44
-3.76
-2.62
-1.03
0.89
2.79
4.20
4.79
4.57
3.97
3.61
3.96
4.98
6.13
6.66
6.03
4.27
1.97
-0.09
-1.42
-2.09
-2.63
-3.68
-5.47
-7.71
-9.83
-11.36
-12.27
-13.02
-14.13
-15.83
-17.86
-19.66
-20.78
-21.24
-21.50
-22.13
-23.37
-24.97
-26.31
-26.78
-26.10
-24.40
-22.01
-19.26
-16.32
-13.27
-10.21
-7.42
-5.24
-3.97
-3.70
-4.28
-5.43
-6.79
-8.11
-9.23
-10.08
-10.65
-10.94
-10.95
-10.67
-10.07
-9.11
-7.77
-6.12
-4.31
-2.60
-1.19
-0.10
0.90
2.29
4.49
7.67
11.51
15.32
18.22
19.59
19.24
17.44
14.70
11.46
7.97
4.28
0.45
-3.31
-6.57
-8.91
-10.05
-10.01
-9.10
-7.70
-6.14
-4.52
-2.84
-1.05
0.79
2.52
3.96
4.98
5.56
5.76
5.66
5.36
4.99
4.63
4.37
4.21
4.02
3.65
3.03
2.23
1.53
1.22
1.45
2.15
3.05
3.83
4.32
4.51
4.50
4.38
4.14
3.72
3.04
2.21
1.42
0.95
0.94
1.31
1.75
1.85
1.24
-0.13
-1.99
-3.89
-5.34
-6.13
-6.38
-6.46
-6.75
-7.40
-8.25
-8.88
-8.82
-7.76
-5.66
-2.75
0.65
4.21
7.67
10.89
13.80
16.34
18.45
20.01
20.89
21.01
20.44
19.39
18.11
16.85
15.70
14.60
13.35
11.75
9.73
7.35
4.78
2.22
-0.13
-2.19
-3.93
-5.41
-6.70
-7.88
-9.01
-10.08
-11.11
-12.08
-12.98
-13.83
-14.61
-15.28
-15.79
-16.12
-16.33
-16.53
-16.83
-17.26
-17.72
-18.05
-18.11
-17.88
-17.54
-17.30
-17.32
-17.54
-17.64
-17.24
-15.96
-13.72
-10.74
-7.46
-4.31
-1.60
0.66
2.57
4.30
5.92
7.41
8.72
9.85
10.90
11.94
12.96
13.76
14.08
13.69
12.59
11.00
9.30
7.80
6.65
5.84
5.25
4.74
4.28
3.85
3.44
3.00
2.34
1.31
-0.20
-2.13
-4.28
-6.33
-7.98
-9.07
-9.64
-9.92
-10.24
-10.88
-11.95
-13.36
-14.83
-16.14
-17.16
-18.02
-18.92
-20.08
-21.50
-22.99
-24.20
-24.75
-24.36
-22.87
-20.26
-16.56
-11.92
-6.57
-0.88
4.69
9.66
13.66
16.49
18.17
18.84
18.73
18.04
16.98
15.76
14.56
13.57
12.90
12.59
12.55
12.58
12.41
11.81
10.69
9.19
7.57
6.16
5.17
4.56
4.11
3.54
2.70
1.64
0.57
-0.27
-0.78
-1.11
-1.43
-1.87
-2.29
-2.38
-1.80
-0.48
1.27
2.82
3.54
3.02
1.28
-1.27
-4.03
-6.43
-8.08
-8.82
-8.59
-7.42
-5.39
-2.69
0.35
3.36
5.98
8.03
9.49
10.53
11.39
12.25
13.14
13.92
14.33
14.15
13.31
11.92
10.34
8.93
7.99
7.57
7.52
7.55
7.38
6.91
6.18
5.38
4.64
3.99
3.34
2.56
1.58
0.44
-0.75
-1.84
-2.75
-3.49
-4.11
-4.68
-5.23
-5.74
-6.25
-6.77
-7.34
-7.94
-8.49
-8.91
-9.23
-9.57
-10.13
-11.09
-12.39
-13.87
-15.20
-16.11
-16.43
-16.12
-15.17
-13.58
-11.36
-8.58
-5.47
-2.37
0.39
2.63
4.38
5.81
7.10
8.30
9.35
10.11
10.52
10.62
10.54
10.43
10.37
10.35
10.30
10.16
9.93
9.61
9.25
8.84
8.35
7.71
6.85
5.74
4.40
2.96
1.62
0.57
-0.06
-0.31
-0.36
-0.46
-0.84
-1.58
-2.67
-3.95
-5.24
-6.34
-7.15
-7.61
-7.83
-7.97
-8.24
-8.79
-9.66
-10.79
-11.98
-13.01
-13.64
-13.70
-13.06
-11.75
-9.89
-7.67
-5.35
-3.12
-1.09
0.71
2.29
3.65
4.75
5.58
6.18
6.63
7.05
7.53
8.11
8.77
9.50
10.36
11.38
12.62
14.06
15.57
16.91
17.76
17.80
16.76
14.59
11.45
7.78
4.14
1.04
-1.20
-2.56
-3.28
-3.67
-4.00
-4.42
-4.94
-5.55
-6.22
-6.99
-7.89
-8.91
-9.99
-11.11
-12.22
-13.36
-14.55
-15.74
-16.75
-17.29
-17.08
-16.00
-14.13
-11.72
-9.03
-6.22
-3.24
0.01
3.46
6.80
9.48
11.02
11.16
10.06
8.21
6.28
4.77
3.93
3.69
3.68
3.52
2.87
1.56
-0.33
-2.43
-4.37
-5.86
-6.87
-7.56
-7.99
-8.18
-8.01
-7.35
-6.08
-4.33
-2.48
-0.92
0.15
1.06
2.24
3.94
6.10
8.56
10.95
12.87
14.07
14.57
14.89
15.20
15.14
13.88
11.08
7.23
4.17
4.80
11.97
27.48
50.13
75.59
97.59
110.63
111.65
101.51
84.84
65.74
50.53
43.91
47.09
54.02
57.34
50.10
28.69
-7.16
-55.20
-111.22
-170.10
-225.33
-268.75
-291.33
-286.74
-254.56
-201.89
-141.33
-86.03
-45.28
-21.84
-12.64
-11.96
-15.21
-20.41
-27.24
-34.71
-39.58
-37.45
-25.04
-2.42
26.75
56.34
80.77
97.29
106.87
113.11
119.99
129.70
141.69
153.35
161.24
162.84
157.52
146.62
132.74
118.50
105.55
94.19
83.51
72.06
58.55
42.45
24.33
5.71
-11.37
-25.04
-34.17
-38.79
-40.14
-40.20
-41.00
-44.08
-50.22
-59.51
-71.20
-83.61
-93.80
-98.02
-92.85
-76.90
-52.12
-23.72
1.40
17.36
21.57
15.66
4.35
-6.90
-14.06
-15.70
-12.55
-6.31
1.49
9.88
18.12
25.36
30.37
31.88
29.09
22.04
11.65
-0.71
-13.64
-26.08
-37.35
-46.91
-54.13
-58.38
-59.19
-56.55
-51.06
-43.66
-35.35
-26.95
-19.23
-13.02
-9.25
-8.50
-10.51
-13.89
-16.48
-16.27
-12.55
-6.32
-0.01
3.75
3.39
-0.91
-7.46
-13.90
-18.29
-19.70
-18.28
-14.81
-10.28
-5.57
-1.37
1.84
3.80
4.52
4.27
3.58
2.94
2.78
3.20
4.15
5.55
7.38
9.58
11.82
13.50
14.03
13.24
11.74
10.70
11.27
13.76
17.38
20.61
22.09
21.52
19.86
18.68
19.23
21.58
24.53
26.30
25.38
21.28
14.59
6.58
-1.31
-7.97
-12.81
-15.77
-17.02
-16.85
-15.42
-12.78
-8.99
-4.18
1.29
6.86
11.92
16.00
18.95
20.98
22.54
24.00
25.49
26.76
27.32
26.73
24.97
22.45
19.77
17.32
14.99
12.19
8.30
3.12
-2.90
-8.77
-13.55
-16.75
-18.52
-19.45
-20.11
-20.80
-21.50
-22.03
-22.34
-22.55
-22.85
-23.30
-23.75
-23.89
-23.37
-21.90
-19.30
-15.61
-11.10
-6.25
-1.64
2.19
5.01
6.86
8.05
8.95
9.77
10.56
11.23
11.73
12.07
12.36
12.68
13.02
13.28
13.29
12.95
12.27
11.30
10.12
8.79
7.33
5.76
4.08
2.35
0.61
-1.03
-2.43
-3.40
-3.86
-3.87
-3.65
-3.53
-3.80
-4.58
-5.78
-7.25
-8.83
-10.43
-12.06
-13.64
-14.89
-15.40
-14.76
-12.73
-9.45
-5.34
-0.94
3.27
7.04
10.28
13.01
15.24
16.91
17.95
18.31
18.01
17.11
15.68
13.87
11.88
9.96
8.38
7.35
6.93
6.99
7.29
7.58
7.65
7.41
6.88
6.14
5.24
4.23
3.12
1.91
0.65
-0.63
-1.85
-3.02
-4.18
-5.40
-6.75
-8.17
-9.49
-10.47
-10.88
-10.56
-9.49
-7.74
-5.47
-2.93
-0.38
1.82
3.41
4.21
4.24
3.73
2.98
2.28
1.82
1.62
1.67
1.93
2.35
2.88
3.36
3.66
3.68
3.47
3.29
3.42
3.97
4.77
5.40
5.45
4.81
3.77
2.91
2.74
3.45
4.74
6.06
6.92
7.14
6.86
6.26
5.37
3.93
1.60
-1.69
-5.57
-9.27
-11.98
-13.16
-12.78
-11.22
-9.03
-6.73
-4.67
-3.08
-2.08
-1.68
-1.69
-1.64
-0.96
0.77
3.53
6.75
9.52
10.99
10.76
9.03
6.46
3.89
1.99
1.05
0.92
1.11
0.94
-0.20
-2.62
-6.26
-10.62
-14.95
-18.51
-20.80
-21.73
-21.61
-20.92
-20.16
-19.67
-19.61
-19.94
-20.50
-21.03
-21.24
-20.79
-19.42
-16.97
-13.49
-9.22
-4.55
0.02
3.98
6.94
8.72
9.39
9.24
8.72
8.31
8.30
8.76
9.53
10.35
10.93
11.14
11.00
10.61
10.07
9.43
8.72
7.94
7.10
6.26
5.48
4.84
4.37
4.06
3.85
3.66
3.41
3.11
2.76
2.41
2.05
1.59
0.89
-0.11
-1.42
-2.91
-4.45
-5.92
-7.34
-8.73
-10.01
-10.95
-11.21
-10.45
-8.53
-5.68
-2.42
0.62
2.95
4.37
5.02
5.24
5.42
5.77
6.38
7.17
8.06
8.95
9.77
10.45
10.89
10.97
10.67
10.04
9.24
8.47
7.86
7.46
7.18
6.85
6.31
5.42
4.19
2.70
1.08
-0.53
-2.03
-3.35
-4.42
-5.16
-5.52
-5.52
-5.28
-5.04
-5.00
-5.28
-5.84
-6.53
-7.22
-7.85
-8.43
-8.98
-9.39
-9.44
-8.92
-7.74
-6.07
-4.27
-2.71
-1.54
-0.64
0.33
1.71
3.58
5.74
7.79
9.37
10.31
10.66
10.58
10.22
9.68
9.06
8.49
8.19
8.26
8.61
8.87
8.50
7.11
4.71
1.77
-1.03
-3.13
-4.36
-4.94
-5.29
-5.69
-6.12
-6.38
-6.25
-5.74
-5.14
-4.82
-5.00
-5.59
-6.17
-6.24
-5.50
-3.97
-2.07
-0.43
0.35
-0.09
-1.63
-3.79
-5.86
-7.22
-7.59
-7.11
-6.18
-5.21
-4.43
-3.73
-2.85
-1.51
0.41
2.84
5.58
8.31
10.71
12.45
13.30
13.19
12.28
10.93
9.59
8.58
8.02
7.76
7.54
7.12
6.48
5.74
5.14
4.87
4.90
5.04
5.07
4.84
4.44
4.09
3.98
4.01
3.69
2.32
-0.64
-5.21
-10.73
-16.08
-20.17
-22.45
-23.11
-22.87
-22.55
-22.57
-22.82
-22.75
-21.77
-19.54
-16.12
-11.89
-7.32
-2.90
1.02
4.14
6.21
7.17
7.16
6.64
6.22
6.49
7.77
9.99
12.78
15.70
18.49
21.17
24.04
27.39
31.33
35.61
39.78
43.36
46.11
48.17
49.99
52.08
54.76
57.97
61.26
64.09
66.09
67.33
68.38
69.94
72.47
75.79
78.94
80.63
79.76
75.91
69.45
61.17
51.84
41.87
31.48
20.91
10.50
0.43
-9.52
-19.94
-31.41
-43.66
-55.54
-65.62
-73.54
-81.21
-93.18
-115.51
-153.21
-207.64
-274.78
-345.50
-407.76
-450.09
-464.45
-448.07
-403.76
-339.27
-266.01
-196.98
-143.79
-113.30
-105.36
-112.76
-124.03
-128.09
-118.46
-94.98
-62.46
-27.22
6.04
35.53
61.20
83.26
101.32
115.13
125.75
135.96
149.03
166.67
187.89
209.11
225.90
235.04
235.97
230.87
223.48
217.44
214.90
215.97
219.09
221.96
222.50
219.68
213.69
205.69
197.29
189.93
184.47
181.07
179.31
178.46
177.74
176.63
174.87
172.52
169.87
167.30
165.00
162.76
159.93
155.52
148.48
137.74
122.47
101.91
75.38
42.42
2.84
-43.18
-95.28
-152.92
-215.03
-279.19
-340.79
-393.02
-428.13
-440.02
-426.74
-391.73
-342.78
-289.18
-238.50
-194.69
-158.31
-128.19
-103.27
-83.45
-69.09
-59.95
-54.60
-50.78
-46.49
-40.97
-34.85
-29.72
-27.12
-27.86
-31.69
-37.42
-43.29
-47.44
-48.31
-45.05
-37.72
-27.31
-15.22
-2.83
9.24
21.12
33.45
46.70
60.60
74.03
85.29
92.78
95.53
93.56
87.83
79.88
71.41
63.86
58.20
54.79
53.50
53.72
54.68
55.60
55.97
55.60
54.60
53.19
51.61
49.93
48.12
46.19
44.18
42.09
39.84
37.10
33.52
28.94
23.63
18.22
13.33
9.06
4.84
-0.39
-7.53
-16.66
-26.85
-36.44
-43.76
-47.78
-48.45
-46.43
-42.61
-37.68
-31.92
-25.34
-17.98
-10.02
-1.96
5.61
12.10
17.04
20.08
21.05
20.07
17.57
14.36
11.39
9.52
9.15
10.18
12.03
14.05
15.74
16.90
17.49
17.44
16.52
14.53
11.45
7.70
3.91
0.68
-1.76
-3.69
-5.63
-7.96
-10.52
-12.55
-13.02
-11.07
-6.50
0.06
7.25
13.32
16.47
15.08
8.02
-5.08
-23.45
-45.10
-67.12
-86.56
-101.31
-110.73
-115.54
-116.98
-115.78
-111.67
-103.54
-90.38
-72.22
-50.55
-27.93
-7.07
10.11
22.91
31.71
37.40
40.86
42.60
42.79
41.50
38.88
35.37
31.57
28.13
25.43
23.56
22.32
21.37
20.48
19.58
18.75
18.06
17.50
16.91
16.13
15.06
13.74
12.27
10.71
9.08
7.35
5.52
3.63
1.82
0.14
-1.41
-2.92
-4.48
-6.11
-7.68
-9.02
-9.94
-10.37
-10.40
-10.26
-10.25
-10.69
-11.74
-13.37
-15.33
-17.20
-18.53
-18.99
-18.41
-16.77
-14.19
-10.83
-6.90
-2.61
1.76
5.91
9.54
12.48
14.67
16.21
17.26
17.98
18.43
18.61
18.45
17.91
17.05
16.10
15.33
14.98
15.14
15.65
16.25
16.61
16.56
16.08
15.27
14.26
13.13
11.88
10.46
8.93
7.43
6.21
5.44
5.18
5.37
5.78
6.19
6.35
6.08
5.24
3.76
1.76
-0.52
-2.75
-4.65
-6.15
-7.38
-8.66
-10.21
-11.98
-13.64
-14.65
-14.57
-13.25
-10.85
-7.76
-4.39
-1.04
2.14
5.07
7.70
9.95
11.72
12.94
13.53
13.45
12.71
11.40
9.78
8.15
6.82
5.92
5.38
4.99
4.60
4.23
4.08
4.41
5.27
6.45
7.54
8.12
8.03
7.36
6.50
5.86
5.77
6.33
7.49
9.15
11.23
13.74
16.56
19.41
21.78
23.07
22.83
21.03
18.14
14.96
12.24
10.33
9.08
8.04
6.84
5.49
4.40
4.08
4.81
6.50
8.77
11.29
13.99
17.15
21.10
25.99
31.56
37.18
42.19
46.17
49.04
51.09
52.69
54.14
55.62
57.10
58.39
59.05
58.46
55.90
50.81
43.00
32.83
21.14
8.99
-2.61
-12.91
-21.50
-28.24
-33.24
-36.81
-39.46
-41.72
-44.08
-46.78
-49.78
-52.87
-55.82
-58.50
-60.82
-62.75
-64.17
-64.98
-65.12
-64.62
-63.60
-62.21
-60.55
-58.71
-56.83
-55.16
-53.99
-53.57
-53.88
-54.68
-55.43
-55.53
-54.44
-51.78
-47.46
-41.67
-34.83
-27.52
-20.29
-13.49
-7.29
-1.64
3.57
8.42
12.96
17.23
21.37
25.52
29.77
34.03
38.00
41.29
43.58
44.73
44.89
44.27
43.07
41.32
38.88
35.53
31.15
25.83
19.89
13.86
8.34
3.77
0.38
-1.91
-3.42
-4.61
-5.99
-7.98
-10.80
-14.34
-18.18
-21.72
-24.32
-25.61
-25.61
-24.71
-23.55
-22.71
-22.56
-23.14
-24.22
-25.40
-26.23
-26.31
-25.33
-23.20
-20.05
-16.22
-12.18
-8.32
-4.89
-1.87
0.83
3.36
5.74
7.89
9.64
10.86
11.60
11.97
12.22
12.54
13.02
13.59
14.14
14.54
14.72
14.62
14.20
13.39
12.16
10.66
9.16
8.04
7.59
7.90
8.76
9.84
10.84
11.61
12.19
12.67
13.06
13.15
12.65
11.35
9.23
6.54
3.65
0.96
-1.35
-3.34
-5.31
-7.65
-10.68
-14.52
-19.04
-23.86
-28.49
-32.38
-34.99
-35.97
-35.22
-33.00
-29.90
-26.66
-23.87
-21.77
-20.19
-18.62
-16.57
-13.77
-10.38
-6.81
-3.59
-1.09
0.51
1.22
1.06
0.13
-1.44
-3.40
-5.36
-6.89
-7.62
-7.41
-6.36
-4.78
-3.04
-1.44
-0.06
1.17
2.45
3.96
5.75
7.72
9.69
11.43
12.78
13.70
14.24
14.46
14.41
14.06
13.38
12.33
10.91
9.21
7.38
5.59
4.08
3.07
2.78
3.30
4.65
6.69
9.18
11.83
14.31
16.34
17.72
18.35
18.24
17.59
16.64
15.66
14.85
14.33
14.09
14.11
14.35
14.78
15.30
15.73
15.85
15.44
14.45
13.07
11.63
10.49
9.82
9.52
9.28
8.74
7.72
6.29
4.69
3.13
1.70
0.40
-0.77
-1.68
-2.19
-2.34
-2.53
-3.46
-5.65
-9.07
-13.00
-16.27
-17.94
-17.75
-16.21
-14.23
-12.45
-10.84
-8.83
-5.80
-1.64
3.07
7.33
10.31
11.76
12.09
12.04
12.22
12.84
13.68
14.42
14.91
15.24
15.61
15.99
15.93
14.74
11.80
6.98
0.81
-5.77
-11.74
-16.46
-19.84
-22.18
-23.89
-25.25
-26.32
-27.02
-27.24
-26.90
-25.93
-24.17
-21.45
-17.60
-12.70
-7.01
-1.09
4.45
9.07
12.44
14.48
15.30
15.14
14.29
13.06
11.71
10.38
9.06
7.62
5.90
3.92
1.88
0.18
-0.80
-0.85
-0.01
1.39
2.94
4.28
5.19
5.60
5.52
5.00
4.11
2.94
1.64
0.36
-0.78
-1.73
-2.54
-3.37
-4.37
-5.58
-6.93
-8.19
-9.08
-9.32
-8.66
-7.01
-4.40
-0.99
2.84
6.65
10.00
12.62
14.46
15.65
16.41
16.85
16.92
16.45
15.29
13.47
11.21
8.90
6.87
5.28
4.13
3.26
2.55
1.90
1.34
0.86
0.44
-0.04
-0.71
-1.70
-3.03
-4.69
-6.59
-8.57
-10.53
-12.32
-13.89
-15.25
-16.59
-18.14
-20.13
-22.59
-25.33
-27.87
-29.68
-30.27
-29.42
-27.12
-23.54
-18.83
-13.04
-6.19
1.66
10.30
19.31
28.19
36.44
43.65
49.53
53.86
56.42
57.07
55.79
52.70
48.09
42.42
36.11
29.53
22.95
16.57
10.50
4.86
-0.28
-4.86
-8.81
-12.06
-14.54
-16.20
-17.13
-17.50
-17.59
-17.68
-18.01
-18.70
-19.74
-20.88
-21.69
-21.59
-20.01
-16.57
-11.34
-4.84
2.04
8.31
13.19
16.31
17.71
17.74
16.82
15.29
13.39
11.26
9.04
6.89
5.02
3.58
2.62
2.02
1.56
0.98
0.09
-1.13
-2.51
-3.80
-4.84
-5.62
-6.29
-7.06
-8.06
-9.22
-10.35
-11.27
-11.93
-12.46
-13.09
-14.02
-15.25
-16.58
-17.62
-17.99
-17.42
-15.83
-13.32
-10.13
-6.58
-2.94
0.54
3.72
6.54
9.00
11.11
12.82
14.04
14.64
14.55
13.85
12.72
11.44
10.29
9.37
8.66
8.01
7.28
6.44
5.57
4.83
4.24
3.69
2.94
1.81
0.24
-1.58
-3.37
-4.88
-6.00
-6.84
-7.61
-8.54
-9.79
-11.44
-13.39
-15.38
-17.03
-17.87
-17.55
-15.98
-13.35
-10.10
-6.68
-3.41
-0.39
2.45
5.23
7.97
10.55
12.74
14.30
15.09
15.11
14.53
13.62
12.66
11.87
11.34
11.02
10.78
10.52
10.20
9.78
9.28
8.66
7.89
6.97
5.93
4.85
3.79
2.80
1.91
1.09
0.30
-0.52
-1.45
-2.52
-3.71
-4.99
-6.27
-7.49
-8.64
-9.74
-10.83
-11.93
-13.03
-14.09
-15.14
-16.26
-17.50
-18.90
-20.39
-21.74
-22.59
-22.56
-21.34
-18.81
-15.10
-10.64
-5.99
-1.68
1.97
4.90
7.26
9.26
11.06
12.63
13.87
14.66
14.94
14.75
14.18
13.34
12.34
11.30
10.32
9.50
8.90
8.53
8.33
8.24
8.16
7.94
7.48
6.71
5.62
4.34
3.05
1.90
0.95
0.13
-0.70
-1.64
-2.77
-3.99
-5.20
-6.24
-7.06
-7.65
-8.08
-8.46
-8.93
-9.58
-10.47
-11.51
-12.54
-13.25
-13.33
-12.52
-10.70
-7.94
-4.53
-0.87
2.62
5.63
7.99
9.77
11.08
12.05
12.71
12.99
12.81
12.16
11.20
10.20
9.41
8.96
8.78
8.70
8.49
8.04
7.40
6.70
6.11
5.68
5.31
4.78
3.92
2.67
1.17
-0.30
-1.50
-2.33
-2.93
-3.57
-4.47
-5.70
-7.10
-8.42
-9.45
-10.20
-10.83
-11.53
-12.45
-13.52
-14.62
-15.58
-16.35
-16.89
-17.12
-16.89
-15.94
-14.12
-11.47
-8.24
-4.85
-1.64
1.22
3.72
5.95
7.93
9.56
10.68
11.24
11.30
11.08
10.81
10.62
10.46
10.22
9.75
9.02
8.13
7.20
6.39
5.77
5.31
4.98
4.70
4.41
4.08
3.64
3.05
2.29
1.34
0.21
-1.04
-2.33
-3.58
-4.72
-5.70
-6.49
-7.12
-7.59
-7.99
-8.40
-8.97
-9.83
-11.05
-12.60
-14.34
-16.04
-17.42
-18.23
-18.25
-17.37
-15.56
-12.92
-9.67
-6.09
-2.51
0.83
3.81
6.38
8.55
10.26
11.45
12.08
12.17
11.88
11.41
10.95
10.55
10.20
9.80
9.30
8.71
8.13
7.61
7.19
6.80
6.34
5.72
4.92
3.99
2.98
1.96
0.99
0.05
-0.87
-1.79
-2.71
-3.59
-4.38
-5.07
-5.70
-6.36
-7.14
-8.12
-9.25
-10.46
-11.60
-12.60
-13.45
-14.23
-15.01
-15.79
-16.48
-16.88
-16.76
-15.97
-14.40
-12.08
-9.13
-5.74
-2.18
1.30
4.48
7.19
9.35
10.93
11.96
12.48
12.61
12.49
12.27
12.09
11.97
11.85
11.61
11.19
10.59
9.92
9.31
8.81
8.41
8.02
7.55
6.95
6.21
5.37
4.47
3.56
2.62
1.66
0.64
-0.45
-1.57
-2.68
-3.69
-4.58
-5.37
-6.14
-7.01
-8.04
-9.19
-10.39
-11.53
-12.62
-13.74
-14.97
-16.34
-17.70
-18.81
-19.35
-19.11
-17.96
-15.95
-13.21
-9.93
-6.32
-2.58
1.04
4.38
7.26
9.60
11.38
12.60
13.32
13.58
13.46
13.04
12.44
11.76
11.09
10.48
9.93
9.46
9.07
8.79
8.64
8.59
8.56
8.45
8.12
7.44
6.38
5.00
3.42
1.83
0.39
-0.80
-1.71
-2.38
-2.95
-3.54
-4.22
-5.01
-5.88
-6.76
-7.61
-8.44
-9.25
-10.08
-10.93
-11.82
-12.78
-13.87
-15.13
-16.45
-17.60
-18.18
-17.85
-16.39
-13.88
-10.64
-7.09
-3.57
-0.27
2.78
5.62
8.24
10.54
12.38
13.68
14.45
14.77
14.76
14.47
13.92
13.10
12.08
11.03
10.16
9.65
9.50
9.55
9.51
9.09
8.12
6.62
4.73
2.71
0.80
-0.82
-2.04
-2.84
-3.28
-3.54
-3.81
-4.26
-4.99
-5.96
-7.02
-7.99
-8.73
-9.17
-9.35
-9.38
-9.43
-9.65
-10.20
-11.13
-12.39
-13.82
-15.21
-16.40
-17.28
-17.78
-17.84
-17.30
-15.99
-13.78
-10.73
-7.11
-3.34
0.16
3.14
5.55
7.51
9.15
10.58
11.79
12.72
13.30
13.49
13.30
12.74
11.88
10.76
9.45
8.05
6.69
5.51
4.60
3.98
3.59
3.28
2.86
2.25
1.45
0.61
-0.04
-0.36
-0.31
0.01
0.39
0.64
0.65
0.42
0.01
-0.52
-1.16
-1.93
-2.87
-3.97
-5.15
-6.30
-7.34
-8.25
-9.07
-9.82
-10.40
-10.63
-10.21
-8.94
-6.81
-4.04
-0.97
1.99
4.57
6.68
8.35
9.66
10.65
11.31
11.58
11.46
11.06
10.52
10.01
9.66
9.48
9.39
9.33
9.24
9.12
8.96
8.71
8.26
7.50
6.38
5.02
3.57
2.17
0.84
-0.56
-2.14
-3.96
-5.85
-7.54
-8.80
-9.57
-10.03
-10.48
-11.16
-12.17
-13.40
-14.66
-15.81
-16.77
-17.55
-18.14
-18.40
-18.11
-17.02
-14.95
-11.95
-8.26
-4.34
-0.67
2.41
4.72
6.32
7.35
7.97
8.24
8.14
7.63
6.71
5.48
4.12
2.84
1.79
1.05
0.58
0.31
0.15
0.11
0.25
0.63
1.17
1.48
1.08
-0.33
-2.46
-4.35
-4.71
-2.63
1.79
7.32
12.06
14.35
13.51
10.06
5.30
0.53
-3.50
-6.73
-9.37
-11.49
-12.72
-12.43
-10.19
-6.08
-0.81
4.54
8.97
11.93
13.59
14.56
15.54
16.85
18.16
18.62
17.27
13.65
8.11
1.78
-3.95
-8.03
-10.23
-11.10
-11.58
-12.48
-14.17
-16.59
-19.46
-22.50
-25.56
-28.49
-31.02
-32.74
-33.35
-32.80
-31.47
-30.04
-29.18
-29.21
-29.97
-30.80
-30.82
-29.26
-25.79
-20.60
-14.33
-7.70
-1.26
4.85
10.80
16.91
23.31
29.84
36.10
41.67
46.34
50.22
53.69
57.18
60.91
64.76
68.17
70.27
70.01
66.47
59.20
48.49
35.46
21.91
9.78
0.53
-5.30
-8.13
-9.09
-9.36
-9.70
-10.27
-10.85
-11.17
-11.23
-11.32
-11.78
-12.67
-13.62
-13.94
-12.99
-10.55
-6.99
-3.07
0.40
2.91
4.41
5.14
5.26
4.65
2.93
-0.19
-4.61
-9.68
-14.43
-18.05
-20.36
-21.83
-23.14
-24.60
-25.66
-25.24
-22.36
-16.91
-10.01
-3.57
0.55
1.48
-0.30
-3.25
-5.70
-6.63
-6.04
-4.74
-3.69
-3.56
-4.45
-6.15
-8.42
-11.20
-14.59
-18.62
-22.95
-26.84
-29.28
-29.33
-26.54
-21.23
-14.31
-7.07
-0.63
4.36
7.86
10.29
12.27
14.29
16.57
19.02
21.33
23.13
24.11
24.15
23.27
21.67
19.55
17.07
14.33
11.38
8.33
5.38
2.78
0.75
-0.63
-1.49
-2.09
-2.69
-3.44
-4.28
-5.00
-5.35
-5.29
-5.00
-4.90
-5.38
-6.61
-8.34
-10.01
-10.92
-10.59
-8.96
-6.37
-3.37
-0.44
2.19
4.49
6.55
8.38
9.91
10.99
11.49
11.43
10.97
10.36
9.85
9.55
9.46
9.44
9.36
9.18
8.96
8.69
8.17
6.96
4.57
0.82
-3.91
-8.61
-12.04
-13.25
-12.05
-9.19
-5.97
-3.72
-3.18
-4.36
-6.64
-9.13
