1624983236.00
64.000000
-0.00
-0.00
-0.00
-0.00
-0.00
-0.00
-0.00
-0.00
-0.00
-0.00
0.00
0.01
0.01
-0.00
-0.03
-0.05
-0.05
0.00
0.13
0.36
0.66
1.01
1.37
1.72
2.06
2.40
2.79
3.24
3.80
4.42
5.06
5.66
6.20
6.68
7.15
7.68
8.31
9.14
10.09
11.04
11.88
12.56
13.14
13.76
14.65
15.96
17.91
20.32
22.90
25.38
27.58
29.57
31.68
34.32
37.81
42.54
48.15
54.10
59.83
64.97
69.58
74.14
79.34
85.71
93.76
103.00
112.62
121.73
129.77
136.75
143.30
150.75
157.77
166.64
177.95
191.79
206.97
220.57
228.25
225.36
208.53
176.87
132.76
80.05
23.07
-34.94
-92.44
-149.16
-205.23
-260.37
-313.74
-363.87
-409.83
-450.91
-486.50
-515.74
-537.23
-549.22
-549.96
-538.37
-514.21
-478.67
-433.88
-382.45
-327.02
-269.84
-212.63
-156.66
-102.94
-52.36
-5.88
35.62
71.49
101.44
125.61
144.53
158.88
169.38
176.65
181.09
182.97
182.52
180.02
175.81
170.30
163.89
156.93
149.67
142.24
134.72
127.15
119.56
112.03
104.61
97.40
90.42
83.73
77.34
71.25
65.48
60.04
54.93
50.17
45.77
41.72
38.01
34.65
31.62
28.92
26.54
24.49
22.75
21.32
20.20
19.37
18.81
18.52
18.47
18.65
19.03
19.60
20.37
21.31
22.40
23.63
24.98
26.39
27.82
29.16
30.31
31.17
31.58
31.44
30.62
29.05
26.68
23.53
19.65
15.11
10.09
4.76
-0.66
-5.96
-10.95
-15.45
-19.30
-22.41
-24.72
-26.19
-26.86
-26.77
-25.99
-24.60
-22.70
-20.36
-17.66
-14.66
-11.44
-8.08
-4.64
-1.20
2.20
5.51
8.71
11.76
14.67
17.48
20.13
22.60
24.92
27.10
29.21
31.29
33.45
35.80
38.46
41.40
44.63
48.17
52.07
56.36
61.08
66.27
71.95
78.22
84.85
91.66
98.57
105.50
112.41
119.27
126.11
132.99
140.00
146.84
153.32
159.21
164.26
168.17
170.51
170.67
167.74
163.28
157.80
151.58
144.81
137.66
130.29
122.87
115.58
108.67
102.39
96.62
91.31
86.44
81.96
77.82
73.94
70.26
66.73
63.32
59.74
55.84
51.57
47.04
42.48
38.20
34.52
31.74
30.04
29.26
29.18
29.49
29.91
30.19
30.15
29.68
28.67
27.00
24.42
20.74
15.88
9.97
3.37
-3.42
-9.86
-15.59
-20.59
-25.20
-29.99
-35.51
-42.00
-49.25
-56.71
-63.74
-70.01
-75.77
-81.91
-89.64
-99.94
-113.05
-128.24
-143.94
-158.42
-170.52
-180.26
-188.94
-198.57
-211.05
-227.17
-246.23
-266.33
-285.18
-301.15
-314.06
-325.31
-337.54
-353.97
-377.56
-409.96
-450.41
-494.82
-535.67
-563.31
-568.64
-546.46
-498.10
-431.74
-360.06
-296.01
-248.59
-220.59
-209.06
-207.96
-211.33
-215.37
-218.82
-221.84
-224.73
-227.04
-227.67
-225.49
-219.90
-211.08
-199.59
-185.82
-169.54
-150.08
-126.53
-98.57
-67.07
-34.17
-2.88
24.16
45.65
62.25
75.98
89.18
103.27
118.05
132.17
144.00
152.64
158.33
162.10
164.99
167.44
169.02
168.75
165.68
159.28
149.64
137.33
123.17
108.03
92.62
77.43
62.66
48.34
34.20
19.80
4.82
-10.49
-24.86
-35.92
-40.82
-37.30
-24.72
-4.63
19.72
44.57
66.96
85.34
99.57
110.15
117.53
121.78
122.80
120.81
116.58
111.26
105.98
101.44
97.67
94.33
90.89
87.12
83.15
79.43
76.53
74.78
74.01
73.50
72.20
69.19
63.97
56.76
48.35
39.67
31.42
23.81
16.49
8.89
0.49
-8.95
-19.13
-29.27
-38.14
-44.26
-46.21
-43.00
-34.42
-21.19
-4.76
13.07
30.60
46.55
60.21
71.28
79.74
85.74
89.51
91.44
92.08
92.04
91.90
92.05
92.59
93.28
93.70
93.36
91.84
88.98
84.75
79.30
72.81
65.46
57.42
48.94
40.29
31.75
23.49
15.54
7.68
-0.46
-9.32
-19.13
-29.72
-40.30
-49.53
-55.74
-57.41
-53.70
-44.72
-31.57
-15.99
0.20
15.66
29.59
41.78
52.22
60.85
67.55
72.19
74.77
75.65
75.38
74.64
73.94
73.50
73.30
73.09
72.63
71.72
70.27
68.20
65.35
61.47
56.29
49.64
41.59
32.57
23.25
14.42
6.56
-0.24
-6.38
-12.54
-19.51
-27.84
-37.64
-48.38
-58.93
-67.69
-72.99
-73.49
-68.64
-58.77
-45.07
-29.10
-12.47
3.66
18.56
31.85
43.23
52.36
58.91
62.68
63.91
63.25
61.68
60.18
59.35
59.27
59.48
59.38
58.46
56.65
54.21
51.55
48.93
46.23
43.08
38.95
33.49
26.65
18.80
10.54
2.51
-4.75
-11.08
-16.61
-21.84
-27.37
-33.73
-41.19
-49.58
-58.24
-66.10
-71.80
-74.06
-71.94
-65.20
-54.38
-40.63
-25.43
-10.12
4.31
17.36
28.81
38.57
46.52
52.51
56.54
58.77
59.57
59.44
58.81
57.99
57.11
56.18
55.07
53.60
51.61
49.01
45.81
42.13
38.12
33.88
29.42
24.60
19.27
13.42
7.23
1.03
-4.77
-10.04
-14.95
-19.97
-25.70
-32.58
-40.67
-49.55
-58.43
-66.30
-72.13
-75.03
-74.39
-69.98
-62.04
-51.23
-38.53
-25.01
-11.63
0.92
12.20
21.93
29.89
35.90
39.89
42.04
42.74
42.52
41.85
41.04
40.10
38.94
37.51
35.93
34.51
33.51
32.98
32.62
31.80
29.75
25.90
20.12
12.79
4.66
-3.43
-10.85
-17.35
-23.08
-28.47
-34.05
-40.29
-47.59
-56.08
-65.63
-75.57
-84.67
-91.38
-94.11
-91.85
-84.43
-72.68
-58.01
-41.98
-25.85
-10.35
4.15
17.44
29.21
39.06
46.61
51.65
54.33
55.10
54.58
53.39
52.03
50.76
49.65
48.64
47.58
46.27
44.56
42.36
39.65
36.51
33.01
29.13
24.78
19.80
14.06
7.63
0.77
-6.14
-12.71
-18.75
-24.30
-29.60
-34.97
-40.75
-47.15
-54.31
-62.12
-70.17
-77.69
-83.58
-86.59
-85.69
-80.33
-70.70
-57.68
-42.60
-26.84
-11.50
2.73
15.64
27.13
37.10
45.27
51.32
54.98
56.37
55.99
54.62
53.07
51.93
51.38
51.18
50.92
50.17
48.65
46.32
43.29
39.71
35.73
31.37
26.64
21.51
16.06
10.39
4.63
-1.09
-6.68
-12.14
-17.48
-22.74
-27.99
-33.33
-38.86
-44.73
-51.09
-57.98
-65.25
-72.30
-78.14
-81.53
-81.29
-76.78
-68.12
-56.20
-42.42
-28.19
-14.59
-2.22
8.66
17.94
25.38
30.69
33.68
34.48
33.65
32.06
30.63
30.00
30.41
31.56
32.95
34.00
34.32
33.74
32.27
30.02
27.07
23.48
19.27
14.50
9.24
3.64
-2.12
-7.80
-13.21
-18.29
-23.09
-27.85
-32.82
-38.29
-44.46
-51.39
-59.00
-66.99
-74.76
-81.39
-85.79
-86.91
-84.11
-77.43
-67.53
-55.55
-42.63
-29.60
-16.85
-4.41
7.75
19.56
30.66
40.59
48.92
55.34
59.83
62.55
63.83
64.00
63.44
62.46
61.40
60.46
59.72
59.05
58.12
56.47
53.74
49.79
44.80
39.17
33.32
27.47
21.59
15.39
8.61
1.19
-6.63
-14.37
-21.51
-27.67
-32.86
-37.34
-41.59
-46.14
-51.53
-58.05
-65.71
-74.04
-82.04
-88.33
-91.51
-90.58
-85.27
-76.13
-64.29
-51.05
-37.48
-24.15
-11.30
0.96
12.51
22.99
32.05
39.39
44.93
48.76
51.11
52.23
52.38
51.83
50.87
49.82
48.95
48.35
47.97
47.63
47.04
45.92
44.04
41.28
37.64
33.27
28.38
23.29
18.26
13.50
9.07
4.96
1.07
-2.76
-6.65
-10.79
-15.33
-20.46
-26.39
-33.24
-40.95
-49.09
-56.72
-62.49
-64.97
-63.10
-56.68
-46.38
-33.64
-20.03
-6.86
5.19
15.96
25.52
33.91
40.96
46.39
49.98
51.74
51.89
50.85
49.09
47.02
44.92
43.03
41.47
40.29
39.45
38.76
37.92
36.59
34.47
31.40
27.42
22.82
17.97
13.29
9.04
5.28
1.90
-1.34
-4.68
-8.30
-12.21
-16.30
-20.40
-24.38
-28.29
-32.39
-37.05
-42.55
-48.76
-54.94
-59.87
-62.13
-60.62
-54.92
-45.53
-33.63
-20.75
-8.25
2.86
12.08
19.25
24.39
27.66
29.23
29.35
28.43
26.96
25.47
24.42
24.03
24.24
24.78
25.25
25.25
24.50
22.88
20.48
17.52
14.30
11.14
8.19
5.48
2.83
-0.07
-3.48
-7.47
-11.96
-16.70
-21.44
-26.04
-30.45
-34.69
-38.84
-43.06
-47.64
-52.93
-59.10
-65.92
-72.52
-77.53
-79.45
-77.18
-70.50
-60.16
-47.65
-34.71
-22.79
-12.81
-5.14
0.28
3.69
5.46
6.00
5.82
5.43
5.35
5.94
7.35
9.65
12.77
16.73
21.51
27.05
33.20
39.58
45.72
51.06
55.06
57.29
57.42
55.28
50.86
44.40
36.37
27.42
18.24
9.42
1.25
-6.25
-13.37
-20.56
-28.28
-36.89
-46.46
-56.71
-66.88
-75.78
-81.94
-83.95
-80.99
-73.12
-61.42
-47.61
-33.57
-20.73
-9.80
-0.83
6.50
12.49
17.18
20.52
22.49
23.32
23.46
23.42
23.58
24.04
24.71
25.40
25.94
26.26
26.31
26.00
25.16
23.58
21.15
17.96
14.35
10.76
7.54
4.85
2.55
0.31
-2.22
-5.23
-8.71
-12.49
-16.32
-20.05
-23.60
-26.97
-30.26
-33.65
-37.43
-41.87
-47.06
-52.58
-57.42
-60.21
-59.63
-54.94
-46.41
-35.18
-22.86
-10.96
-0.46
8.23
15.14
20.41
24.12
26.31
27.13
26.88
26.04
25.08
24.37
24.08
24.25
24.81
25.67
26.76
27.92
28.93
29.53
29.47
28.65
27.11
25.06
22.69
20.10
17.17
13.56
8.88
2.78
-4.69
-13.13
-21.70
-29.37
-35.18
-38.53
-39.40
-38.46
-36.83
-35.80
-36.42
-39.18
-43.77
-49.25
-54.22
-57.27
-57.31
-53.85
-47.00
-37.45
-26.29
-14.72
-3.88
5.36
12.54
17.60
20.73
22.32
22.73
22.30
21.35
20.18
19.14
18.54
18.58
19.30
20.50
21.87
23.08
23.91
24.22
23.99
23.26
22.03
20.31
18.09
15.44
12.44
9.29
6.18
3.29
0.71
-1.57
-3.64
-5.68
-7.88
-10.39
-13.35
-16.85
-21.00
-25.79
-31.03
-36.16
-40.32
-42.46
-41.60
-37.26
-29.61
-19.51
-8.19
3.03
13.14
21.53
27.99
32.52
35.23
36.28
35.85
34.28
32.01
29.52
27.28
25.59
24.55
24.07
23.93
23.91
23.76
23.34
22.55
21.36
19.76
17.76
15.41
12.72
9.77
6.58
3.16
-0.47
-4.22
-7.98
-11.63
-15.02
-18.08
-20.84
-23.43
-26.04
-28.92
-32.29
-36.29
-40.97
-46.15
-51.37
-55.82
-58.42
-58.11
-54.20
-46.70
-36.37
-24.53
-12.60
-1.72
7.52
15.06
21.14
26.03
29.91
32.84
34.89
36.14
36.76
36.95
36.87
36.62
36.18
35.54
34.68
33.66
32.58
31.52
30.42
29.09
27.23
24.62
21.26
17.42
13.47
9.73
6.31
3.11
-0.06
-3.30
-6.55
-9.69
-12.59
-15.24
-17.75
-20.26
-22.85
-25.58
-28.55
-31.98
-36.06
-40.86
-46.05
-50.84
-54.11
-54.72
-51.91
-45.58
-36.35
-25.32
-13.80
-2.92
6.58
14.31
20.24
24.56
27.54
29.49
30.69
31.38
31.68
31.68
31.43
31.02
30.59
30.22
29.96
29.75
29.47
29.00
28.27
27.25
25.90
24.18
21.97
19.27
16.22
13.04
10.01
7.28
4.83
2.44
-0.20
-3.32
-6.96
-10.96
-15.00
-18.76
-22.02
-24.79
-27.32
-29.99
-33.25
-37.29
-41.93
-46.45
-49.81
-50.85
-48.73
-43.22
-34.75
-24.31
-13.06
-2.04
8.00
16.67
23.74
29.11
32.79
34.89
35.75
35.82
35.59
35.40
35.39
35.54
35.76
35.99
36.25
36.56
36.90
37.12
37.03
36.51
35.57
34.34
32.92
31.25
29.06
25.92
21.40
15.36
8.07
0.19
-7.40
-13.83
-18.56
-21.53
-23.14
-24.05
-24.95
-26.30
-28.20
-30.39
-32.31
-33.23
-32.48
-29.57
-24.36
-17.03
-7.95
2.51
14.11
26.70
40.04
53.64
66.67
78.19
87.61
94.91
100.83
106.62
113.57
122.34
132.56
142.56
149.64
150.80
143.59
127.19
102.82
73.84
45.13
22.02
9.03
8.60
20.24
40.38
63.30
83.02
95.65
100.96
102.25
104.46
111.24
122.88
136.16
146.39
150.22
147.52
141.18
135.09
131.61
130.34
128.73
123.93
114.72
102.20
88.95
77.38
68.30
60.53
51.59
38.91
20.97
-2.20
-29.19
-57.75
-85.41
-110.01
-129.84
-143.83
-151.48
-153.19
-150.40
-145.50
-141.31
-140.14
-142.94
-148.95
-156.17
-162.30
-165.82
-166.43
-164.83
-162.03
-158.63
-154.62
-149.65
-143.56
-136.72
-129.79
-123.35
-117.47
-111.77
-105.83
-99.53
-93.28
-87.83
-83.84
-81.48
-80.46
-80.10
-79.87
-79.64
-79.70
-80.66
-83.03
-86.86
-91.60
-96.01
-98.47
-97.37
-91.62
-81.04
-66.49
-49.63
-32.48
-16.76
-3.55
6.85
14.73
20.58
24.86
27.78
29.44
29.89
29.29
27.98
26.37
24.88
23.74
22.96
22.35
21.68
20.76
19.49
17.94
16.22
14.49
12.94
11.73
10.91
10.35
9.79
8.91
7.50
5.58
3.41
1.30
-0.54
-2.14
-3.68
-5.38
-7.33
-9.47
-11.75
-14.37
-17.75
-22.35
-28.29
-34.98
-41.12
-45.01
-45.20
-41.07
-33.10
-22.67
-11.51
-1.12
7.62
14.42
19.36
22.60
24.30
24.53
23.57
21.91
20.22
19.20
19.25
20.36
22.17
24.17
25.93
27.27
28.20
28.75
28.79
28.03
26.20
23.22
19.30
14.84
10.17
5.35
0.18
-5.65
-12.25
-19.46
-26.82
-33.81
-40.05
-45.40
-49.93
-53.85
-57.42
-60.93
-64.71
-68.96
-73.59
-78.05
-81.21
-81.70
-78.31
-70.43
-58.40
-43.38
-26.98
-10.78
4.08
17.06
28.02
37.05
44.18
49.34
52.39
53.29
52.30
49.91
46.90
43.96
41.55
39.77
38.42
37.12
35.62
33.86
31.96
30.04
28.13
26.12
23.77
20.96
17.64
13.91
9.94
5.81
1.57
-2.85
-7.52
-12.49
-17.66
-22.80
-27.61
-31.84
-35.40
-38.54
-41.79
-45.79
-51.06
-57.68
-65.22
-72.71
-78.82
-82.25
-81.93
-77.30
-68.47
-56.21
-41.84
-26.88
-12.84
-0.81
8.59
15.32
19.68
22.27
23.69
24.47
25.00
25.49
26.05
26.75
27.66
28.87
30.39
32.18
34.03
35.74
37.13
38.19
39.06
39.95
41.00
42.13
43.07
43.36
42.54
40.34
36.76
32.08
26.77
21.29
15.95
10.82
5.81
0.72
-4.60
-10.31
-16.59
-23.61
-31.46
-39.92
-48.26
-55.32
-59.70
-60.26
-56.46
-48.59
-37.65
-25.02
-12.08
0.11
10.86
19.76
26.52
30.96
33.01
32.83
30.93
28.00
24.82
22.02
19.95
18.59
17.68
16.89
15.93
14.56
12.65
10.13
7.08
3.76
0.59
-1.98
-3.67
-4.55
-5.07
-5.87
-7.50
-10.19
-13.82
-18.01
-22.33
-26.50
-30.46
-34.27
-38.14
-42.31
-47.13
-52.93
-59.85
-67.63
-75.52
-82.37
-86.84
-87.88
-84.94
-78.17
-68.33
-56.49
-43.72
-30.89
-18.49
-6.66
4.63
15.43
25.53
34.57
42.04
47.54
50.90
52.32
52.19
50.94
48.89
46.23
43.03
39.44
35.66
32.01
28.71
25.85
23.34
21.02
18.83
17.02
16.12
16.80
19.48
24.09
29.94
35.89
40.73
43.64
44.31
43.08
40.55
37.33
33.81
30.07
26.00
21.36
15.83
9.10
0.98
-8.51
-18.88
-29.16
-37.97
-43.76
-45.22
-41.64
-33.12
-20.65
-5.79
9.63
23.93
35.85
44.71
50.34
53.00
53.23
51.68
49.04
45.92
42.82
39.97
37.43
35.06
32.74
30.44
28.27
26.38
24.79
23.32
21.59
19.13
15.64
11.10
5.82
0.30
-4.96
-9.66
-13.81
-17.57
-21.17
-24.77
-28.41
-32.07
-35.75
-39.46
-43.26
-47.19
-51.26
-55.49
-60.01
-64.93
-70.24
-75.53
-79.87
-82.01
-80.71
-75.32
-65.97
-53.57
-39.36
-24.56
-9.99
3.92
16.89
28.62
38.67
46.64
52.30
55.74
57.37
57.75
57.43
56.85
56.29
55.94
55.91
56.23
56.84
57.45
57.55
56.51
53.84
49.35
43.31
36.30
28.92
21.53
14.07
6.25
-2.22
-11.32
-20.59
-29.38
-37.10
-43.64
-49.47
-55.49
-62.63
-71.52
-82.23
-94.38
-107.26
-119.98
-131.54
-140.80
-146.62
-148.03
-144.64
-136.84
-125.78
-113.05
-100.33
-89.03
-80.18
-74.40
-71.90
-72.45
-75.47
-80.05
-85.15
-89.65
-92.26
-91.39
-85.31
-72.36
-51.54
-22.93
12.43
53.07
97.74
145.58
195.38
244.50
288.33
320.99
337.20
334.56
314.73
282.93
245.91
209.47
176.89
148.94
125.02
104.60
87.83
75.07
65.87
58.18
48.59
33.47
10.41
-20.62
-57.12
-94.76
-128.89
-155.95
-174.55
-185.92
-193.49
-201.93
-215.45
-235.92
-261.58
-287.00
-304.71
-308.00
-293.60
-262.99
-221.56
-176.06
-131.86
-91.26
-53.74
-17.50
18.76
54.88
89.55
121.20
148.82
172.20
191.62
207.48
220.01
229.22
234.86
236.58
233.96
226.68
214.80
198.91
180.05
159.41
137.89
115.94
93.68
71.27
49.18
28.24
9.35
-7.00
-21.18
-34.28
-47.70
-62.42
-78.37
-94.18
-107.64
-116.45
-119.07
-115.40
-106.72
-95.24
-83.31
-72.76
-64.56
-58.91
-55.46
-53.67
-52.99
-52.86
-52.74
-52.15
-50.67
-48.07
-44.23
-39.11
-32.63
-24.61
-14.88
-3.31
10.04
24.87
40.55
56.13
70.41
82.06
89.84
92.97
91.25
85.14
75.69
64.20
51.96
40.02
29.05
19.36
10.85
3.06
-4.69
-13.08
-22.46
-32.44
-41.81
-48.74
-51.33
-48.33
-39.62
-26.36
-10.60
5.38
19.70
31.23
39.57
44.77
47.06
46.74
44.27
40.39
36.02
32.07
29.12
27.22
25.98
24.79
23.16
20.98
18.47
16.04
14.00
12.32
10.62
8.32
4.86
-0.03
-6.15
-12.87
-19.28
-24.55
-28.11
-29.96
-30.56
-30.69
-31.22
-32.76
-35.56
-39.30
-43.08
-45.56
-45.26
-40.94
-32.10
-19.24
-3.76
12.45
27.68
40.72
51.05
58.59
63.42
65.52
64.93
61.99
57.46
52.52
48.31
45.51
44.06
43.29
42.34
40.63
38.21
35.56
33.32
31.73
30.42
28.56
25.28
20.12
13.32
5.71
-1.73
-8.26
-13.76
-18.67
-23.78
-29.84
-37.31
-46.07
-55.44
-64.20
-70.76
-73.54
-71.37
-63.88
-51.69
-36.26
-19.49
-3.23
11.20
23.06
32.16
38.59
42.54
44.22
43.98
42.31
39.94
37.59
35.77
34.59
33.78
32.85
31.40
29.36
27.00
24.77
23.07
21.96
21.13
19.98
17.87
14.36
9.41
3.36
-3.18
-9.57
-15.38
-20.52
-25.22
-29.98
-35.29
-41.49
-48.51
-55.87
-62.61
-67.48
-69.15
-66.58
-59.35
-47.84
-33.17
-16.96
-0.87
13.79
26.23
36.24
44.00
49.79
53.84
56.28
57.15
56.58
54.84
52.38
49.72
47.30
45.30
43.64
42.09
40.43
38.56
36.55
34.47
32.26
29.73
26.59
22.62
17.80
12.37
6.66
1.05
-4.23
-9.08
-13.59
-17.90
-22.17
-26.55
-31.23
-36.41
-42.20
-48.54
-54.94
-60.49
-63.98
-64.24
-60.54
-52.85
-41.90
-28.91
-15.28
-2.15
9.79
20.21
29.13
36.63
42.80
47.69
51.32
53.71
54.93
55.07
54.32
53.00
51.45
50.04
49.03
48.51
48.36
48.32
48.09
47.43
46.22
44.43
42.06
39.12
35.57
31.44
26.81
21.84
16.75
11.68
6.68
1.71
-3.30
-8.48
-13.94
-19.82
-26.41
-33.96
-42.65
-52.23
-61.96
-70.58
-76.69
-79.13
-77.39
-71.76
-63.13
-52.68
-41.51
-30.52
-20.44
-11.85
-5.33
-1.25
0.26
-0.49
-2.85
-5.99
-9.11
-11.65
-13.29
-13.95
-13.72
-12.67
-10.91
-8.54
-5.68
-2.62
0.25
2.51
3.79
3.93
3.02
1.38
-0.62
-2.63
-4.45
-6.07
-7.66
-9.52
-12.03
-15.59
-20.43
-26.49
-33.24
-39.66
-44.42
-46.22
-44.08
-37.67
-27.46
-14.53
-0.40
13.43
25.74
35.87
43.62
49.06
52.39
53.79
53.49
51.86
49.45
46.91
44.72
43.08
41.75
40.24
38.04
34.95
31.14
27.08
23.34
20.31
17.97
15.98
13.79
10.87
6.98
2.23
-2.94
-7.96
-12.42
-16.19
-19.48
-22.70
-26.31
-30.63
-35.74
-41.51
-47.49
-52.97
-56.91
-58.22
-55.95
-49.70
-39.80
-27.22
-13.38
0.34
12.88
23.67
32.51
39.41
44.37
47.35
48.39
47.68
45.66
43.03
40.52
38.71
37.85
37.87
38.37
38.90
39.09
38.88
38.49
38.26
38.52
39.33
40.44
41.36
41.51
40.42
37.90
34.00
28.94
22.95
16.18
8.65
0.34
-8.77
-18.67
-29.36
-40.81
-52.85
-64.97
-76.15
-84.98
-89.94
-89.94
-84.73
-74.94
-61.74
-46.29
-29.38
-11.36
7.38
26.07
43.33
57.54
67.52
73.01
74.82
74.40
73.17
71.97
70.90
69.59
67.61
64.77
61.20
57.11
52.66
47.83
42.44
36.27
29.17
21.12
12.26
2.83
-6.79
-16.12
-24.60
-31.76
-37.24
-40.92
-42.93
-43.54
-43.07
-41.71
-39.39
-35.64
-29.74
-20.88
-8.52
7.45
26.64
48.23
71.26
94.63
117.22
137.74
154.73
166.72
172.58
171.78
164.58
151.84
134.65
113.93
90.37
64.56
37.34
10.00
-15.88
-38.86
-58.27
-74.40
-88.39
-101.64
-115.12
-129.07
-143.03
-156.46
-169.15
-181.48
-194.31
-208.39
-223.79
-239.31
-252.26
-258.44
-252.85
-231.10
-191.46
-136.43
-73.01
-11.10
39.58
72.66
86.98
86.14
76.50
64.39
54.28
48.33
47.05
50.00
55.95
62.75
67.47
67.30
60.93
49.50
36.15
24.26
15.59
9.09
1.45
-10.94
-29.79
-53.48
-77.14
-94.10
-98.31
-86.71
-60.67
-25.91
9.26
36.72
51.15
51.50
40.58
23.31
4.70
-11.51
-23.11
-29.02
-28.97
-23.63
-14.96
-6.19
-1.02
-2.12
-9.98
-22.57
-36.05
-46.38
-50.52
-47.36
-37.77
-24.00
-8.90
5.01
16.05
23.64
28.11
30.32
31.17
31.27
30.85
29.85
28.07
25.38
21.84
17.72
13.40
9.26
5.58
2.43
-0.32
-3.03
-6.15
-10.06
-14.91
-20.39
-25.71
-29.82
-31.74
-30.98
-27.83
-23.29
-18.82
-15.80
-15.13
-16.99
-20.83
-25.56
-29.88
-32.54
-32.65
-29.83
-24.33
-16.94
-8.77
-0.98
5.49
10.01
12.36
12.53
10.73
7.29
2.62
-2.79
-8.44
-13.86
-18.73
-22.89
-26.35
-29.24
-31.69
-33.74
-35.22
-35.63
-34.24
-30.18
-22.85
-12.27
0.54
13.61
24.33
29.98
28.33
18.10
-0.84
-27.35
-59.12
-92.84
-124.46
-149.76
-165.09
-168.18
-158.77
-138.60
-111.01
-80.10
-49.94
-23.85
-3.99
9.03
16.27
20.37
24.91
33.28
47.33
66.44
87.55
106.23
118.38
121.89
117.15
106.54
93.06
78.79
64.07
47.60
27.45
2.43
-27.02
-58.74
-89.60
-116.56
-137.51
-151.51
-158.56
-159.01
-153.22
-141.45
-124.40
-103.70
-81.88
-61.67
-44.69
-30.41
-16.08
2.02
26.71
58.22
93.66
128.16
156.56
175.38
183.64
182.58
174.61
162.27
147.65
132.52
118.54
107.13
99.31
95.28
94.46
95.60
97.29
98.43
98.39
97.22
95.31
93.16
90.95
88.38
84.76
79.43
72.18
63.44
53.92
44.05
33.66
22.05
8.62
-6.59
-22.72
-38.55
-53.07
-65.67
-75.86
-82.63
-84.18
-78.47
-64.12
-41.33
-12.00
21.14
55.60
89.73
122.30
151.70
175.20
189.22
190.70
178.67
155.28
125.56
95.87
72.03
57.76
54.22
60.39
73.98
92.19
112.03
130.45
144.33
150.76
147.58
133.81
110.04
78.32
41.74
3.86
-31.91
-62.79
-86.94
-103.58
-112.89
-115.71
-113.24
-106.78
-97.58
-86.89
-76.04
-66.25
-58.51
-53.32
-50.42
-48.76
-46.67
-42.42
-34.68
-23.11
-8.44
7.75
23.50
37.19
47.95
55.75
61.05
64.31
65.59
64.51
60.53
53.44
43.65
32.27
20.83
10.90
3.64
-0.46
-1.73
-1.17
-0.24
-0.45
-3.09
-8.88
-17.80
-29.14
-41.67
-53.86
-64.15
-71.25
-74.42
-73.92
-71.25
-68.88
-69.56
-75.33
-86.54
-101.64
-117.61
-131.22
-140.23
-144.23
-144.63
-143.88
-144.45
-147.97
-154.92
-164.84
-176.68
-189.15
-200.78
-210.01
-215.43
-216.00
-211.31
-201.40
-186.26
-165.21
-136.54
-97.99
-47.82
13.96
84.92
160.51
235.07
303.31
361.32
406.99
439.82
460.47
470.19
470.42
462.36
446.63
423.20
391.58
351.31
302.25
244.78
179.85
109.21
35.76
-36.12
-100.91
-153.09
-188.92
-207.85
-212.90
-209.36
-202.67
-196.47
-192.10
-189.58
-189.25
-192.59
-201.68
-217.41
-237.87
-258.08
-271.45
-272.49
-258.98
-232.63
-198.15
-161.18
-126.23
-95.66
-69.75
-47.56
-28.02
-10.64
4.05
14.81
20.18
19.33
12.70
2.18
-9.44
-19.43
-26.15
-29.48
-30.46
-30.51
-30.54
-30.62
-30.22
-28.87
-26.63
-24.15
-22.36
-21.95
-23.01
-25.06
-27.27
-29.02
-30.08
-30.70
-31.34
-32.24
-33.19
-33.52
-32.34
-28.91
-23.02
-15.12
-6.18
2.59
10.18
16.00
19.94
22.33
23.72
24.59
25.24
25.63
25.54
24.72
23.15
21.08
19.05
17.59
17.04
17.34
18.05
18.55
18.34
17.19
15.19
12.66
9.95
7.23
4.61
2.09
-0.35
-2.70
-5.00
-7.35
-9.94
-12.95
-16.37
-19.90
-22.91
-24.62
-24.35
-21.84
-17.30
-11.37
-4.90
1.40
7.09
11.99
16.11
19.54
22.28
24.34
25.70
26.36
26.36
25.78
24.77
23.49
22.15
20.93
19.95
19.20
18.65
18.22
17.89
17.68
17.57
17.48
17.25
16.69
15.73
14.41
12.89
11.37
9.99
8.79
7.64
6.31
4.55
2.12
-1.06
-4.88
-9.08
-13.29
-17.16
-20.47
-23.19
-25.43
-27.46
-29.57
-32.09
-35.27
-39.09
-43.14
-46.61
-48.41
-47.59
-43.68
-36.82
-27.71
-17.35
-6.71
3.38
12.26
19.46
24.69
27.95
29.63
30.37
30.81
31.34
31.85
31.82
30.66
28.08
24.29
19.99
16.15
13.58
12.67
13.31
14.95
16.91
18.62
19.71
20.17
20.08
19.58
18.78
17.69
16.34
14.77
13.10
11.41
9.79
8.23
6.67
5.05
3.43
1.99
0.85
-0.07
-1.25
-3.44
-7.33
-13.07
-20.02
-26.81
-31.83
-33.86
-32.55
-28.47
-22.69
-16.34
-10.17
-4.52
0.46
4.60
7.61
9.14
9.06
7.57
5.30
3.08
1.68
1.55
2.69
4.74
7.06
9.08
10.42
10.99
10.88
10.25
9.23
7.79
5.88
3.47
0.60
-2.53
-5.69
-8.61
-11.15
-13.35
-15.48
-17.90
-20.97
-24.83
-29.32
-34.06
-38.60
-42.64
-46.15
-49.39
-52.66
-56.07
-59.34
-61.80
-62.59
-60.91
-56.27
-48.78
-39.00
-27.83
-16.27
-5.17
4.90
13.63
20.93
26.80
31.25
34.36
36.23
37.09
37.16
36.69
35.74
34.40
32.73
30.91
29.32
28.32
28.16
28.78
29.85
30.90
31.54
31.58
31.08
30.21
29.13
27.81
26.18
24.09
21.50
18.49
15.17
11.78
8.45
5.33
2.55
0.20
-1.63
-2.97
-3.99
-5.02
-6.27
-7.63
-8.37
-7.21
-2.60
6.57
20.41
37.74
56.22
73.01
85.57
92.34
93.18
89.30
82.78
75.92
70.59
67.62
66.80
66.94
66.51
64.16
59.10
51.32
41.45
30.45
19.40
9.02
-0.61
-10.26
-21.41
-35.62
-53.61
-74.41
-95.10
-111.46
-119.47
-116.84
-104.04
-84.13
-61.81
-41.72
-27.13
-19.35
-17.92
-21.29
-27.63
-35.28
-42.78
-48.81
-52.19
-52.03
-48.08
-40.94
-31.94
-22.72
-14.57
-7.99
-2.67
2.09
6.89
11.66
15.76
18.11
17.82
14.45
8.18
-0.29
-9.91
-19.57
-28.38
-35.56
-40.35
-41.90
-39.39
-32.43
-21.55
-8.48
4.16
13.69
18.45
18.42
15.05
10.47
6.40
3.46
1.23
-1.12
-4.17
-7.79
-11.36
-14.17
-15.82
-16.25
-15.61
-14.11
-11.66
-8.06
-3.17
2.81
9.23
15.13
19.50
21.69
21.63
19.82
17.00
13.90
10.97
8.37
6.08
4.05
2.35
1.06
0.28
0.03
0.28
0.99
2.12
3.61
5.30
6.94
8.28
9.05
9.05
8.20
6.56
4.34
1.90
-0.38
-2.14
-3.28
-3.85
-4.00
-3.85
-3.30
-2.19
-0.47
1.59
3.39
4.34
4.22
3.41
2.81
3.27
5.17
8.07
10.87
12.30
11.39
7.85
1.94
-5.62
-13.96
-22.19
-29.34
-34.52
-37.05
-36.65
-33.69
-29.06
-23.96
-19.49
-16.38
-14.78
-14.46
-14.92
-15.74
-16.62
-17.50
-18.51
-19.88
-21.85
-24.58
-27.99
-31.72
-35.02
-36.96
-36.64
-33.45
-27.41
-19.16
-9.83
-0.69
7.15
13.04
16.84
18.79
19.39
19.10
18.30
17.13
15.57
13.61
11.30
8.91
6.85
5.44
4.83
4.87
5.17
5.33
5.02
4.11
2.62
0.62
-1.77
-4.41
-7.18
-9.93
-12.63
-15.32
-18.21
-21.58
-25.68
-30.55
-35.89
-40.94
-44.65
-45.91
-43.96
-38.73
-30.88
-21.59
-12.20
-3.71
3.35
8.95
13.27
16.44
18.38
18.96
18.19
16.30
13.79
11.23
9.06
7.43
6.23
5.19
4.07
2.75
1.18
-0.65
-2.77
-5.25
-8.09
-11.17
-14.32
-17.38
-20.32
-23.31
-26.66
-30.74
-35.80
-41.94
-48.90
-56.08
-62.45
-66.82
-67.96
-65.14
-58.27
-48.05
-35.71
-22.62
-9.92
1.71
11.91
20.59
27.60
32.80
36.12
37.67
37.76
36.83
35.33
33.57
31.69
29.70
27.56
25.33
23.12
21.10
19.44
18.12
16.93
15.50
13.35
10.12
5.74
0.41
-5.43
-11.36
-17.13
-22.89
-29.02
-35.99
-44.02
-52.83
-61.59
-69.07
-74.04
-75.57
-73.19
-66.71
-56.21
-42.03
-24.92
-6.35
11.73
27.25
38.72
45.68
48.83
49.49
49.01
48.24
47.46
46.59
45.59
44.59
43.83
43.43
43.27
43.01
42.31
41.01
39.09
36.61
33.57
29.86
25.32
19.87
13.65
6.99
0.40
-5.73
-11.23
-16.32
-21.49
-27.42
-34.65
-43.31
-52.89
-62.20
-69.59
-73.40
-72.57
-66.93
-57.34
-45.34
-32.61
-20.40
-9.24
0.98
10.81
20.76
31.01
41.26
50.84
58.97
65.07
68.96
70.83
71.11
70.18
68.19
65.21
61.40
57.16
53.20
50.19
48.42
47.53
46.62
44.55
40.42
34.02
25.85
16.89
8.10
0.02
-7.44
-14.88
-22.88
-31.71
-41.04
-50.22
-58.66
-66.21
-73.14
-79.75
-85.87
-90.50
-92.08
-89.06
-80.51
-66.24
-46.49
-21.52
8.18
41.28
74.90
104.66
125.87
135.49
133.77
124.48
113.36
105.83
104.80
110.01
118.91
128.42
136.38
142.06
145.72
147.69
147.95
146.19
142.20
136.24
128.92
120.84
112.09
102.09
89.79
74.24
55.12
32.95
8.95
-15.45
-39.30
-62.53
-85.88
-110.51
-137.04
-164.91
-191.98
-214.97
-230.38
-235.61
-229.86
-214.23
-191.23
-163.78
-134.39
-104.72
-75.68
-47.79
-21.59
2.30
23.20
40.53
54.01
63.58
69.49
72.17
72.30
70.64
68.03
65.20
62.66
60.71
59.39
58.52
57.73
56.57
54.58
51.56
47.73
43.58
39.72
36.43
33.45
29.99
25.14
18.36
9.78
0.22
-9.28
-17.83
-25.13
-31.46
-37.51
-44.08
-51.76
-60.70
-70.53
-80.30
-88.57
-93.71
-94.31
-89.52
-79.44
-65.02
-47.81
-29.54
-11.71
4.61
18.84
30.74
40.32
47.63
52.81
56.01
57.57
57.91
57.57
57.03
56.55
56.16
55.64
54.83
53.66
52.35
51.12
50.07
48.99
47.41
44.89
41.23
36.61
31.48
26.33
21.47
16.89
12.38
7.71
2.76
-2.45
-7.75
-12.95
-17.92
-22.71
-27.57
-32.94
-39.32
-47.03
-55.95
-65.28
-73.63
-79.30
-80.79
-77.20
-68.46
-55.27
-38.86
-20.66
-2.07
15.65
31.42
44.45
54.30
60.96
64.76
66.33
66.36
65.48
64.14
62.62
61.07
59.59
58.29
57.24
56.45
55.85
55.22
54.28
52.74
50.39
47.20
43.27
38.85
34.16
29.38
24.55
19.69
14.81
9.89
4.94
-0.06
-5.11
-10.16
-15.08
-19.68
-23.89
-27.82
-31.89
-36.71
-42.74
-49.98
-57.70
-64.52
-68.73
-68.82
-64.00
-54.43
-41.18
-25.89
-10.28
4.20
16.68
26.80
34.58
40.19
43.78
45.48
45.42
43.89
41.36
38.44
35.74
33.71
32.54
32.10
32.13
32.31
32.34
32.04
31.29
29.98
27.99
25.27
21.83
17.84
13.54
9.18
4.99
1.08
-2.53
-5.84
-8.90
-11.75
-14.51
-17.43
-20.98
-25.76
-32.32
-40.96
-51.37
-62.49
-72.59
-79.68
-82.06
-78.90
-70.51
-58.21
-43.83
-29.06
-15.06
-2.40
8.81
18.55
26.74
33.24
38.01
41.21
43.18
44.23
44.63
44.46
43.77
42.65
41.32
40.02
38.95
38.14
37.46
36.68
35.59
34.10
32.21
29.98
27.45
24.55
21.19
17.28
12.88
8.21
3.56
-0.84
-4.93
-8.92
-13.13
-17.95
-23.70
-30.63
-38.85
-48.26
-58.28
-67.82
-75.32
-79.08
-77.94
-71.60
-60.87
-47.26
-32.49
-17.96
-4.50
7.55
18.06
26.95
34.07
39.27
42.57
44.14
44.35
43.61
42.35
40.92
39.56
38.40
37.49
36.79
36.22
35.66
34.87
33.63
31.74
29.12
25.87
22.19
18.31
14.41
10.49
6.52
2.47
-1.64
-5.76
-9.79
-13.74
-17.68
-21.76
-26.15
-31.00
-36.48
-42.77
-49.91
-57.70
-65.56
-72.37
-76.71
-77.23
-73.05
-64.24
-51.74
-37.19
-22.32
-8.52
3.46
13.46
21.56
27.95
32.66
35.64
36.94
36.76
35.46
33.50
31.32
29.26
27.62
26.56
26.20
26.49
27.25
28.12
28.75
28.82
28.14
26.70
24.58
21.95
19.00
15.89
12.67
9.28
5.58
1.43
-3.17
-8.01
-12.75
-17.07
-20.89
-24.43
-28.19
-32.73
-38.44
-45.29
-52.76
-59.76
-64.87
-66.60
-63.87
-56.40
-44.88
-30.83
-16.15
-2.58
8.69
17.25
23.18
26.79
28.42
28.34
26.82
24.18
20.91
17.49
14.34
11.76
9.86
8.61
7.85
7.30
6.68
5.73
4.31
2.44
0.22
-2.35
-5.39
-9.20
-14.08
-20.16
-27.27
-34.97
-42.72
-50.01
-56.44
-61.65
-65.31
-67.05
-66.59
-63.67
-58.12
-49.67
-37.93
-22.64
-3.84
17.76
40.72
63.16
83.36
100.14
113.28
123.22
130.62
135.85
138.74
138.72
135.22
128.10
117.96
106.17
94.63
85.32
79.77
78.52
80.90
85.06
88.28
87.65
80.79
66.50
45.04
18.07
-11.82
-41.71
-68.91
-91.39
-107.89
-117.87
-121.30
-118.40
-109.53
-95.20
-76.38
-54.65
-32.19
-11.34
6.06
19.16
28.44
35.27
41.42
48.34
56.85
66.98
78.17
89.41
99.43
106.89
110.67
110.15
105.35
96.97
86.08
73.92
61.60
50.02
39.71
30.63
22.01
12.39
0.02
-16.32
-36.54
-58.74
-79.51
-94.94
-102.07
-99.96
-90.06
-75.59
-60.26
-47.05
-37.48
-31.69
-29.15
-29.27
-31.76
-36.48
-43.12
-50.93
-58.96
-66.39
-72.91
-78.84
-84.75
-91.00
-97.23
-102.35
-104.82
-103.31
-97.29
-87.38
-75.16
-62.67
-51.70
-43.34
-37.71
-34.17
-31.73
-29.42
-26.58
-22.89
-18.31
-13.02
-7.26
-1.31
4.50
9.88
14.54
18.33
21.23
23.42
25.16
26.79
28.42
30.00
31.27
31.89
31.66
30.62
29.04
27.29
25.72
24.45
23.44
22.56
21.72
20.88
20.00
18.96
17.56
15.55
12.81
9.62
6.67
5.04
5.78
9.45
15.81
23.68
31.24
36.65
38.55
36.54
31.05
23.13
13.96
4.41
-5.08
-14.45
-23.91
-33.64
-43.78
-54.47
-65.91
-78.27
-91.34
-104.23
-115.38
-123.09
-126.38
-125.58
-122.11
-117.61
-112.93
-107.53
-99.97
-88.96
-74.36
-57.44
-40.30
-24.77
-11.89
-1.90
5.12
8.81
8.62
4.40
-3.14
-12.54
-22.11
-30.65
-37.76
-43.48
-47.81
-50.25
-49.92
-46.00
-38.21
-27.19
-14.20
-0.69
12.18
23.73
33.68
41.78
47.63
50.61
50.28
46.76
41.06
34.94
30.32
28.59
30.11
34.25
39.81
45.77
51.66
57.46
63.19
68.47
72.34
73.61
71.37
65.42
56.41
45.67
34.80
25.15
17.40
11.18
5.15
-2.55
-13.59
-28.66
-46.99
-66.73
-85.70
-102.34
-116.25
-127.82
-137.50
-145.03
-149.31
-148.94
-143.06
-132.03
-117.38
-101.22
-85.39
-70.91
-57.88
-45.93
-34.79
-24.60
-15.85
-9.09
-4.54
-1.81
0.04
2.19
5.64
10.73
17.00
23.37
28.73
32.44
34.60
35.95
37.34
39.26
41.58
43.68
44.90
44.91
43.81
41.97
39.64
36.82
33.21
28.58
22.95
16.62
10.01
3.49
-2.82
-9.11
-15.69
-22.89
-30.77
-38.96
-46.63
-52.51
-55.23
-53.72
-47.62
-37.43
-24.45
-10.32
3.45
15.89
26.56
35.31
42.06
46.62
48.82
48.74
46.90
44.21
41.66
40.02
39.56
40.05
40.89
41.48
41.34
40.28
38.37
35.84
33.02
30.09
27.06
23.69
19.63
14.60
8.59
1.93
-4.84
-11.25
-17.12
-22.64
-28.26
-34.43
-41.44
-49.25
-57.56
-65.84
-73.34
-79.13
-82.06
-81.09
-75.50
-65.34
-51.57
-35.93
-20.47
-6.92
3.74
11.33
16.14
18.39
17.89
14.08
6.55
-4.33
-17.26
-30.22
-41.27
-49.29
-54.19
-56.52
-56.71
-54.59
-49.49
-40.84
-28.72
-14.13
1.41
16.53
30.43
42.87
53.68
62.29
67.68
68.88
65.58
58.56
49.44
39.98
31.36
23.83
16.90
9.93
2.74
-4.12
-9.59
-12.46
-11.99
-8.10
-1.32
7.46
17.21
27.02
36.20
44.25
50.92
56.12
59.87
62.27
63.45
63.63
63.14
62.49
62.16
62.50
63.47
64.63
65.20
64.42
61.77
57.23
51.31
44.78
38.46
32.84
28.01
23.70
19.49
15.11
10.53
5.90
1.23
-3.83
-9.92
-17.78
-27.73
-39.38
-51.65
-63.07
-72.19
-77.90
-79.50
-76.66
-69.36
-57.88
-42.96
-25.73
-7.62
9.98
26.05
40.06
51.84
61.38
68.55
73.09
74.69
73.24
69.00
62.77
55.62
48.74
43.05
39.04
36.63
35.37
34.69
34.16
33.66
33.30
33.27
33.55
33.87
33.75
32.68
30.33
26.72
22.16
17.16
12.16
7.40
2.79
-2.05
-7.60
-14.26
-22.07
-30.72
-39.45
-47.23
-52.94
-55.60
-54.57
-49.70
-41.35
-30.28
-17.58
-4.42
8.09
19.04
27.75
33.83
37.13
37.79
36.24
33.10
29.18
25.37
22.45
21.00
21.25
23.03
25.79
28.76
31.15
32.42
32.35
31.03
28.74
25.72
22.06
17.72
12.59
6.71
0.36
-6.00
-11.88
-16.90
-20.95
-24.23
-27.12
-30.10
-33.71
-38.37
-44.32
-51.46
-59.18
-66.37
-71.62
-73.52
-71.08
-64.09
-53.12
-39.32
-24.09
-8.71
5.92
19.16
30.53
39.58
45.90
49.27
49.92
48.55
46.18
43.93
42.57
42.38
43.13
44.33
45.37
45.83
45.45
44.19
42.15
39.55
36.59
33.39
29.93
25.97
21.23
15.50
8.83
1.51
-6.00
-13.23
-19.84
-25.69
-30.81
-35.32
-39.49
-43.72
-48.55
-54.48
-61.65
-69.55
-76.94
-82.02
-83.00
-78.70
-69.00
-54.87
-37.99
-20.26
-3.28
11.94
24.88
35.29
43.10
48.30
51.07
51.79
51.11
49.76
48.40
47.43
47.01
47.05
47.43
47.97
48.53
48.98
49.08
48.54
47.07
44.48
40.81
36.27
31.20
25.95
20.74
15.59
10.40
5.00
-0.65
-6.49
-12.30
-17.82
-22.87
-27.51
-32.00
-36.79
-42.35
-49.04
-56.94
-65.69
-74.39
-81.68
-85.92
-85.64
-80.00
-69.14
-54.24
-37.12
-19.73
-3.61
10.36
21.92
31.16
38.22
43.19
46.16
47.39
47.35
46.67
45.85
45.25
44.89
44.64
44.35
44.05
43.86
43.94
44.34
44.85
45.00
44.26
42.21
38.76
34.22
29.13
24.03
19.21
14.62
9.97
4.88
-0.85
-7.12
-13.64
-20.04
-26.01
-31.42
-36.35
-41.10
-46.08
-51.69
-58.08
-64.95
-71.38
-75.99
-77.28
-74.20
-66.49
-54.83
-40.61
-25.48
-10.84
2.32
13.51
22.48
29.15
33.48
35.58
35.80
34.68
32.93
31.16
29.81
29.01
28.72
28.77
28.98
29.19
29.27
29.10
28.58
27.66
26.31
24.59
22.52
20.11
17.29
14.00
10.17
5.86
1.25
-3.42
-7.93
-12.16
-16.09
-19.83
-23.50
-27.28
-31.40
-36.16
-41.76
-48.16
-54.77
-60.45
-63.72
-63.25
-58.32
-49.20
-36.94
-23.12
-9.26
3.51
14.55
23.48
30.12
34.32
36.10
35.68
33.64
30.76
27.85
25.53
24.12
23.66
23.98
24.84
25.93
26.99
27.74
27.96
27.49
26.26
24.32
21.77
18.66
15.06
10.96
6.42
1.49
-3.74
-9.14
-14.57
-19.86
-24.82
-29.35
-33.44
-37.34
-41.42
-46.17
-51.90
-58.52
-65.40
-71.36
-74.99
-75.05
-70.86
-62.54
-50.97
-37.53
-23.70
-10.67
0.84
10.54
18.45
24.60
28.98
31.59
32.52
32.07
30.84
29.50
28.65
28.61
29.35
30.59
31.93
33.02
33.66
33.77
33.32
32.22
30.34
27.56
23.84
19.30
14.16
8.68
3.10
-2.43
-7.87
-13.19
-18.37
-23.33
-27.98
-32.36
-36.63
-41.15
-46.39
-52.66
-59.89
-67.42
-73.99
-78.07
-78.27
-73.82
-64.86
-52.39
-37.95
-23.17
-9.35
2.74
12.84
20.91
27.06
31.34
33.83
34.73
34.45
33.60
32.84
32.73
33.56
35.31
37.67
40.21
42.50
44.21
45.10
45.02
43.92
41.80
38.73
34.81
30.16
24.91
19.16
13.07
6.85
0.75
-4.97
-10.16
-14.86
-19.26
-23.66
-28.42
-33.82
-40.07
-47.20
-54.96
-62.72
-69.37
-73.53
-73.86
-69.57
-60.71
-48.22
-33.60
-18.46
-4.11
8.65
19.41
27.95
34.11
37.78
39.07
38.39
36.46
34.17
32.26
31.17
30.85
30.92
30.81
30.07
28.51
26.26
23.64
20.97
18.37
15.75
12.83
9.33
5.11
0.30
-4.81
-9.80
-14.36
-18.37
-21.99
-25.56
-29.50
-34.15
-39.70
-46.11
-53.09
-60.03
-65.99
-69.83
-70.40
-66.96
-59.33
-48.14
-34.57
-20.03
-5.84
7.07
18.13
27.09
33.85
38.35
40.67
41.10
40.13
38.45
36.77
35.61
35.17
35.29
35.55
35.46
34.67
33.10
30.94
28.55
26.20
23.99
21.71
18.98
15.42
10.82
5.29
-0.83
-7.06
-13.01
-18.50
-23.65
-28.74
-34.18
-40.33
-47.39
-55.37
-63.97
-72.49
-79.81
-84.53
-85.32
-81.29
-72.41
-59.53
-44.20
-28.18
-12.98
0.45
11.74
20.90
28.12
33.54
37.24
39.28
39.89
39.48
38.61
37.85
37.63
38.04
38.88
39.73
40.16
39.95
39.11
37.78
36.17
34.32
32.09
29.25
25.60
21.08
15.87
10.29
4.68
-0.72
-5.83
-10.72
-15.55
-20.44
-25.48
-30.81
-36.62
-43.14
-50.42
-58.12
-65.31
-70.61
-72.54
-70.02
-62.78
-51.46
-37.40
-22.22
-7.30
6.36
18.21
28.01
35.64
41.08
44.42
45.87
45.81
44.74
43.19
41.64
40.44
39.72
39.44
39.40
39.33
38.98
38.24
37.10
35.62
33.83
31.69
29.06
25.75
21.70
16.94
11.68
6.22
0.87
-4.17
-8.81
-13.11
-17.21
-21.28
-25.48
-30.00
-35.04
-40.81
-47.38
-54.43
-61.17
-66.33
-68.51
-66.66
-60.43
-50.37
-37.75
-24.11
-10.84
1.11
11.25
19.38
25.40
29.28
31.06
31.00
29.63
27.70
25.95
24.94
24.83
25.46
26.39
27.16
27.50
27.42
27.10
26.74
26.33
25.61
24.08
21.32
17.13
11.69
5.54
-0.65
-6.33
-11.22
-15.42
-19.26
-23.22
-27.75
-33.23
-39.81
-47.30
-55.09
-62.04
-66.75
-67.84
-64.47
-56.67
-45.37
-32.14
-18.63
-6.03
5.07
14.63
22.76
29.42
34.28
37.02
37.54
36.28
34.10
32.02
30.84
30.88
31.97
33.56
35.07
36.05
36.33
35.93
35.01
33.65
31.85
29.40
26.07
21.67
16.24
10.12
3.80
-2.19
-7.59
-12.46
-17.05
-21.75
-26.83
-32.47
-38.83
-46.03
-54.10
-62.67
-70.83
-77.11
-79.88
-77.94
-70.94
-59.61
-45.42
-30.04
-14.89
-0.73
12.13
23.56
33.37
41.22
46.72
49.74
50.48
49.53
47.70
45.74
44.18
43.23
42.81
42.68
42.57
42.24
41.55
40.47
38.99
37.12
34.87
32.25
29.26
25.93
22.28
18.32
14.00
9.25
3.99
-1.72
-7.77
-13.98
-20.17
-26.33
-32.66
-39.53
-47.25
-55.90
-65.03
-73.64
-80.29
-83.49
-82.09
-75.69
-64.76
-50.50
-34.49
-18.28
-3.06
10.44
21.92
31.30
38.56
43.71
46.83
48.16
48.12
47.25
46.08
44.97
44.11
43.46
42.87
42.24
41.51
40.70
39.78
38.62
37.02
34.81
31.99
28.72
25.27
21.83
18.41
14.77
10.66
5.95
0.71
-4.71
-9.96
-14.81
-19.28
-23.62
-28.21
-33.48
-39.73
-47.05
-55.18
-63.40
-70.55
-75.18
-75.95
-72.05
-63.54
-51.34
-36.98
-22.17
-8.27
3.90
14.07
22.29
28.70
33.37
36.33
37.63
37.47
36.26
34.50
32.78
31.53
31.01
31.23
31.95
32.78
33.37
33.41
32.82
31.62
29.88
27.65
24.88
21.44
17.23
12.27
6.76
0.99
-4.73
-10.15
-15.14
-19.69
-23.87
-27.85
-31.88
-36.29
-41.43
-47.47
-54.21
-61.00
-66.63
-69.72
-69.04
-63.96
-54.70
-42.27
-28.16
-13.93
-0.77
10.60
19.89
27.06
32.11
35.09
36.13
35.55
33.84
31.60
29.42
27.73
26.73
26.40
26.54
26.85
27.00
26.75
25.99
24.79
23.27
21.54
19.56
17.13
13.98
9.91
4.94
-0.67
-6.51
-12.13
-17.24
-21.78
-25.87
-29.74
-33.62
-37.77
-42.51
-48.19
-54.99
-62.64
-70.25
-76.30
-79.03
-77.00
-69.68
-57.69
-42.57
-26.25
-10.44
3.81
16.10
26.49
35.06
41.82
46.65
49.49
50.47
50.00
48.60
46.83
45.04
43.40
41.91
40.48
39.04
37.51
35.85
34.05
32.09
29.99
27.75
25.36
22.71
19.64
15.97
11.65
6.72
1.37
-4.15
-9.60
-14.81
-19.77
-24.56
-29.36
-34.41
-39.96
-46.27
-53.41
-61.10
-68.58
-74.64
-77.81
-76.86
-71.19
-61.08
-47.69
-32.64
-17.56
-3.72
8.19
17.95
25.62
31.34
35.21
37.34
37.91
37.27
35.92
34.38
33.16
32.54
32.60
33.24
34.25
35.45
36.66
37.70
38.33
38.31
37.35
35.33
32.27
28.36
23.87
19.07
14.06
8.89
3.52
-2.02
-7.56
-12.82
-17.54
-21.61
-25.23
-28.90
-33.27
-38.86
-45.77
-53.46
-60.79
-66.23
-68.34
-66.18
-59.66
-49.52
-37.12
-23.99
-11.43
-0.29
9.02
16.39
21.75
25.05
26.26
25.59
23.54
20.84
18.28
16.52
15.84
16.21
17.25
18.51
19.52
19.99
19.87
19.26
18.33
17.21
15.85
14.05
11.59
8.31
4.28
-0.23
-4.83
-9.21
-13.19
-16.83
-20.36
-24.07
-28.29
-33.26
-39.10
-45.63
-52.27
-58.05
-61.71
-62.10
-58.49
-50.95
-40.29
-27.89
-15.23
-3.46
6.76
15.28
22.16
27.49
31.25
33.38
33.94
33.29
32.00
30.76
30.06
30.06
30.56
31.13
31.32
30.85
29.73
28.11
26.24
24.32
22.33
20.14
17.49
14.14
9.99
5.09
-0.31
-5.87
-11.26
-16.25
-20.76
-24.92
-29.06
-33.68
-39.26
-46.09
-53.99
-62.17
-69.28
-73.72
-74.09
-69.65
-60.55
-47.84
-33.04
-17.80
-3.39
9.39
20.21
29.01
35.81
40.65
43.57
44.72
44.44
43.21
41.57
40.02
38.83
38.03
37.40
36.62
35.42
33.69
31.52
29.15
26.83
24.62
22.39
19.82
16.61
12.60
7.83
2.53
-3.02
-8.55
-13.89
-18.91
-23.60
-28.05
-32.59
-37.72
-43.96
-51.46
-59.75
-67.53
-73.06
-74.60
-71.14
-62.69
-50.28
-35.52
-20.08
-5.25
8.17
19.77
29.33
36.68
41.69
44.43
45.19
44.50
43.01
41.33
39.86
38.74
37.90
37.10
36.13
34.89
33.41
31.92
30.58
29.42
28.24
26.64
24.15
20.52
15.74
10.15
4.25
-1.43
-6.58
-11.14
-15.31
-19.43
-23.87
-28.94
-34.83
-41.50
-48.67
-55.64
-61.36
-64.64
-64.45
-60.23
-52.13
-40.99
-27.98
-14.37
-1.19
10.77
20.97
28.86
34.05
36.34
35.95
33.60
30.31
27.13
24.82
23.65
23.46
23.78
24.07
24.02
23.56
22.88
22.23
21.76
21.33
20.51
18.72
15.46
10.55
4.30
-2.62
-9.43
-15.58
-20.92
-25.67
-30.34
-35.47
-41.48
-48.54
-56.48
-64.72
-72.21
-77.59
-79.48
-76.95
-69.78
-58.64
-44.81
-29.74
-14.69
-0.50
12.26
23.20
31.89
38.03
41.51
42.65
42.07
40.60
38.97
37.65
36.81
36.38
36.23
36.17
36.07
35.85
35.41
34.70
33.66
32.16
30.01
26.97
22.85
17.64
11.54
4.97
-1.55
-7.60
-12.98
-17.77
-22.30
-27.04
-32.45
-38.91
-46.55
-55.11
-63.82
-71.39
-76.23
-76.89
-72.54
-63.30
-50.21
-34.88
-18.98
-3.81
9.85
21.68
31.51
39.20
44.58
47.65
48.68
48.24
47.00
45.65
44.59
44.01
43.86
43.96
44.13
44.21
44.06
43.61
42.76
41.43
39.55
37.03
33.82
29.90
25.35
20.31
14.98
9.53
4.09
-1.30
-6.64
-11.96
-17.35
-22.95
-29.01
-35.82
-43.58
-52.20
-61.09
-69.13
-74.85
-76.85
-74.21
-66.81
-55.34
-41.10
-25.58
-10.18
4.06
16.46
26.63
34.38
39.62
42.40
42.99
41.87
39.73
37.39
35.51
34.53
34.45
34.96
35.60
35.94
35.74
34.98
33.81
32.37
30.71
28.72
26.18
22.82
18.48
13.22
7.32
1.24
-4.63
-10.00
-14.90
-19.58
-24.35
-29.52
-35.38
-42.02
-49.34
-56.82
-63.43
-67.71
-68.22
-64.03
-55.14
-42.57
-28.00
-13.17
0.61
12.65
22.75
30.83
36.75
40.28
41.33
40.16
37.46
34.18
31.24
29.19
28.16
27.84
27.75
27.49
26.87
25.94
24.84
23.68
22.39
20.75
18.46
15.29
11.13
6.07
0.39
-5.55
-11.40
-16.94
-22.12
-27.09
-32.15
-37.64
-43.92
-51.16
-59.29
-67.85
-75.90
-82.04
-84.75
-82.78
-75.61
-63.72
-48.41
-31.51
-14.71
0.70
14.13
25.39
34.53
41.53
46.31
48.81
49.20
47.99
45.95
43.93
42.58
42.17
42.53
43.16
43.54
43.31
42.43
41.11
39.59
37.98
36.16
33.81
30.59
26.29
20.91
14.70
8.01
1.21
-5.40
-11.65
-17.47
-22.95
-28.28
-33.84
-40.03
-47.27
-55.63
-64.67
-73.30
-79.88
-82.69
-80.38
-72.52
-59.75
-43.61
-26.03
-8.81
6.79
20.13
31.00
39.46
45.57
49.43
51.16
51.10
49.78
47.90
46.11
44.87
44.34
44.37
44.67
44.89
44.86
44.50
43.80
42.72
41.14
38.89
35.78
31.71
26.77
21.18
15.25
9.26
3.40
-2.25
-7.72
-13.07
-18.33
-23.50
-28.58
-33.64
-38.89
-44.62
-51.09
-58.26
-65.64
-72.16
-76.42
-77.04
-73.13
-64.63
-52.33
-37.66
-22.15
-7.16
6.44
18.14
27.69
34.86
39.43
41.37
40.89
38.62
35.44
32.28
29.90
28.69
28.62
29.36
30.40
31.29
31.75
31.64
30.99
29.88
28.29
26.17
23.37
19.78
15.37
10.27
4.80
-0.66
-5.72
-10.15
-13.91
-17.15
-20.17
-23.32
-26.98
-31.52
-37.14
-43.75
-50.78
-57.19
-61.62
-62.73
-59.63
-52.20
-41.15
-27.79
-13.62
0.04
12.26
22.49
30.40
35.76
38.44
38.53
36.43
32.90
28.94
25.53
23.33
22.50
22.72
23.37
23.81
23.65
22.89
21.77
20.62
19.53
18.29
16.42
13.39
8.98
3.33
-3.02
-9.43
-15.41
-20.75
-25.59
-30.28
-35.21
-40.75
-47.18
-54.63
-62.99
-71.70
-79.73
-85.67
-88.00
-85.57
-77.99
-65.81
-50.35
-33.35
-16.50
-1.00
12.43
23.55
32.32
38.66
42.51
43.95
43.40
41.57
39.39
37.62
36.71
36.64
37.02
37.37
37.33
36.78
35.88
34.92
34.09
33.36
32.38
30.62
27.61
23.15
17.46
11.19
5.06
-0.41
-5.09
-9.27
-13.45
-18.11
-23.60
-30.14
-37.84
-46.67
-56.30
-65.89
-74.00
-78.89
-79.03
-73.65
-63.10
-48.77
-32.66
-16.73
-2.40
9.57
19.02
26.06
30.88
33.60
34.41
33.60
31.69
29.31
27.11
25.56
24.88
25.01
25.68
26.57
27.39
28.03
28.48
28.83
29.14
29.31
29.04
27.88
25.44
21.54
16.36
10.44
4.40
-1.22
-6.27
-10.88
-15.43
-20.22
-25.50
-31.34
-37.76
-44.67
-51.75
-58.33
-63.34
-65.55
-63.95
-58.20
-48.72
-36.66
-23.45
-10.44
1.38
11.46
19.47
25.28
28.85
30.28
29.92
28.32
26.20
24.25
22.90
22.30
22.29
22.52
22.68
22.57
22.18
21.53
20.53
18.89
16.13
11.81
5.84
-1.48
-9.39
-17.07
-23.89
-29.77
-35.18
-40.96
-48.02
-57.01
-68.03
-80.56
-93.51
-105.39
-114.74
-120.42
-121.92
-119.50
-113.93
-106.30
-97.64
-88.74
-80.12
-72.13
-65.12
-59.57
-56.13
-55.44
-58.00
-63.95
-72.98
-84.37
-97.15
-110.37
-123.16
-134.72
-144.23
-150.71
-153.17
-150.83
-143.30
-130.87
-114.56
-96.21
-78.41
-64.14
-56.13
-55.78
-62.37
-72.81
-82.41
-86.55
-82.47
-70.40
-53.32
-35.55
-20.83
-10.89
-5.02
-0.74
5.01
14.88
30.63
53.17
82.79
119.17
161.09
206.00
250.02
288.48
317.14
333.54
337.86
332.84
322.79
311.84
302.48
294.94
287.71
278.97
267.98
255.81
244.89
237.51
234.30
233.42
231.09
223.05
206.06
178.77
141.61
96.57
47.32
-0.49
-39.30
-61.09
-60.14
-36.00
4.92
50.35
85.88
99.79
86.93
49.86
-2.74
-59.67
-110.76
-149.24
-172.40
-180.96
-177.77
-166.69
-151.63
-136.06
-122.64
-113.04
-107.71
-105.79
-105.51
-104.67
-101.60
-95.64
-87.43
-78.68
-71.50
-67.63
-67.84
-71.62
-77.54
-83.84
-89.29
-93.65
-97.54
-101.94
-107.47
-113.96
-120.55
-126.18
-130.16
-132.49
-133.76
-134.77
-136.12
-137.83
-139.27
-139.22
-136.01
-127.77
-112.87
-90.48
-61.04
-26.43
10.38
46.09
77.92
104.20
124.61
139.85
151.20
159.91
166.82
172.14
175.41
175.75
172.24
164.36
152.35
137.15
120.07
102.31
84.58
67.08
49.81
32.95
17.02
2.65
-9.73
-20.31
-29.86
-39.35
-49.50
-60.41
-71.56
-82.28
-92.08
-100.94
-109.24
-117.32
-125.06
-131.64
-135.63
-135.37
-129.40
-116.70
-96.80
-69.77
-36.39
1.68
41.94
81.21
116.29
144.69
165.18
177.96
184.18
185.47
183.33
178.99
173.40
167.33
161.20
154.94
147.93
139.24
128.19
114.85
100.19
85.72
72.93
62.64
54.74
48.39
42.52
36.34
29.57
22.37
15.00
7.52
-0.44
-9.59
-20.76
-34.56
-50.95
-69.00
-86.82
-101.88
-111.67
-114.47
-109.95
-99.28
-84.76
-68.99
-54.17
-41.52
-31.37
-23.47
-17.63
-13.93
-12.76
-14.45
-18.77
-24.63
-30.02
-32.38
-29.07
-17.94
2.09
30.72
65.96
104.31
141.35
172.65
194.95
207.07
210.02
206.24
198.40
188.26
176.26
161.94
144.73
124.72
102.74
79.88
56.83
33.54
9.41
-16.06
-42.60
-68.95
-93.04
-112.63
-125.99
-132.40
-132.26
-126.79
-117.60
-106.23
-93.80
-80.91
-67.80
-54.57
-41.38
-28.61
-16.88
-6.89
0.83
6.09
9.19
10.72
11.33
11.46
11.29
10.77
9.94
9.04
8.50
8.80
10.18
12.51
15.30
17.94
19.97
21.25
21.85
21.95
21.53
20.32
17.87
13.79
8.05
1.09
-6.25
-12.98
-18.40
-22.23
-24.77
-26.68
-28.78
-31.80
-36.23
-42.39
-50.19
-59.18
-68.28
-76.02
-80.65
-80.75
-75.68
-65.88
-52.76
-38.31
-24.42
-12.44
-2.93
4.20
9.37
13.03
15.49
16.93
17.55
17.65
17.65
18.04
19.15
21.07
23.53
26.07
28.20
29.57
30.16
30.18
30.00
29.92
30.01
30.16
30.01
29.17
27.26
23.99
19.28
13.29
6.47
-0.53
-6.99
-12.48
-16.96
-20.96
-25.30
-30.83
-38.02
-46.74
-56.20
-65.12
-72.02
-75.53
-74.70
-69.16
-59.22
-45.84
-30.38
-14.35
0.90
14.39
25.66
34.58
41.28
45.93
48.71
49.75
49.26
47.56
45.10
42.44
40.11
38.52
37.83
37.87
38.25
38.43
37.91
36.33
33.64
29.97
25.64
20.93
16.12
11.33
6.62
2.04
-2.41
-6.68
-10.73
-14.58
-18.34
-22.19
-26.35
-31.01
-36.31
-42.34
-49.15
-56.68
-64.62
-72.22
-78.25
-81.25
-79.92
-73.61
-62.65
-48.28
-32.32
-16.56
-2.36
9.58
19.09
26.34
31.62
35.18
37.31
38.26
38.31
37.73
36.81
35.76
34.76
33.93
33.31
32.84
32.37
31.71
30.71
29.29
27.43
25.25
22.84
20.22
17.32
13.88
9.62
4.35
-1.93
-8.89
-16.02
-22.77
-28.80
-34.03
-38.65
-43.00
-47.42
-52.27
-57.85
-64.45
-72.15
-80.60
-88.77
-95.07
-97.72
-95.41
-87.86
-75.96
-61.57
-46.78
-33.26
-21.85
-12.56
-4.93
1.54
7.15
11.98
16.01
19.31
22.10
24.66
27.24
29.93
32.64
35.13
37.13
38.42
38.87
38.52
37.52
36.01
34.13
31.94
29.41
26.53
23.29
19.74
15.97
12.11
8.24
4.40
0.64
-3.04
-6.65
-10.21
-13.81
-17.64
-21.97
-27.10
-33.22
-40.10
-46.99
-52.62
-55.48
-54.31
-48.62
-38.87
-26.40
-12.90
0.05
11.39
20.68
27.90
33.20
36.65
38.30
38.28
36.92
34.76
32.44
30.51
29.30
28.89
29.11
29.70
30.35
30.70
30.43
29.29
27.15
24.14
20.59
16.92
13.43
10.12
6.73
2.86
-1.76
-7.10
-12.84
-18.50
-23.71
-28.31
-32.39
-36.21
-40.04
-44.12
-48.69
-53.77
-59.11
-63.96
-67.06
-67.01
-62.75
-54.05
-41.74
-27.50
-13.25
-0.58
9.69
17.42
22.89
26.36
27.97
27.80
26.06
23.25
20.08
17.28
15.38
14.53
14.60
15.25
16.13
16.92
17.37
17.34
16.79
15.81
14.58
13.29
12.00
10.62
8.96
6.83
4.13
0.94
-2.57
-6.26
-9.99
-13.75
-17.54
-21.44
-25.60
-30.29
-35.85
-42.52
-50.16
-58.03
-64.83
-69.01
-69.21
-64.79
-56.00
-43.88
-29.82
-15.27
-1.41
10.92
21.09
28.70
33.58
35.82
35.85
34.30
31.89
29.28
26.98
25.28
24.31
24.01
24.17
24.53
24.78
24.71
24.28
23.54
22.58
21.45
20.11
18.42
16.21
13.41
10.01
6.15
2.01
-2.19
-6.27
-10.19
-13.97
-17.78
-21.85
-26.53
-32.15
-38.92
-46.70
-54.81
-62.07
-66.99
-68.20
-64.87
-57.01
-45.45
-31.61
-17.07
-3.16
9.14
19.30
27.01
32.14
34.67
34.84
33.17
30.46
27.61
25.42
24.30
24.30
25.08
26.13
26.96
27.27
26.91
25.94
24.51
22.75
20.72
18.43
15.77
12.68
9.13
5.31
1.51
-2.01
-5.10
-7.89
-10.72
-13.97
-18.00
-22.97
-28.87
-35.50
-42.37
-48.70
-53.47
-55.56
-54.05
-48.58
-39.52
-27.97
-15.36
-3.06
7.95
17.18
24.49
29.87
33.27
34.60
33.91
31.55
28.17
24.58
21.53
19.45
18.36
17.98
17.91
17.88
17.76
17.55
17.22
16.70
15.73
14.03
11.37
7.72
3.28
-1.63
-6.64
-11.45
-15.91
-20.00
-23.83
-27.63
-31.80
-36.78
-43.06
-50.84
-59.83
-69.10
-77.09
-82.07
-82.69
-78.37
-69.48
-57.17
-42.91
-28.04
-13.61
-0.30
11.34
20.87
27.93
32.35
34.37
34.59
33.86
33.03
32.67
33.00
33.81
34.65
35.00
34.49
33.05
30.93
28.56
26.32
24.36
22.49
20.25
17.18
13.02
7.86
2.10
-3.78
-9.38
-14.59
-19.53
-24.49
-29.77
-35.58
-42.12
-49.42
-57.36
-65.43
-72.60
-77.47
-78.55
-74.79
-66.04
-53.17
-37.78
-21.71
-6.47
7.00
18.30
27.35
34.11
38.48
40.48
40.38
38.79
36.58
34.58
33.37
33.09
33.56
34.45
35.49
36.58
37.86
39.54
41.78
44.58
47.66
50.52
52.54
53.13
51.85
48.59
43.52
37.08
29.82
22.22
14.55
6.83
-1.11
-9.55
-18.71
-28.57
-38.71
-48.27
-55.95
-60.28
-60.01
-54.53
-44.20
-30.27
-14.63
0.69
14.03
24.35
31.24
34.84
35.55
33.92
30.63
26.48
22.38
19.18
17.43
17.21
18.15
19.53
20.64
21.04
20.71
19.92
19.02
18.18
17.27
15.90
13.64
10.17
5.48
-0.16
-6.25
-12.22
-17.65
-22.34
-26.45
-30.51
-35.21
-41.16
-48.56
-56.93
-65.05
-71.20
-73.61
-71.02
-63.13
-50.71
-35.39
-19.11
-3.53
10.27
21.87
31.26
38.54
43.71
46.71
47.67
46.99
45.51
44.15
43.65
44.24
45.56
46.90
47.52
46.98
45.27
42.74
39.86
36.90
33.86
30.44
26.27
21.08
14.87
7.97
0.90
-5.83
-11.92
-17.35
-22.41
-27.58
-33.33
-40.09
-48.07
-57.14
-66.62
-75.28
-81.47
-83.46
-80.09
-71.13
-57.49
-40.89
-23.40
-6.78
7.81
19.91
29.52
36.80
41.91
44.97
46.20
45.95
44.76
43.23
41.90
41.06
40.75
40.72
40.65
40.22
39.22
37.63
35.55
33.08
30.26
26.96
22.97
18.03
12.02
5.04
-2.54
-10.21
-17.42
-23.82
-29.29
-34.01
-38.39
-42.97
-48.30
-54.83
-62.68
-71.48
-80.21
-87.29
-90.94
-89.74
-83.12
-71.65
-56.85
-40.65
-24.75
-10.19
2.89
14.82
26.06
36.64
46.14
53.80
59.00
61.64
62.23
61.71
61.07
60.91
61.28
61.83
62.04
61.54
60.24
58.22
55.59
52.41
48.64
44.30
39.41
34.05
28.29
22.15
15.61
8.71
1.58
-5.55
-12.45
-18.95
-25.04
-30.88
-36.78
-43.12
-50.28
-58.45
-67.42
-76.35
-83.81
-88.07
-87.61
-81.71
-70.78
-56.22
-39.99
-23.99
-9.62
2.42
11.99
19.16
24.09
26.92
27.86
27.30
25.84
24.18
22.97
22.55
22.97
23.97
25.13
26.09
26.70
27.06
27.37
27.80
28.35
28.72
28.50
27.29
24.87
21.24
16.66
11.51
6.20
1.05
-3.72
-8.08
-12.14
-16.19
-20.66
-26.00
-32.57
-40.40
-48.95
-57.16
-63.41
-66.08
-63.96
-56.76
-45.14
-30.60
-14.87
0.48
14.42
26.45
36.39
44.15
49.67
52.91
54.02
53.42
51.70
49.55
47.55
46.08
45.24
44.93
44.92
44.86
44.44
43.40
41.61
39.07
35.88
32.20
28.21
24.02
19.66
15.10
10.24
5.04
-0.55
-6.50
-12.68
-18.94
-25.07
-30.94
-36.52
-41.93
-47.48
-53.60
-60.61
-68.48
-76.48
-83.20
-86.80
-85.59
-78.58
-66.03
-49.35
-30.64
-12.11
4.64
18.83
30.37
39.52
46.47
51.24
53.77
54.14
52.74
50.35
47.89
46.14
45.52
45.90
46.75
47.36
47.17
46.01
44.16
42.14
40.42
39.10
37.84
36.04
33.00
27.88
19.54
6.75
-11.24
-33.80
-58.39
-80.96
-97.24
-104.22
-101.08
-89.06
-70.46
-47.76
-23.26
0.63
21.14
35.44
41.56
39.34
30.51
17.90
4.01
-9.88
-23.50
-36.58
-48.07
-56.04
-58.56
-54.88
-45.97
-34.13
-21.84
-10.60
-0.46
9.48
20.26
32.16
44.44
55.81
65.14
72.05
77.02
80.97
84.64
88.34
91.86
94.81
96.90
98.06
98.30
97.53
95.38
91.26
84.71
75.72
64.84
53.17
41.93
32.09
23.97
17.21
10.85
3.65
-5.41
-16.82
-30.19
-44.30
-57.36
-67.48
-73.18
-73.77
-69.46
-61.33
-50.93
-39.86
-29.50
-20.82
-14.34
-10.34
-8.83
-9.59
-12.06
-15.32
-18.27
-19.92
-19.77
-18.02
-15.51
-13.24
-11.89
-11.52
-11.53
-11.15
-9.86
-7.76
-5.43
-3.78
-3.60
-5.35
-8.97
-13.94
-19.39
-24.29
-27.75
-29.39
-29.62
-29.57
-30.80
-34.58
-41.36
-50.43
-60.16
-68.71
-74.61
-77.22
-76.59
-73.20
-67.47
-59.66
-49.94
-38.57
-26.04
-13.03
-0.38
11.06
20.54
27.45
31.47
32.57
31.06
27.43
22.19
15.90
9.14
2.56
-3.13
-7.38
-10.02
-11.42
-12.28
-13.30
-14.76
-16.33
-17.25
-16.78
-14.63
-11.17
-7.31
-4.15
-2.52
-2.69
-4.43
-7.14
-10.18
-12.99
-15.16
-16.42
-16.65
-15.98
-14.92
-14.30
-14.97
-17.36
-21.10
-25.01
-27.42
-26.91
-22.85
-15.60
-6.28
3.72
13.13
21.03
26.78
30.01
30.66
29.14
26.38
23.75
22.68
24.26
28.90
36.21
45.33
55.14
64.75
73.68
81.91
89.72
97.49
105.47
113.62
121.61
128.73
133.91
135.79
132.72
123.16
106.08
81.48
50.64
15.95
-19.70
-53.70
-84.31
-110.83
-133.23
-151.73
-166.46
-177.48
-184.91
-189.00
-189.78
-186.64
-178.16
-162.48
-138.31
-105.92
-67.69
-27.60
9.98
41.73
66.18
83.73
95.82
103.90
108.79
110.60
109.08
104.10
95.96
85.35
73.27
60.82
49.14
39.16
31.41
25.69
21.01
15.92
9.03
-0.37
-12.12
-25.46
-39.57
-54.11
-69.31
-85.68
-103.41
-122.05
-140.59
-157.81
-172.66
-184.37
-192.28
-195.53
-193.07
-184.01
-168.17
-146.52
-121.14
-94.76
-69.96
-48.52
-31.04
-17.20
-6.21
2.66
9.82
15.45
19.66
22.80
25.55
28.67
32.88
38.54
45.68
54.11
63.50
73.44
83.30
91.87
97.30
97.33
90.03
74.85
53.20
28.52
5.35
-12.15
-21.59
-23.09
-19.09
-13.30
-9.41
-10.10
-16.48
-28.14
-43.52
-60.26
-75.71
-87.28
-92.97
-91.74
-83.63
-69.74
-51.86
-32.09
-12.41
5.59
20.79
32.61
40.90
45.91
48.21
48.48
47.44
45.70
43.70
41.68
39.78
38.09
36.65
35.50
34.68
34.13
33.68
33.00
31.60
29.06
25.19
20.15
14.50
8.99
4.24
0.47
-2.61
-5.64
-9.37
-14.39
-20.99
-29.11
-38.38
-48.01
-56.76
-63.07
-65.27
-62.13
-53.35
-39.70
-22.95
-5.27
11.36
25.59
36.80
44.90
50.00
52.27
51.97
49.55
45.81
41.77
38.42
36.39
35.77
36.06
36.48
36.25
34.90
32.36
29.01
25.33
21.68
18.10
14.23
9.55
3.70
-3.32
-11.02
-18.70
-25.73
-31.93
-37.64
-43.60
-50.61
-59.21
-69.29
-80.01
-89.83
-96.83
-99.16
-95.56
-85.77
-70.64
-51.88
-31.59
-11.70
6.51
22.37
35.74
46.61
54.92
60.58
63.60
64.28
63.19
61.08
58.58
56.05
53.53
50.92
48.26
45.83
44.09
43.45
43.89
44.96
45.82
45.58
43.64
39.87
34.62
28.58
22.49
16.91
12.09
7.87
3.81
-0.77
-6.54
-14.02
-23.34
-34.10
-45.36
-55.63
-63.12
-66.19
-63.78
-55.77
-43.03
-27.23
-10.31
6.06
20.77
33.37
43.83
52.25
58.64
62.85
64.79
64.58
62.74
60.01
57.25
55.02
53.50
52.43
51.32
49.72
47.39
44.33
40.73
36.79
32.58
28.03
22.96
17.19
10.63
3.33
-4.43
-12.22
-19.52
-25.91
-31.21
-35.59
-39.54
-43.76
-48.99
-55.79
-64.37
-74.31
-84.54
-93.36
-98.82
-99.26
-93.76
-82.56
-66.92
-48.79
-30.17
-12.68
2.65
15.29
25.01
31.70
35.44
36.52
35.57
33.61
31.73
30.92
31.66
33.89
37.03
40.29
42.94
44.57
45.11
44.76
43.78
42.38
40.58
38.31
35.46
31.95
27.77
23.00
17.77
12.24
6.58
0.92
-4.63
-10.07
-15.51
-21.21
-27.53
-34.71
-42.59
-50.44
-56.91
-60.33
-59.22
-52.77
-41.20
-25.72
-8.15
9.54
25.68
39.10
49.07
55.22
57.47
56.03
51.58
45.20
38.25
32.06
27.52
24.86
23.65
23.05
22.24
20.70
18.40
15.66
12.94
10.53
8.42
6.28
3.60
-0.06
-4.82
-10.34
-15.91
-20.65
-23.89
-25.43
-25.59
-25.07
-24.78
-25.59
-28.17
-32.81
-39.21
-46.37
-52.62
-55.96
-54.64
-47.74
-35.52
-19.33
-1.09
17.30
34.42
49.38
61.76
71.39
78.27
82.61
84.84
85.61
85.63
85.41
85.29
85.29
85.27
85.06
84.58
83.93
83.38
83.18
83.52
84.31
85.26
85.88
85.73
84.63
82.77
80.67
78.83
77.22
74.81
69.45
58.32
38.99
10.37
-26.61
-68.97
-112.34
-152.05
-184.13
-205.99
-216.63
-216.61
-207.92
-193.58
-176.93
-160.72
-146.28
-133.19
-119.81
-104.36
-86.00
-65.26
-43.56
-22.18
-1.36
19.77
42.59
67.83
94.94
122.13
147.34
169.23
187.70
203.55
217.62
230.06
240.05
246.30
247.91
244.79
237.58
227.16
213.98
198.05
179.43
158.65
136.78
114.72
92.43
68.76
42.33
13.12
-16.22
-40.62
-54.54
-54.80
-42.72
-24.41
-8.76
-4.52
-17.40
-48.56
-94.34
-147.33
-198.00
-236.77
-256.20
-252.81
-227.89
-186.91
-137.53
-87.28
-41.81
-4.28
24.28
44.14
56.36
62.88
66.46
70.40
77.48
89.10
104.66
122.01
138.43
151.71
160.79
165.64
166.84
164.83
159.62
150.66
137.00
117.70
92.26
61.13
26.10
-9.69
-42.23
-67.61
-83.20
-88.41
-84.84
-75.55
-63.91
-52.57
-42.95
-35.47
-30.20
-27.36
-27.43
-30.80
-37.23
-45.61
-54.16
-61.13
-65.47
-67.18
-67.11
-66.42
-65.92
-65.79
-65.75
-65.39
-64.66
-64.01
-64.19
-65.87
-69.24
-73.78
-78.46
-82.10
-83.98
-84.15
-83.57
-83.70
-86.10
-91.82
-101.00
-112.69
-124.82
-134.56
-138.83
-135.17
-122.56
-101.86
-75.78
-48.02
-22.17
-0.69
15.44
26.41
32.97
35.85
35.60
32.82
28.34
23.33
18.84
15.51
13.27
11.42
9.12
5.77
1.44
-3.25
-7.36
-10.20
-11.60
-12.11
-12.77
-14.67
-18.48
-24.17
-30.92
-37.55
-42.96
-46.48
-48.08
-48.30
-48.00
-48.05
-49.04
-50.99
-53.24
-54.53
-53.31
-48.30
-38.99
-25.88
-10.29
6.10
21.77
35.80
47.90
58.12
66.54
73.00
77.21
78.87
77.98
74.96
70.60
65.80
61.26
57.15
53.02
48.00
41.19
32.19
21.35
9.73
-1.33
-10.71
-17.85
-22.90
-26.57
-29.85
-33.78
-39.08
-46.00
-54.19
-62.75
-70.63
-77.07
-82.01
-86.17
-90.61
-96.11
-102.54
-108.75
-112.84
-113.06
-108.54
-99.68
-87.95
-75.22
-62.93
-51.69
-41.18
-30.68
-19.62
-7.96
3.67
14.35
23.21
29.78
34.05
36.36
37.25
37.29
36.94
36.55
36.17
35.58
34.27
31.62
27.09
20.46
11.94
2.10
-8.21
-18.15
-26.96
-34.10
-39.25
-42.30
-43.33
-42.61
-40.77
-38.85
-38.28
-40.58
-46.88
-57.31
-70.72
-84.85
-96.85
-104.23
-105.54
-100.71
-90.80
-77.45
-62.24
-46.22
-30.01
-13.98
1.50
15.82
28.31
38.36
45.64
50.21
52.51
53.15
52.80
52.04
51.18
50.34
49.46
48.38
46.95
45.07
42.71
39.94
36.84
33.51
30.01
26.41
22.72
18.94
15.00
10.85
6.44
1.82
-2.85
-7.33
-11.46
-15.22
-18.82
-22.74
-27.52
-33.69
-41.42
-50.36
-59.55
-67.41
-72.13
-72.11
-66.44
-55.23
-39.52
-21.05
-1.68
16.98
33.87
48.49
60.77
70.85
79.00
85.53
90.74
94.92
98.31
101.04
103.15
104.56
105.15
104.69
103.04
100.06
95.77
90.28
83.89
76.98
69.95
63.20
56.98
51.34
46.12
40.97
35.48
29.31
22.34
14.70
6.76
-1.06
-8.46
-15.37
-22.02
-28.85
-36.36
-44.93
-54.57
-64.74
-74.31
-81.71
-85.32
-83.85
-76.78
-64.55
-48.41
-30.07
-11.27
6.58
22.54
36.15
47.22
55.74
61.80
65.52
67.12
66.95
65.48
63.34
61.16
59.42
58.35
57.78
57.28
56.34
54.64
52.17
49.11
45.68
41.88
37.45
32.03
25.39
17.60
9.15
0.74
-7.01
-13.79
-19.72
-25.22
-30.80
-36.90
-43.88
-51.89
-60.85
-70.36
-79.59
-87.25
-91.82
-91.93
-86.83
-76.71
-62.63
-46.20
-29.14
-12.84
1.71
13.94
23.54
30.41
34.72
36.83
37.28
36.69
35.68
34.71
34.09
33.91
34.16
34.73
35.50
36.41
37.48
38.80
40.37
41.97
43.14
43.28
41.83
38.43
33.09
26.11
18.05
9.48
0.91
-7.31
-15.10
-22.61
-30.14
-38.08
-46.83
-56.63
-67.54
-79.25
-90.90
-101.16
-108.31
-110.70
-107.24
-97.82
-83.42
-65.83
-47.06
-28.82
-12.08
2.75
15.67
26.70
35.73
42.54
47.08
49.52
50.37
50.29
49.95
49.79
49.98
50.47
51.03
51.43
51.49
51.12
50.29
48.93
46.98
44.33
40.88
36.61
31.60
26.00
20.05
13.91
7.70
1.45
-4.81
-11.05
-17.16
-23.10
-28.84
-34.47
-40.19
-46.32
-53.18
-60.97
-69.59
-78.34
-85.96
-90.79
-91.23
-86.27
-75.95
-61.33
-44.22
-26.56
-9.89
4.86
17.35
27.54
35.48
41.19
44.79
46.57
46.97
46.55
45.79
45.02
44.34
43.78
43.27
42.75
42.16
41.43
40.55
39.45
38.06
36.29
34.00
31.13
27.74
24.02
20.23
16.59
13.07
9.49
5.54
1.02
-4.07
-9.49
-14.94
-20.20
-25.19
-30.02
-34.92
-40.11
-45.83
-52.15
-58.86
-65.27
-70.18
-72.07
-69.51
-61.74
-49.02
-32.71
-14.80
2.65
18.12
30.79
40.52
47.49
51.97
54.17
54.33
52.81
50.20
47.15
44.19
41.62
39.39
37.29
35.08
32.66
30.01
27.22
24.30
21.20
17.84
14.16
10.19
6.07
1.97
-1.94
-5.54
-8.75
-11.54
-13.88
-15.84
-17.58
-19.38
-21.57
-24.44
-28.16
-32.80
-38.41
-45.02
-52.62
-60.90
-69.22
-76.42
-81.06
-81.79
-77.79
-69.12
-56.70
-42.03
-26.78
-12.34
0.37
10.87
19.02
24.80
28.29
29.75
29.58
28.35
26.70
25.17
24.12
23.77
24.12
25.08
26.46
27.96
29.22
29.89
29.71
28.62
26.71
24.21
21.39
18.40
15.28
11.95
8.25
4.00
-0.86
-6.32
-12.23
-18.47
-24.92
-31.56
-38.43
-45.53
-52.85
-60.35
-67.86
-75.11
-81.57
-86.42
-88.57
-86.93
-80.80
-70.13
-55.65
-38.66
-20.69
-3.09
13.15
27.39
39.20
48.26
54.38
57.51
57.92
56.14
52.93
49.09
45.36
42.26
40.00
38.53
37.55
36.63
35.34
33.39
30.67
27.31
23.53
19.54
15.47
11.35
7.09
2.58
-2.27
-7.51
-13.12
-18.98
-24.85
-30.45
-35.58
-40.23
-44.70
-49.50
-55.20
-62.08
-69.80
-77.30
-82.99
-85.13
-82.42
-74.41
-61.58
-45.21
-26.97
-8.52
8.79
23.97
36.34
45.51
51.28
53.81
53.59
51.51
48.63
45.98
44.24
43.61
43.85
44.44
44.86
44.73
43.92
42.44
40.39
37.81
34.76
31.16
26.97
22.05
16.31
9.71
2.34
-5.53
-13.56
-21.37
-28.72
-35.58
-42.12
-48.67
-55.63
-63.35
-71.97
-81.18
-90.12
-97.32
-101.03
-99.62
-92.18
-78.82
-60.75
-39.99
-18.71
1.24
18.68
33.12
44.50
52.89
58.37
61.07
61.33
59.83
57.48
55.18
53.51
52.54
51.97
51.29
50.13
48.43
46.41
44.40
42.62
40.99
39.12
36.42
32.31
26.49
19.03
10.42
1.41
-7.30
-15.23
-22.30
-28.78
-35.11
-41.71
-48.91
-56.88
-65.58
-74.69
-83.47
-90.72
-94.82
-94.24
-87.95
-75.85
-58.89
-38.80
-17.61
2.87
21.34
37.01
49.51
58.73
64.72
67.78
68.52
67.85
66.79
66.15
66.32
67.18
68.25
68.91
68.77
67.72
65.89
63.52
60.72
57.37
53.16
47.71
40.75
32.26
22.52
12.04
1.44
-8.74
-18.14
-26.67
-34.47
-41.88
-49.28
-57.04
-65.44
-74.45
-83.63
-91.97
-97.92
-99.79
-96.19
-86.56
-71.42
-52.33
-31.30
-10.41
8.74
25.12
38.18
47.68
53.56
55.95
55.30
52.44
48.42
44.30
40.91
38.64
37.49
37.14
37.15
37.15
36.95
36.47
35.75
34.76
33.31
30.99
27.24
21.61
14.00
4.91
-4.72
-13.80
-21.51
-27.71
-33.00
-38.44
-45.18
-53.94
-64.76
-76.87
-88.78
-98.48
-103.94
-103.49
-96.30
-82.76
-64.27
-42.96
-21.10
-0.60
17.26
31.80
42.69
49.91
53.60
54.20
52.50
49.59
46.57
44.29
43.14
42.95
43.16
43.13
42.41
40.90
38.88
36.82
35.06
33.60
31.95
29.31
24.81
18.00
9.06
-1.24
-11.63
-20.90
-28.23
-33.49
-37.25
-40.66
-45.10
-51.72
-61.13
-72.93
-85.65
-96.88
-103.94
-104.58
-97.70
-83.72
-64.28
-41.76
-18.52
3.64
23.56
40.60
54.38
64.57
70.90
73.38
72.47
69.12
64.58
60.02
56.23
53.39
51.19
49.05
46.54
43.50
40.17
36.99
34.29
32.10
30.08
27.67
24.27
19.48
13.22
5.72
-2.56
-11.11
-19.44
-27.23
-34.37
-40.97
-47.37
-54.08
-61.62
-70.22
-79.56
-88.57
-95.59
-98.76
-96.54
-88.26
-74.33
-56.14
-35.65
-14.91
4.27
20.51
32.92
41.04
44.83
44.69
41.49
36.43
30.87
25.96
22.45
20.48
19.69
19.52
19.46
19.43
19.69
20.59
22.36
24.79
27.29
29.13
29.68
28.70
26.27
22.79
18.69
14.33
9.92
5.51
0.99
-3.88
-9.45
-16.08
-23.88
-32.52
-40.99
-47.67
-50.70
-48.57
-40.70
-27.76
-11.56
5.60
21.59
35.09
45.57
53.09
57.82
59.82
59.08
55.78
50.49
44.18
37.99
32.79
28.98
26.41
24.59
22.92
20.93
18.35
15.14
11.42
7.31
2.86
-1.98
-7.32
-13.25
-19.62
-26.06
-31.99
-36.88
-40.41
-42.69
-44.19
-45.66
-47.84
-51.27
-56.02
-61.59
-66.80
-70.14
-70.00
-65.18
-55.13
-40.12
-21.08
0.48
22.80
44.07
62.68
77.44
87.70
93.42
95.03
93.29
89.04
83.08
76.18
69.07
62.29
56.23
50.88
46.03
41.30
36.47
31.50
26.57
21.87
17.42
12.94
7.93
1.86
-5.52
-14.05
-23.20
-32.22
-40.45
-47.59
-53.79
-59.60
-65.82
-73.24
-82.31
-92.88
-104.00
-113.96
-120.56
-121.63
-115.75
-102.62
-83.29
-59.82
-34.67
-10.14
12.10
31.04
46.27
57.73
65.51
69.87
71.32
70.67
68.94
67.21
66.27
66.42
67.43
68.60
69.15
68.53
66.64
63.84
60.72
57.69
54.82
51.73
47.77
42.38
35.32
26.85
17.62
8.42
-0.09
-7.60
-14.20
-20.36
-26.71
-33.93
-42.47
-52.35
-62.88
-72.68
-79.89
-82.61
-79.61
-70.64
-56.61
-39.30
-20.80
-2.98
12.81
25.79
35.64
42.26
45.78
46.52
45.09
42.33
39.18
36.43
34.51
33.43
32.86
32.34
31.52
30.27
28.70
26.96
25.05
22.78
19.76
15.61
10.12
3.45
-4.00
-11.64
-18.99
-25.76
-31.99
-37.97
-44.23
-51.30
-59.52
-68.74
-78.18
-86.33
-91.26
-91.16
-84.93
-72.67
-55.71
-36.21
-16.51
1.49
16.63
28.42
36.74
41.66
43.34
42.15
38.72
34.02
29.09
24.84
21.88
20.37
20.17
20.93
22.22
23.56
24.46
24.46
23.14
20.26
15.80
9.99
3.27
-3.88
-11.03
-17.93
-24.62
-31.38
-38.72
-47.15
-56.81
-67.24
-77.19
-84.77
-87.98
-85.29
-76.22
-61.55
-43.09
-23.07
-3.59
13.82
28.32
39.55
47.50
52.39
54.57
54.64
53.38
51.58
49.86
48.52
47.52
46.60
45.48
44.06
42.40
40.64
38.83
36.81
34.23
30.62
25.62
19.14
11.40
2.85
-5.97
-14.68
-23.17
-31.66
-40.62
-50.59
-61.86
-74.22
-86.76
-97.87
-105.49
-107.69
-103.18
-91.79
-74.68
-53.89
-31.84
-10.59
8.48
24.82
38.32
49.02
56.90
61.90
64.22
64.36
63.11
61.36
59.68
58.22
56.76
54.92
52.43
49.37
46.03
42.80
39.85
37.04
33.93
29.94
24.62
17.83
9.85
1.20
-7.47
-15.65
-23.14
-30.02
-36.65
-43.54
-51.28
-60.32
-70.81
-82.29
-93.62
-102.93
-108.05
-107.10
-99.12
-84.43
-64.59
-41.89
-18.68
3.18
22.54
38.92
52.21
62.45
69.75
74.31
76.52
76.98
76.32
75.14
73.81
72.46
71.04
69.43
67.55
65.41
63.10
60.67
58.17
55.50
52.49
48.91
44.62
39.56
33.82
27.59
21.07
14.42
7.70
0.89
-5.99
-12.90
-19.69
-26.23
-32.44
-38.48
-44.78
-51.94
-60.60
-71.00
-82.73
-94.49
-104.26
-109.71
-108.94
-101.04
-86.46
-66.84
-44.50
-21.78
-0.54
18.12
33.68
46.00
55.12
61.18
64.42
65.28
64.37
62.40
60.02
57.73
55.82
54.35
53.20
52.26
51.39
50.55
49.68
48.69
47.33
45.28
42.25
38.17
33.18
27.68
22.08
16.65
11.41
6.14
0.61
-5.30
-11.49
-17.65
-23.48
-28.77
-33.57
-38.14
-42.91
-48.40
-55.10
-63.26
-72.65
-82.30
-90.45
-94.92
-93.71
-85.77
-71.43
-52.38
-31.08
-10.02
8.90
24.68
36.94
45.70
51.09
53.33
52.85
50.44
47.13
44.00
41.86
41.02
41.26
42.01
42.69
42.91
42.66
42.10
41.40
40.52
39.17
36.96
33.64
29.28
24.27
19.16
14.38
10.03
5.93
1.71
-2.94
-8.06
-13.42
-18.66
-23.44
-27.63
-31.42
-35.20
-39.51
-44.83
-51.47
-59.31
-67.71
-75.37
-80.55
-81.51
-77.08
-67.06
-52.39
-34.88
-16.58
0.70
15.79
28.08
37.37
43.64
46.98
47.69
46.27
43.51
40.28
37.35
35.17
33.88
33.36
33.35
33.63
34.00
34.34
34.44
34.03
32.77
30.42
26.94
22.65
18.02
13.53
9.42
5.58
1.62
-2.86
-8.08
-13.99
-20.24
-26.42
-32.22
-37.52
-42.38
-47.08
-51.98
-57.53
-64.13
-71.85
-80.18
-87.86
-93.07
-93.87
-88.94
-78.05
-62.23
-43.42
-23.84
-5.38
10.79
24.12
34.49
41.95
46.60
48.65
48.57
47.08
45.01
43.14
41.95
41.62
42.03
42.91
43.94
44.86
45.46
45.56
45.05
43.87
42.03
39.63
36.79
33.69
30.39
26.90
23.07
18.72
13.72
8.13
2.23
-3.59
-9.00
-13.90
-18.50
-23.24
-28.68
-35.33
-43.51
-53.10
-63.44
-73.19
-80.55
-83.64
-81.10
-72.62
-59.14
-42.57
-25.16
-8.88
5.03
16.01
24.00
29.13
31.61
31.74
30.02
27.15
23.85
20.72
18.13
16.18
14.76
13.72
12.87
12.03
10.98
9.51
7.45
4.70
1.32
-2.47
-6.41
-10.31
-14.16
-18.13
-22.40
-27.09
-32.01
-36.60
-40.13
-41.85
-41.32
-38.50
-33.82
-27.97
-21.91
-16.75
-13.62
-13.40
-16.34
-21.61
-27.29
-30.78
-29.61
-22.43
-9.51
7.35
25.44
42.10
55.41
64.44
69.06
69.63
66.64
60.79
52.95
44.25
35.92
29.00
24.06
21.08
19.53
18.60
17.59
16.14
14.26
12.22
10.25
8.36
6.29
3.63
0.05
-4.52
-9.87
-15.60
-21.25
-26.47
-31.18
-35.50
-39.77
-44.44
-49.96
-56.66
-64.65
-73.61
-82.67
-90.51
-95.54
-96.29
-91.87
-82.16
-67.95
-50.74
-32.31
-14.31
1.96
15.69
26.46
34.12
38.72
40.46
39.80
37.46
34.36
31.44
29.43
28.65
28.97
29.83
30.61
30.77
30.11
28.76
26.97
24.99
22.83
20.20
16.75
12.13
6.25
-0.68
-8.20
-15.75
-22.86
-29.27
-35.07
-40.60
-46.43
-53.22
-61.43
-71.15
-81.86
-92.39
-100.96
-105.64
-104.79
-97.59
-84.40
-66.66
-46.44
-25.97
-6.94
9.67
23.54
34.73
43.35
49.43
53.02
54.38
54.12
53.07
52.06
51.64
51.86
52.36
52.62
52.21
51.02
49.26
47.30
45.44
43.64
41.54
38.57
34.15
28.05
20.47
11.99
3.40
-4.63
-11.77
-18.06
-23.92
-29.96
-36.76
-44.80
-54.23
-64.70
-75.28
-84.46
-90.42
-91.46
-86.59
-75.90
-60.58
-42.59
-24.01
-6.51
8.89
21.78
31.98
39.32
43.62
44.86
43.47
40.36
36.80
34.01
32.73
33.09
34.63
36.61
38.35
39.44
39.76
39.34
38.21
36.25
33.25
28.99
23.43
16.82
9.67
2.60
-3.88
-9.58
-14.75
-19.90
-25.66
-32.51
-40.71
-50.12
-60.14
-69.74
-77.41
-81.44
-80.38
-73.50
-61.18
-44.83
-26.49
-8.22
8.44
22.63
34.02
42.51
47.98
50.41
50.00
47.43
43.71
40.01
37.18
35.57
34.94
34.77
34.52
33.90
32.93
31.80
30.65
29.39
27.68
25.08
21.19
15.85
9.19
1.62
-6.31
-14.08
-21.31
-27.91
-34.18
-40.64
-48.04
-56.96
-67.55
-79.20
-90.44
-99.20
-103.31
-101.20
-92.41
-77.72
-58.92
-38.24
-17.74
1.10
17.42
30.84
41.19
48.45
52.72
54.32
53.88
52.30
50.54
49.36
49.14
49.77
50.80
51.61
51.73
50.98
49.54
47.70
45.70
43.46
40.56
36.49
30.84
23.64
15.37
6.77
-1.47
-9.04
-16.11
-23.14
-30.69
-39.17
-48.75
-59.37
-70.71
-82.05
-92.16
-99.33
-101.68
-97.79
-87.21
-70.79
-50.49
-28.73
-7.70
11.12
27.06
40.03
50.16
57.51
62.16
64.27
64.29
62.95
61.14
59.66
58.96
59.04
59.53
59.91
59.75
58.83
57.21
55.02
52.45
49.52
46.11
42.05
37.13
31.21
24.29
16.55
8.31
-0.05
-8.15
-15.79
-22.97
-29.90
-36.97
-44.69
-53.47
-63.48
-74.42
-85.27
-94.33
-99.54
-99.05
-91.85
-78.20
-59.59
-38.29
-16.67
3.36
20.66
34.79
45.65
53.34
57.99
59.90
59.57
57.79
55.42
53.29
51.92
51.47
51.77
52.40
52.89
52.83
52.00
50.35
48.00
45.14
41.91
38.37
34.46
30.02
24.91
19.05
12.49
5.39
-2.01
-9.46
-16.74
-23.69
-30.29
-36.67
-43.12
-50.12
-58.17
-67.47
-77.61
-87.32
-94.68
-97.62
-94.64
-85.37
-70.82
-52.99
-34.23
-16.61
-1.44
10.68
19.67
25.65
28.78
29.33
27.70
24.55
20.67
16.89
13.90
12.18
11.96
13.23
15.74
19.08
22.65
25.83
28.11
29.15
28.91
27.48
25.01
21.59
17.22
11.89
5.76
-0.83
-7.37
-13.32
-18.37
-22.53
-26.19
-29.93
-34.50
-40.49
-48.19
-57.39
-67.30
-76.48
-83.09
-85.25
-81.58
-71.65
-56.16
-36.76
-15.65
5.10
23.89
39.83
52.59
62.17
68.68
72.32
73.42
72.52
70.45
68.03
65.98
64.61
63.85
63.33
62.67
61.61
60.05
58.04
55.60
52.73
49.35
45.41
40.87
35.75
30.03
23.66
16.61
8.94
0.91
-7.09
-14.62
-21.38
-27.31
-32.66
-37.96
-43.86
-50.99
-59.69
-69.78
-80.40
-89.98
-96.50
-98.01
-93.21
-81.85
-64.99
-44.60
-23.04
-2.47
15.65
30.59
42.24
50.81
56.60
59.97
61.33
61.21
60.20
58.92
57.84
57.23
57.10
57.27
57.51
57.58
57.30
56.55
55.28
53.44
50.99
47.87
43.97
39.26
33.71
27.43
20.61
13.53
6.46
-0.44
-7.08
-13.48
-19.64
-25.56
-31.23
-36.83
-42.76
-49.57
-57.74
-67.24
-77.27
-86.19
-91.90
-92.45
-86.70
-74.78
-58.00
-38.41
-18.28
0.55
16.90
30.21
40.30
47.20
51.06
52.16
51.04
48.46
45.28
42.34
40.22
39.20
39.20
39.88
40.79
41.44
41.49
40.82
39.51
37.74
35.64
33.15
30.05
26.02
20.87
14.65
7.68
0.42
-6.67
-13.29
-19.30
-24.79
-30.07
-35.56
-41.81
-49.33
-58.29
-68.25
-78.09
-86.05
-90.20
-88.99
-81.76
-68.99
-52.15
-33.26
-14.34
3.02
17.86
29.76
38.61
44.42
47.33
47.57
45.67
42.40
38.74
35.58
33.56
32.78
32.93
33.39
33.51
32.90
31.51
29.55
27.32
25.00
22.50
19.47
15.47
10.19
3.62
-3.94
-11.91
-19.70
-26.85
-33.21
-38.95
-44.45
-50.22
-56.79
-64.55
-73.64
-83.76
-93.93
-102.53
-107.56
-107.22
-100.50
-87.62
-70.00
-49.79
-29.24
-10.08
6.69
20.72
31.96
40.42
46.10
49.08
49.66
48.47
46.36
44.16
42.57
41.89
42.06
42.73
43.42
43.73
43.43
42.52
41.12
39.43
37.52
35.25
32.31
28.31
22.99
16.39
8.93
1.24
-6.08
-12.68
-18.62
-24.26
-30.15
-36.80
-44.59
-53.68
-63.93
-74.72
-84.89
-92.69
-96.21
-93.91
-85.25
-70.91
-52.66
-32.74
-13.19
4.67
20.22
33.31
43.86
51.66
56.45
58.22
57.40
54.93
51.95
49.47
48.05
47.75
48.18
48.86
49.26
49.10
48.22
46.66
44.54
42.00
39.12
35.87
32.09
27.56
22.19
16.06
9.48
2.85
-3.55
-9.62
-15.52
-21.54
-27.96
-35.06
-43.01
-51.91
-61.64
-71.72
-81.06
-88.09
-91.04
-88.51
-80.02
-66.24
-48.86
-30.06
-11.82
4.42
17.95
28.56
36.25
41.09
43.16
42.82
40.72
37.81
35.10
33.37
32.94
33.57
34.63
35.43
35.46
34.60
33.10
31.31
29.48
27.55
25.15
21.82
17.23
11.40
4.69
-2.32
-9.07
-15.29
-21.04
-26.70
-32.82
-39.93
-48.36
-58.05
-68.38
-78.13
-85.58
-88.90
-86.60
-78.09
-63.93
-45.68
-25.54
-5.67
12.23
27.14
38.64
46.69
51.41
53.07
52.17
49.44
45.85
42.36
39.70
38.18
37.64
37.61
37.55
37.10
36.20
34.98
33.62
32.16
30.44
28.10
24.73
20.04
13.93
6.59
-1.49
-9.64
-17.19
-23.76
-29.37
-34.56
-40.17
-47.12
-56.05
-67.08
-79.54
-92.06
-102.65
-109.07
-109.43
-102.70
-89.15
-70.33
-48.62
-26.48
-5.90
12.01
26.84
38.53
47.11
52.58
55.06
54.99
53.17
50.59
48.10
46.15
44.74
43.48
41.89
39.66
36.81
33.69
30.73
28.19
25.95
23.47
20.03
15.15
8.88
1.87
-4.97
-10.92
-15.94
-20.82
-26.91
-35.66
-48.01
-64.11
-83.21
-103.84
-123.99
-141.44
-154.12
-160.63
-160.68
-155.27
-146.41
-136.41
-126.96
-118.46
-110.04
-100.21
-87.85
-73.04
-57.25
-42.80
-31.87
-25.57
-23.39
-23.44
-23.07
-19.74
-11.75
1.37
19.01
39.87
62.34
84.90
106.11
124.74
139.63
149.89
155.10
155.42
151.68
145.16
137.17
128.64
119.81
110.32
99.35
86.12
70.07
51.17
29.98
7.77
-13.51
-31.39
-43.27
-47.22
-42.53
-29.94
-11.33
11.00
35.12
59.89
84.70
108.96
131.65
151.28
166.39
176.30
181.43
183.31
183.96
185.29
188.45
193.76
200.66
207.98
214.22
217.76
217.10
211.10
199.16
181.49
159.07
133.59
107.15
81.76
58.81
38.65
20.56
3.08
-15.36
-35.87
-58.72
-83.40
-108.82
-133.64
-156.36
-175.37
-188.99
-195.78
-194.92
-186.69
-172.47
-154.53
-135.28
-116.55
-99.21
-83.16
-67.89
-53.02
-38.72
-25.76
-15.04
-7.16
-2.13
0.62
1.82
2.03
1.33
-0.47
-3.52
-7.65
-12.27
-16.65
-20.24
-22.93
-25.05
-27.23
-30.09
-34.17
-39.84
-47.28
-56.41
-66.76
-77.43
-87.21
-95.00
-100.21
-103.05
-104.43
-105.48
-107.01
-108.94
-110.38
-110.03
-106.95
-101.15
-93.70
-86.31
-80.50
-77.03
-75.73
-75.94
-77.20
-79.66
-83.95
-90.58
-99.10
-107.78
-113.97
-114.91
-108.86
-95.72
-77.21
-56.16
-35.72
-18.34
-5.28
3.63
9.76
15.22
22.17
32.18
45.68
61.63
77.79
91.31
99.61
101.21
96.18
86.22
74.19
63.40
56.65
55.43
59.48
66.84
74.62
80.02
81.56
79.49
75.68
72.56
71.90
74.12
78.15
82.24
84.79
85.09
83.39
80.45
77.01
73.46
69.92
66.44
63.37
61.45
61.50
64.05
69.03
75.62
82.49
88.24
91.69
92.15
89.42
83.64
75.18
64.56
52.53
40.13
28.58
19.06
12.33
8.45
6.71
5.95
5.18
4.11
3.44
4.62
9.13
17.77
30.15
44.64
59.03
71.22
79.91
84.90
86.91
87.20
87.06
87.44
88.70
90.69
92.93
94.92
96.57
98.32
101.13
105.94
112.91
120.78
126.73
127.01
118.25
98.72
69.13
32.30
-7.97
-48.41
-87.46
-125.34
-163.61
-204.17
-248.45
-296.79
-347.99
-399.07
-445.51
-482.10
-504.60
-511.30
-504.09
-487.91
-468.85
-451.72
-438.16
-426.40
-412.69
-393.41
-366.79
-333.45
-295.49
-255.22
-214.08
-172.31
-129.48
-85.13
-39.48
6.21
49.81
88.68
120.31
142.89
155.82
159.74
156.27
147.25
134.13
117.76
98.75
78.14
57.81
40.30
27.86
21.37
19.89
20.90
21.42
19.11
13.14
4.28
-5.42
-13.40
-17.33
-15.83
-8.95
1.79
13.84
24.43
31.60
35.05
36.30
38.23
44.18
56.80
77.19
104.26
134.79
163.96
186.49
198.09
196.78
183.50
161.80
136.61
112.63
92.96
78.48
67.99
59.08
49.23
36.78
21.52
4.59
-12.03
-26.43
-37.63
-46.08
-53.31
-61.08
-70.33
-80.47
-89.42
-94.45
-93.33
-85.45
-72.20
-56.60
-42.23
-32.12
-27.78
-28.96
-33.84
-39.72
-43.70
-43.40
-37.44
-25.54
-8.58
11.79
33.48
54.44
72.99
88.14
99.59
107.65
112.96
116.15
117.66
117.60
115.91
112.57
107.83
102.33
96.98
92.62
89.71
88.21
87.64
87.30
86.44
84.31
80.15
73.32
63.64
51.63
38.71
26.92
18.14
13.46
12.64
14.24
16.36
17.36
16.45
13.75
9.83
5.23
0.22
-5.11
-10.60
-15.92
-20.51
-23.80
-25.42
-25.22
-23.32
-20.01
-15.82
-11.48
-7.85
-5.64
-5.13
-6.03
-7.57
-8.93
-9.69
-10.03
-10.60
-12.17
-15.20
-19.70
-25.15
-30.73
-35.41
-38.08
-37.63
-33.08
-23.80
-9.72
8.57
29.81
52.29
74.21
94.03
110.67
123.59
132.80
138.61
141.45
141.61
139.15
133.86
125.46
113.77
98.95
81.59
62.64
43.18
24.18
6.27
-10.23
-25.26
-38.77
-50.67
-60.78
-68.99
-75.34
-80.11
-83.79
-87.04
-90.57
-95.01
-100.70
-107.52
-114.66
-120.68
-123.81
-122.42
-115.57
-103.29
-86.51
-66.75
-45.61
-24.37
-3.93
15.10
32.15
46.61
57.87
65.59
69.86
71.24
70.63
68.96
66.92
64.82
62.67
60.33
57.81
55.28
53.02
51.19
49.66
47.95
45.39
41.40
35.79
28.80
20.97
12.94
5.03
-2.71
-10.56
-18.93
-28.13
-38.33
-49.42
-60.99
-72.23
-81.98
-88.77
-91.16
-88.05
-78.95
-64.18
-44.76
-22.26
1.51
24.70
45.64
62.96
75.79
83.90
87.74
88.39
87.27
85.73
84.60
83.99
83.29
81.63
78.25
72.84
65.64
57.14
47.76
37.63
26.69
14.92
2.63
-9.49
-20.62
-30.08
-37.67
-43.65
-48.61
-53.22
-58.00
-63.31
-69.38
-76.33
-84.06
-92.13
-99.53
-104.83
-106.46
-103.25
-94.80
-81.57
-64.74
-45.73
-25.88
-6.14
12.77
30.27
45.73
58.45
67.84
73.68
76.21
76.15
74.49
72.16
69.79
67.62
65.53
63.30
60.81
58.17
55.52
52.96
50.36
47.33
43.40
38.23
31.73
24.16
16.03
7.88
0.16
-6.99
-13.69
-20.37
-27.59
-35.86
-45.42
-56.07
-66.99
-76.89
-84.18
-87.37
-85.39
-77.89
-65.30
-48.66
-29.40
-8.88
11.77
31.79
50.65
67.98
83.41
96.69
107.83
117.19
125.48
133.46
141.61
149.95
157.97
164.87
169.92
172.65
172.93
170.95
167.11
162.00
156.37
151.03
146.56
143.01
139.76
135.69
129.53
120.38
107.99
92.69
75.07
55.49
33.91
9.84
-17.30
-47.94
-82.07
-119.15
-158.32
-198.38
-237.85
-274.97
-307.63
-333.64
-351.05
-358.68
-356.48
-345.61
-328.07
-306.14
-281.74
-256.13
-229.98
-203.68
-177.69
-152.74
-129.68
-109.16
-91.36
-75.95
-62.24
-49.52
-37.31
-25.57
-14.58
-4.74
3.68
10.66
16.39
21.19
25.28
28.62
30.94
31.92
31.34
29.35
26.43
23.20
20.23
17.75
15.61
13.41
10.68
7.00
2.09
-4.20
-11.78
-20.18
-28.45
-35.22
-38.97
-38.48
-33.23
-23.59
-10.60
4.28
19.67
34.46
47.92
59.60
69.13
76.25
80.76
82.67
82.29
80.19
77.14
73.89
71.02
68.75
67.04
65.69
64.48
63.37
62.44
61.78
61.28
60.56
59.04
56.14
51.46
44.95
36.85
27.59
17.73
7.81
-1.59
-10.04
-17.30
-23.55
-29.42
-35.87
-43.91
-54.13
-66.37
-79.61
-92.10
-101.78
-106.83
-106.13
-99.53
-87.84
-72.54
-55.32
-37.64
-20.54
-4.57
9.96
22.80
33.62
42.04
47.80
50.89
51.59
50.38
47.84
44.52
40.88
37.23
33.77
30.52
27.41
24.27
20.93
17.30
13.36
9.13
4.52
-0.66
-6.61
-13.48
-21.18
-29.33
-37.48
-45.17
-52.09
-58.12
-63.24
-67.50
-71.05
-74.09
-76.85
-79.29
-80.88
-80.59
-77.13
-69.54
-57.64
-42.19
-24.55
-6.24
11.63
28.44
43.81
57.32
68.30
76.02
80.06
80.66
78.65
75.24
71.61
68.55
66.35
64.81
63.24
60.62
55.72
47.50
35.67
21.03
5.50
-8.47
-18.94
-25.43
-29.27
-33.08
-39.54
-50.02
-63.83
-78.21
-89.44
-94.18
-90.59
-78.98
-61.57
-41.74
-23.01
-7.98
2.53
9.74
16.49
26.18
41.32
62.31
86.90
110.63
128.33
135.90
131.78
117.58
97.57
77.32
61.91
54.43
55.36
62.90
74.01
85.77
96.10
103.96
109.10
111.85
113.18
114.74
118.50
125.82
136.29
146.97
152.85
148.52
130.35
98.07
55.07
7.00
-40.32
-83.01
-119.92
-152.13
-181.46
-208.78
-233.24
-252.36
-263.18
-263.59
-253.22
-233.44
-206.74
-176.19
-145.24
-117.68
-97.19
-86.13
-83.89
-86.01
-84.94
-72.51
-43.45
2.05
58.12
115.47
165.06
201.28
223.13
233.04
234.56
230.31
221.70
209.87
196.87
185.75
179.28
178.14
179.76
179.13
171.21
153.61
128.15
100.23
76.43
61.74
57.71
62.42
71.88
81.96
89.84
94.62
96.85
97.52
97.12
94.90
88.97
77.05
57.31
28.81
-8.48
-53.65
-104.52
-156.73
-203.35
-235.93
-246.96
-233.26
-198.12
-150.86
-103.52
-66.14
-43.21
-33.34
-31.83
-34.56
-40.50
-51.35
-69.18
-93.78
-121.75
-147.99
-168.33
-181.44
-189.04
-194.43
-200.14
-206.20
-210.05
-207.89
-196.70
-175.79
-147.19
-114.79
-82.81
-54.42
-30.85
-11.87
3.27
14.53
20.64
19.65
10.23
-6.93
-28.61
-49.74
-65.05
-70.89
-66.23
-52.67
-33.45
-12.14
8.59
27.36
43.74
57.57
68.45
75.56
77.94
74.96
66.69
53.95
38.12
20.86
3.78
-11.82
-24.99
-35.27
-42.57
-47.16
-49.51
-50.28
-50.23
-50.20
-50.93
-52.91
-56.18
-60.21
-63.93
-66.15
-65.95
-63.11
-58.26
-52.70
-47.76
-44.17
-41.62
-38.82
-33.96
-25.43
-12.56
4.12
23.00
42.08
59.57
74.49
86.70
96.61
104.70
111.08
115.42
117.15
115.88
111.79
105.75
99.11
93.24
89.23
87.66
88.64
92.01
97.30
103.82
110.53
116.17
119.54
119.97
117.62
113.48
108.85
104.65
100.76
95.91
88.27
76.36
60.16
41.45
23.51
9.90
3.16
3.75
9.84
18.01
24.42
26.10
21.79
12.10
-0.87
-14.34
-25.85
-33.95
-38.56
-40.82
-42.45
-44.99
-49.12
-54.45
-59.87
-64.14
-66.58
-67.29
-67.10
-67.11
-68.33
-71.35
-76.34
-83.01
-90.60
-97.88
-103.38
-105.84
-104.89
-101.38
-97.20
-94.51
-94.74
-97.78
-102.04
-105.12
-104.94
-100.54
-92.27
-81.26
-68.68
-55.32
-41.43
-27.16
-12.89
0.69
12.76
22.78
30.78
37.24
42.85
48.14
53.15
57.49
60.60
62.05
61.82
60.23
57.82
55.04
52.09
48.80
44.79
39.64
33.09
25.11
15.98
6.22
-3.45
-12.39
-20.16
-26.69
-32.26
-37.42
-42.73
-48.72
-55.76
-64.12
-73.82
-84.47
-95.02
-103.84
-108.95
-108.67
-102.24
-90.12
-73.84
-55.43
-36.76
-19.04
-2.79
11.94
25.20
36.79
46.34
53.48
58.05
60.34
61.02
60.90
60.74
60.95
61.62
62.54
63.46
64.20
64.71
64.95
64.74
63.74
61.53
57.81
52.64
46.46
39.88
33.50
27.58
21.95
16.20
9.85
2.70
-5.13
-13.25
-21.16
-28.54
-35.39
-42.07
-49.20
-57.51
-67.53
-79.24
-91.94
-104.07
-113.53
-118.10
-116.21
-107.37
-92.47
-73.40
-52.45
-31.62
-12.19
5.33
20.87
34.52
46.26
56.03
63.83
69.88
74.50
77.96
80.37
81.73
82.07
81.58
80.66
79.78
79.20
78.88
78.47
77.49
75.51
72.32
67.93
62.52
56.34
49.67
42.73
35.71
28.76
21.94
15.23
8.59
1.92
-4.79
-11.58
-18.42
-25.33
-32.49
-40.22
-48.93
-58.88
-69.82
-80.75
-89.91
-95.28
-95.09
-88.59
-76.26
-59.61
-40.75
-21.64
-3.64
12.58
26.86
39.19
49.53
57.71
63.66
67.49
69.54
70.35
70.42
70.07
69.40
68.40
67.10
65.65
64.34
63.40
62.84
62.33
61.28
59.09
55.46
50.47
44.64
38.62
32.94
27.86
23.23
18.70
13.82
8.40
2.49
-3.62
-9.51
-14.89
-19.73
-24.33
-29.18
-34.89
-41.90
-50.39
-60.00
-69.81
-78.37
-84.01
-85.22
-81.17
-71.98
-58.74
-43.12
-26.89
-11.44
2.44
14.44
24.55
32.78
39.14
43.69
46.55
47.93
48.13
47.45
46.23
44.80
43.50
42.63
42.36
42.63
43.18
43.65
43.66
42.95
41.37
38.88
35.57
31.62
27.26
22.79
18.44
14.28
10.22
6.00
1.41
-3.65
-9.01
-14.38
-19.39
-23.77
-27.52
-30.94
-34.53
-38.86
-44.34
-50.97
-58.17
-64.79
-69.39
-70.66
-67.77
-60.71
-50.27
-37.76
-24.63
-12.08
-0.88
8.62
16.32
22.19
26.22
28.48
29.24
28.96
28.26
27.70
27.62
28.03
28.70
29.29
29.52
29.31
28.76
28.04
27.24
26.39
25.35
23.96
22.13
19.91
17.45
14.90
12.31
9.56
6.49
2.99
-0.86
-4.86
-8.79
-12.56
-16.17
-19.74
-23.31
-26.92
-30.65
-34.73
-39.53
-45.27
-51.75
-58.07
-62.85
-64.64
-62.47
-56.26
-46.80
-35.40
-23.51
-12.23
-2.24
6.19
13.01
18.24
21.92
24.14
25.10
25.11
24.51
23.58
22.49
21.33
20.08
18.82
17.71
16.98
16.80
17.10
17.57
17.76
17.27
15.95
13.92
11.46
8.83
6.13
3.29
0.17
-3.29
-6.95
-10.55
-13.81
-16.60
-19.03
-21.40
-24.04
-27.20
-31.00
-35.39
-40.23
-45.20
-49.72
-52.96
-53.98
-51.99
-46.71
-38.53
-28.42
-17.66
-7.44
1.42
8.58
14.00
17.77
19.98
20.75
20.22
18.72
16.70
14.61
12.85
11.63
11.02
10.96
11.29
11.77
12.13
12.14
11.60
10.48
8.83
6.82
4.64
2.35
-0.08
-2.75
-5.70
-8.90
-12.21
-15.50
-18.64
-21.60
-24.45
-27.30
-30.25
-33.44
-36.99
-40.96
-45.30
-49.63
-53.23
-55.14
-54.38
-50.36
-43.15
-33.50
-22.63
-11.83
-2.11
5.97
12.25
16.83
19.79
21.23
21.21
19.87
17.54
14.71
11.95
9.82
8.66
8.50
9.06
9.87
10.46
10.62
10.41
10.09
9.89
9.76
9.32
8.02
5.45
1.52
-3.40
-8.71
-13.79
-18.26
-22.10
-25.48
-28.65
-31.85
-35.31
-39.25
-43.88
-49.22
-54.94
-60.17
-63.72
-64.30
-61.07
-53.94
-43.66
-31.66
-19.53
-8.62
0.37
7.25
12.28
15.77
17.91
18.77
18.43
17.07
15.13
13.19
11.72
10.94
10.73
10.72
10.54
9.97
9.06
8.09
7.28
6.73
6.26
5.52
4.16
1.96
-1.02
-4.55
-8.29
-11.99
-15.59
-19.15
-22.91
-27.16
-32.15
-38.11
-45.06
-52.75
-60.59
-67.58
-72.53
-74.30
-72.19
-66.12
-56.68
-44.97
-32.24
-19.63
-7.99
2.18
10.60
17.12
21.67
24.30
25.22
24.93
24.03
23.10
22.53
22.41
22.57
22.78
22.77
22.39
21.61
20.44
18.90
17.00
14.74
12.01
8.71
4.71
-0.02
-5.32
-10.88
-16.27
-21.19
-25.63
-29.91
-34.62
-40.39
-47.60
-56.24
-65.76
-75.08
-82.78
-87.46
-88.02
-84.03
-75.78
-64.19
-50.46
-35.82
-21.27
-7.53
4.84
15.34
23.48
28.81
31.20
30.94
28.81
25.94
23.50
22.30
22.59
23.99
25.81
27.41
28.47
29.08
29.51
29.93
30.14
29.67
27.91
24.46
19.33
12.94
5.93
-1.00
-7.37
-13.08
-18.29
-23.49
-29.30
-36.38
-45.15
-55.53
-66.77
-77.28
-84.92
-87.45
-83.37
-72.47
-56.04
-36.44
-16.30
2.22
18.02
30.92
41.25
49.36
55.36
59.20
60.92
60.98
60.16
59.32
59.10
59.62
60.53
61.24
61.21
60.18
58.33
56.08
53.88
51.89
49.89
47.33
43.56
38.20
31.33
23.51
15.60
8.32
1.96
-3.73
-9.45
-16.01
-24.06
-33.89
-45.22
-57.27
-68.76
-78.08
-83.64
-84.21
-79.30
-69.31
-55.48
-39.44
-22.75
-6.54
8.63
22.51
34.92
45.47
53.59
58.87
61.25
61.33
60.11
58.75
58.02
58.09
58.53
58.67
57.93
56.21
53.86
51.43
49.32
47.53
45.63
42.96
38.95
33.40
26.56
19.05
11.51
4.44
-2.03
-8.21
-14.61
-21.86
-30.44
-40.64
-52.34
-64.89
-77.06
-87.06
-92.91
-92.91
-86.19
-73.07
-54.97
-34.07
-12.67
7.28
24.48
38.25
48.44
55.13
58.67
59.58
58.63
56.71
54.71
53.28
52.63
52.62
52.78
52.64
51.98
50.86
49.55
48.25
46.91
45.10
42.19
37.63
31.27
23.36
14.49
5.30
-3.71
-12.30
-20.50
-28.52
-36.72
-45.50
-55.18
-65.67
-76.26
-85.57
-91.80
-93.21
-88.76
-78.37
-62.96
-44.06
-23.34
-2.24
18.05
36.56
52.40
64.73
72.99
77.09
77.53
75.33
71.87
68.40
65.86
64.62
64.50
64.94
65.21
64.74
63.27
60.86
57.76
54.19
50.15
45.40
39.56
32.41
23.99
14.75
5.32
-3.70
-11.99
-19.59
-26.80
-34.06
-41.86
-50.65
-60.82
-72.46
-85.02
-97.11
-106.58
-111.00
-108.48
-98.35
-81.49
-60.00
-36.48
-13.28
8.01
26.59
42.21
54.80
64.34
70.78
74.25
75.17
74.24
72.33
70.24
68.56
67.56
67.15
66.99
66.64
65.77
64.21
61.98
59.28
56.29
53.07
49.46
45.16
39.77
33.02
24.92
15.85
6.41
-2.73
-11.14
-18.70
-25.67
-32.52
-39.83
-48.12
-57.81
-69.00
-81.28
-93.51
-103.81
-109.94
-109.91
-102.68
-88.57
-69.18
-46.85
-23.98
-2.44
16.67
32.87
46.08
56.37
63.90
68.87
71.58
72.46
71.99
70.69
69.03
67.39
66.03
65.05
64.36
63.76
62.98
61.77
59.97
57.49
54.32
50.51
46.08
41.05
35.36
28.96
21.83
14.07
5.86
-2.46
-10.55
-18.17
-25.26
-31.94
-38.58
-45.67
-53.73
-63.19
-74.05
-85.71
-96.80
-105.30
-109.04
-106.35
-96.61
-80.56
-60.09
-37.63
-15.50
4.59
21.77
35.85
46.95
55.34
61.22
64.78
66.28
66.15
64.89
63.06
61.11
59.31
57.75
56.42
55.20
54.01
52.74
51.26
49.43
47.11
44.19
40.61
36.32
31.32
25.67
19.46
12.84
6.02
-0.77
-7.34
-13.57
-19.43
-24.96
-30.26
-35.54
-41.11
-47.51
-55.26
-64.68
-75.51
-86.60
-96.03
-101.49
-101.02
-93.76
-80.23
-62.18
-42.01
-21.98
-3.63
12.30
25.68
36.56
44.97
50.83
54.14
55.12
54.31
52.44
50.25
48.31
46.87
45.96
45.46
45.22
45.08
44.84
44.30
43.18
41.24
38.36
34.62
30.21
25.39
20.36
15.18
9.78
4.07
-1.99
-8.26
-14.56
-20.68
-26.54
-32.23
-38.00
-44.21
-51.27
-59.44
-68.58
-78.00
-86.38
-92.03
-93.26
-88.99
-79.09
-64.47
-46.83
-28.15
-10.14
6.03
19.78
30.92
39.47
45.47
48.96
50.12
49.35
47.25
44.57
42.01
40.12
39.11
38.89
39.10
39.24
38.90
37.80
35.93
33.45
30.55
27.34
23.74
19.57
14.62
8.81
2.24
-4.81
-11.99
-19.00
-25.62
-31.78
-37.55
-43.11
-48.86
-55.34
-63.13
-72.57
-83.43
-94.67
-104.46
-110.55
-111.00
-104.81
-92.32
-75.07
-55.34
-35.39
-16.88
-0.66
13.13
24.71
34.33
42.14
48.12
52.25
54.62
55.47
55.22
54.36
53.37
52.60
52.19
52.06
51.97
51.62
50.74
49.20
47.01
44.30
41.19
37.70
33.68
28.87
23.09
16.29
8.77
0.98
-6.58
-13.57
-19.88
-25.67
-31.22
-36.96
-43.33
-50.82
-59.72
-69.92
-80.65
-90.39
-97.22
-99.28
-95.47
-85.81
-71.40
-54.06
-35.74
-18.07
-2.05
11.88
23.65
33.30
40.86
46.36
49.92
51.79
52.37
52.10
51.34
50.37
49.37
48.47
47.81
47.49
47.49
47.59
47.38
46.41
44.35
41.16
37.04
32.36
27.42
22.38
17.16
11.61
5.57
-0.96
-7.76
-14.55
-21.00
-27.00
-32.62
-38.17
-44.14
-50.97
-58.90
-67.76
-76.88
-85.01
-90.63
-92.24
-88.76
-79.96
-66.48
-49.76
-31.66
-13.96
1.99
15.41
26.09
34.15
39.74
43.02
44.20
43.63
41.88
39.69
37.78
36.62
36.37
36.76
37.34
37.63
37.28
36.20
34.48
32.29
29.80
27.06
23.94
20.25
15.75
10.31
4.03
-2.79
-9.76
-16.47
-22.73
-28.60
-34.36
-40.44
-47.31
-55.34
-64.61
-74.83
-85.11
-94.03
-99.86
-100.97
-96.33
-85.92
-70.72
-52.53
-33.42
-15.19
1.00
14.63
25.72
34.47
41.08
45.68
48.38
49.37
49.00
47.80
46.34
45.10
44.35
44.12
44.27
44.50
44.53
44.15
43.28
41.89
39.99
37.56
34.57
30.97
26.73
21.85
16.41
10.48
4.16
-2.41
-9.14
-15.93
-22.71
-29.46
-36.27
-43.38
-51.17
-60.07
-70.28
-81.51
-92.72
-102.19
-107.86
-107.94
-101.57
-89.12
-72.13
-52.67
-32.83
-14.12
2.63
17.15
29.41
39.46
47.27
52.84
56.33
58.07
58.56
58.38
58.05
57.92
58.08
58.44
58.78
58.91
58.72
58.12
56.99
55.13
52.33
48.48
43.72
38.36
32.79
27.22
21.63
15.78
9.39
2.36
-5.14
-12.74
-20.02
-26.66
-32.62
-38.14
-43.74
-50.09
-57.83
-67.30
-78.18
-89.35
-98.90
-104.60
-104.62
-98.04
-85.28
-67.89
-48.07
-28.02
-9.39
6.88
20.48
31.46
39.91
45.91
49.56
51.12
51.17
50.41
49.57
49.15
49.30
49.93
50.75
51.56
52.26
52.84
53.18
53.05
52.18
50.32
47.46
43.75
39.45
34.71
29.48
23.60
16.86
9.27
1.11
-7.11
-14.75
-21.40
-26.92
-31.58
-35.97
-40.80
-46.73
-54.16
-63.04
-72.67
-81.75
-88.52
-91.13
-88.19
-79.27
-65.11
-47.42
-28.41
-10.12
6.02
19.33
29.74
37.40
42.51
45.23
45.77
44.55
42.22
39.56
37.36
36.16
36.13
37.11
38.63
40.12
41.06
41.12
40.16
38.23
35.49
32.09
28.15
23.72
18.80
13.33
7.30
0.77
-6.10
-13.05
-19.78
-26.09
-31.95
-37.54
-43.18
-49.30
-56.35
-64.70
-74.47
-85.22
-95.84
-104.51
-109.07
-107.67
-99.45
-84.89
-65.70
-44.28
-22.96
-3.46
13.33
27.24
38.37
46.94
53.07
56.87
58.57
58.57
57.43
55.77
54.12
52.86
52.11
51.80
51.74
51.69
51.44
50.79
49.57
47.58
44.68
40.78
35.93
30.26
24.00
17.31
10.30
3.09
-4.18
-11.30
-18.07
-24.40
-30.40
-36.29
-42.45
-49.21
-56.89
-65.67
-75.49
-85.78
-95.33
-102.31
-104.73
-101.07
-90.92
-75.19
-55.88
-35.37
-15.70
1.95
17.20
30.19
41.06
49.81
56.24
60.20
61.85
61.68
60.43
58.85
57.45
56.49
55.97
55.81
55.85
55.93
55.87
55.40
54.23
52.11
48.95
44.80
39.83
34.25
28.22
21.84
15.18
8.25
1.12
-6.14
-13.37
-20.42
-27.14
-33.42
-39.39
-45.34
-51.81
-59.34
-68.27
-78.39
-88.71
-97.54
-102.78
-102.55
-95.86
-82.93
-65.26
-45.06
-24.64
-5.80
10.52
24.04
34.88
43.14
48.86
52.00
52.74
51.56
49.21
46.63
44.59
43.59
43.73
44.72
46.03
47.05
47.27
46.44
44.59
41.93
38.77
35.26
31.39
27.02
21.96
16.17
9.80
3.13
-3.51
-9.85
-15.80
-21.46
-27.04
-32.87
-39.32
-46.74
-55.33
-64.89
-74.77
-83.69
-89.99
-92.04
-88.69
-79.71
-65.92
-48.92
-30.62
-12.73
3.57
17.63
29.15
37.93
43.78
46.66
46.78
44.76
41.58
38.34
36.00
35.12
35.67
37.11
38.60
39.30
38.66
36.60
33.46
29.86
26.38
23.30
20.51
17.58
13.96
9.22
3.19
-3.97
-11.89
-20.07
-28.04
-35.47
-42.29
-48.68
-55.10
-62.11
-70.24
-79.66
-89.92
-99.83
-107.56
-111.03
-108.55
-99.44
-84.29
-64.91
-43.65
-22.73
-3.62
13.15
27.68
40.28
51.07
59.93
66.63
71.12
73.60
74.52
74.39
73.72
72.88
72.09
71.42
70.76
69.87
68.40
66.05
62.71
58.46
53.55
48.24
42.70
36.94
30.89
24.48
17.70
10.62
3.37
-3.91
-11.08
-18.05
-24.84
-31.58
-38.54
-46.17
-54.95
-65.19
-76.59
-88.09
-97.83
-103.63
-103.64
-97.02
-84.25
-66.90
-47.12
-26.85
-7.51
10.10
25.59
38.55
48.59
55.38
58.89
59.50
57.97
55.27
52.34
49.92
48.43
47.86
47.91
48.08
47.88
46.98
45.31
43.01
40.25
37.10
33.42
28.98
23.56
17.15
9.99
2.53
-4.76
-11.52
-17.66
-23.30
-28.74
-34.31
-40.38
-47.23
-55.06
-63.75
-72.67
-80.61
-85.86
-86.65
-81.76
-71.03
-55.45
-36.88
-17.40
1.21
17.81
31.84
43.07
51.36
56.62
58.89
58.53
56.28
53.11
50.04
47.82
46.84
47.03
48.01
49.20
50.04
50.05
48.98
46.80
43.64
39.72
35.28
30.45
25.20
19.37
12.76
5.27
-2.96
-11.61
-20.18
-28.25
-35.63
-42.39
-48.88
-55.60
-63.08
-71.77
-81.88
-93.09
-104.33
-113.78
-119.11
-118.18
-109.84
-94.39
-73.57
-50.03
-26.41
-4.67
14.19
29.93
42.71
52.66
59.88
64.52
66.90
67.58
67.15
66.15
64.91
63.62
62.37
61.20
60.17
59.21
58.18
56.85
54.98
52.43
49.17
45.28
40.87
35.98
30.61
24.73
18.28
11.30
3.95
-3.55
-10.92
-17.92
-24.46
-30.62
-36.63
-42.91
-49.91
-58.05
-67.46
-77.70
-87.61
-95.37
-98.88
-96.44
-87.34
-72.16
-52.64
-31.15
-9.96
9.26
25.58
38.70
48.66
55.57
59.61
61.12
60.57
58.66
56.18
53.80
51.97
50.83
50.26
50.02
49.91
49.82
49.73
49.54
49.10
48.13
46.33
43.48
39.53
34.64
29.09
23.17
17.07
10.80
4.28
-2.63
-9.91
-17.31
-24.37
-30.65
-35.96
-40.54
-45.08
-50.47
-57.50
-66.39
-76.56
-86.65
-94.70
-98.64
-96.91
-88.91
-75.19
-57.30
-37.39
-17.54
0.59
15.97
28.11
36.86
42.28
44.64
44.46
42.57
39.91
37.34
35.49
34.60
34.58
35.13
35.89
36.48
36.59
36.05
34.85
33.07
30.84
28.22
25.12
21.38
16.83
11.46
5.50
-0.62
-6.43
-11.58
-16.05
-20.10
-24.19
-28.89
-34.66
-41.81
-50.38
-59.89
-69.38
-77.34
-82.01
-81.84
-75.98
-64.65
-49.10
-31.26
-13.17
3.53
17.86
29.39
38.02
43.70
46.42
46.32
43.89
40.03
35.90
32.62
30.90
30.76
31.65
32.66
32.91
31.99
30.00
27.48
25.02
22.90
20.87
18.31
14.46
8.90
1.78
-6.25
-14.27
-21.60
-27.95
-33.53
-38.82
-44.37
-50.65
-58.05
-66.86
-77.10
-88.27
-99.11
-107.61
-111.51
-108.96
-99.25
-83.13
-62.58
-40.19
-18.32
1.39
18.14
31.74
42.23
49.63
53.96
55.44
54.62
52.41
49.85
47.81
46.75
46.59
46.87
47.05
46.70
45.64
43.96
41.92
39.72
37.47
35.03
32.09
28.22
23.08
16.62
9.09
1.04
-6.92
-14.27
-20.83
-26.75
-32.39
-38.23
-44.76
-52.43
-61.48
-71.76
-82.44
-91.98
-98.24
-99.15
-93.39
-80.94
-63.17
-42.44
-21.32
-1.83
14.87
28.48
39.15
47.07
52.30
54.86
55.02
53.39
50.96
48.78
47.62
47.76
48.87
50.27
51.24
51.32
50.37
48.56
46.18
43.45
40.47
37.13
33.26
28.66
23.21
16.96
10.17
3.25
-3.39
-9.40
-14.72
-19.58
-24.43
-29.79
-36.15
-43.78
-52.70
-62.56
-72.46
-81.05
-86.60
-87.47
-82.57
-71.80
-56.17
-37.53
-18.09
0.18
15.91
28.41
37.47
43.13
45.58
45.13
42.37
38.20
33.73
30.07
27.98
27.65
28.68
30.25
31.51
31.90
31.36
30.16
28.69
27.09
25.15
22.35
18.19
12.52
5.63
-1.78
-8.90
-15.11
-20.20
-24.42
-28.32
-32.60
-37.91
-44.64
-52.74
-61.45
-69.41
-74.80
-75.88
-71.52
-61.69
-47.47
-30.67
-13.32
2.98
17.21
28.94
37.98
44.24
47.63
48.26
46.59
43.44
39.85
36.78
34.83
34.08
34.14
34.41
34.25
33.30
31.54
29.17
26.52
23.74
20.73
17.10
12.41
6.37
-0.97
-9.15
-17.49
-25.31
-32.20
-38.22
-43.82
-49.74
-56.79
-65.58
-76.18
-87.93
-99.37
-108.42
-112.90
-111.21
-102.82
-88.50
-70.02
-49.51
-28.86
-9.28
8.68
24.77
38.73
50.07
58.27
63.01
64.51
63.58
61.35
58.96
57.10
55.91
55.09
54.14
52.71
50.74
48.50
46.29
44.27
42.31
39.98
36.78
32.32
26.51
19.65
12.25
4.84
-2.18
-8.65
-14.67
-20.52
-26.62
-33.47
-41.60
-51.39
-62.77
-74.86
-85.91
-93.53
-95.39
-90.04
-77.48
-59.17
-37.59
-15.36
5.42
23.54
38.58
50.58
59.62
65.73
68.90
69.35
67.67
64.78
61.78
59.54
58.49
58.47
58.90
59.13
58.65
57.38
55.56
53.50
51.35
48.93
45.79
41.42
35.46
27.92
19.15
9.77
0.46
-8.19
-15.82
-22.40
-28.24
-33.89
-40.00
-47.18
-55.75
-65.59
-75.98
-85.57
-92.56
-95.11
-91.87
-82.46
-67.61
-49.04
-28.96
-9.42
8.05
22.66
34.23
42.81
48.51
51.40
51.64
49.65
46.14
42.07
38.41
35.79
34.39
33.92
33.86
33.75
33.41
32.93
32.49
32.05
31.23
29.38
25.81
20.24
12.89
4.50
-3.97
-11.66
-18.20
-23.73
-28.88
-34.51
-41.40
-50.03
-60.31
-71.39
-81.73
-89.33
-92.17
-88.78
-78.85
-63.30
-44.07
-23.51
-3.74
13.84
28.58
40.28
48.92
54.44
56.85
56.44
53.89
50.32
46.85
44.39
43.28
43.30
43.83
44.15
43.73
42.36
40.16
37.52
34.81
32.20
29.44
26.02
21.26
14.75
6.56
-2.69
-12.06
-20.68
-28.20
-34.78
-41.07
-47.85
-55.79
-65.25
-76.22
-88.19
-100.04
-109.99
-115.96
-116.01
-109.05
-95.27
-76.15
-54.03
-31.32
-9.89
9.19
25.56
39.16
49.91
57.63
62.20
63.78
62.97
60.73
58.12
56.01
54.83
54.56
54.78
54.99
54.79
53.98
52.59
50.75
48.56
46.03
42.97
39.08
34.08
27.82
20.42
12.25
3.81
-4.37
-11.92
-18.65
-24.64
-30.21
-35.93
-42.55
-50.80
-60.99
-72.69
-84.47
-94.10
-99.09
-97.53
-88.70
-73.38
-53.49
-31.53
-9.81
10.01
27.08
41.12
52.15
60.23
65.41
67.86
67.96
66.39
63.95
61.41
59.29
57.73
56.64
55.77
54.90
53.88
52.68
51.24
49.51
47.39
44.79
41.58
37.61
32.72
26.76
19.67
11.61
2.95
-5.79
-14.04
-21.43
-27.89
-33.65
-39.23
-45.26
-52.35
-60.87
-70.76
-81.36
-91.31
-98.79
-101.87
-99.13
-90.09
-75.48
-57.03
-36.89
-17.08
1.01
16.60
29.41
39.32
46.19
49.93
50.64
48.90
45.68
42.15
39.30
37.60
36.93
36.76
36.46
35.66
34.40
32.98
31.74
30.70
29.52
27.53
24.07
18.82
11.97
4.23
-3.47
-10.36
-16.10
-20.90
-25.40
-30.45
-36.85
-45.09
-55.10
-66.15
-76.79
-85.08
-89.03
-87.21
-79.21
-65.77
-48.56
-29.62
-10.85
6.40
21.32
33.52
42.75
48.88
51.92
52.20
50.37
47.35
44.15
41.54
39.89
39.11
38.80
38.40
37.52
36.04
34.08
31.88
29.55
26.95
23.65
19.16
13.20
5.88
-2.29
-10.57
-18.29
-25.18
-31.39
-37.51
-44.27
-52.37
-62.17
-73.59
-85.91
-97.74
-107.16
-112.09
-110.86
-102.77
-88.40
-69.48
-48.33
-27.16
-7.54
9.78
24.71
37.33
47.65
55.43
60.45
62.75
62.82
61.52
59.75
58.13
56.79
55.35
53.34
50.48
46.96
43.30
40.13
37.76
35.98
34.06
31.10
26.39
19.73
11.53
2.62
-6.06
-13.83
-20.47
-26.31
-32.09
-38.69
-46.83
-56.75
-68.02
-79.48
-89.43
-95.98
-97.54
-93.25
-83.20
-68.44
-50.62
-31.58
-12.92
4.21
19.18
31.67
41.58
48.85
53.55
55.89
56.31
55.42
53.83
52.09
50.49
49.03
47.58
45.97
44.19
42.36
40.64
39.11
37.53
35.39
32.08
27.11
20.45
12.55
4.22
-3.71
-10.76
-16.94
-22.71
-28.77
-35.79
-44.20
-54.01
-64.69
-75.09
-83.51
-88.06
-87.22
-80.39
-68.07
-51.84
-33.72
-15.60
1.19
15.95
28.42
38.41
45.74
50.28
52.13
51.82
50.16
48.10
46.30
45.03
44.14
43.24
41.98
40.24
38.16
35.98
33.83
31.54
28.73
24.90
19.71
13.15
5.53
-2.57
-10.56
-18.01
-24.83
-31.24
-37.77
-45.05
-53.58
-63.46
-74.06
-84.07
-91.63
-94.84
-92.31
-83.70
-69.75
-52.14
-32.88
-13.76
3.98
19.72
33.23
44.36
52.88
58.56
61.40
61.76
60.38
58.19
56.01
54.31
53.08
51.98
50.57
48.61
46.18
43.62
41.30
39.35
37.54
35.29
31.89
26.85
20.04
11.78
2.71
-6.46
-15.15
-23.13
-30.43
-37.37
-44.43
-52.19
-61.19
-71.63
-83.12
-94.49
-103.80
-108.86
-107.79
-99.85
-85.67
-67.18
-46.85
-26.97
-8.94
6.82
20.52
32.51
42.81
51.13
57.05
60.46
61.68
61.43
60.60
60.03
60.41
62.18
65.55
70.40
76.16
81.86
86.27
88.25
87.23
83.34
77.46
70.86
64.74
59.75
55.75
51.87
46.86
39.58
29.54
16.96
2.72
-12.10
-26.71
-40.82
-54.60
-68.45
-82.49
-96.26
-108.61
-117.89
-122.39
-120.93
-113.24
-100.07
-83.00
-63.92
-44.53
-26.04
-9.08
5.99
18.88
29.24
36.71
41.14
42.84
42.53
41.16
39.64
38.54
37.92
37.49
36.80
35.54
33.69
31.51
29.30
27.26
25.30
23.09
20.29
16.65
12.18
7.06
1.65
-3.72
-8.77
-13.43
-17.83
-22.34
-27.50
-33.91
-42.01
-51.96
-63.59
-76.25
-88.87
-99.94
-107.59
-110.08
-106.20
-95.73
-79.67
-59.91
-38.71
-18.01
0.96
17.73
32.25
44.57
54.57
61.99
66.66
68.69
68.52
66.84
64.42
61.87
59.52
57.49
55.65
53.88
52.03
50.10
48.07
45.91
43.43
40.39
36.56
31.82
26.24
20.01
13.35
6.42
-0.67
-7.84
-14.97
-21.93
-28.54
-34.76
-40.64
-46.38
-52.34
-58.95
-66.69
-75.79
-86.05
-96.54
-105.57
-111.07
-111.13
-104.66
-91.85
-74.10
-53.50
-32.26
-12.02
6.30
22.35
36.02
47.20
55.70
61.44
64.59
65.67
65.38
64.50
63.61
63.00
62.73
62.65
62.59
62.35
61.75
60.63
58.87
56.43
53.36
49.74
45.65
41.07
35.89
30.03
23.41
16.11
8.32
0.32
-7.66
-15.44
-22.96
-30.34
-37.77
-45.61
-54.23
-63.88
-74.46
-85.25
-94.89
-101.61
-103.66
-99.91
-90.25
-75.68
-57.97
-39.11
-20.72
-3.80
11.26
24.36
35.38
44.12
50.29
53.82
54.97
54.38
52.88
51.20
49.80
48.80
48.04
47.33
46.52
45.61
44.66
43.70
42.60
41.12
38.97
35.93
31.97
27.20
21.83
16.03
9.91
3.49
-3.19
-10.03
-16.86
-23.48
-29.77
-35.74
-41.59
-47.67
-54.43
-62.26
-71.26
-80.93
-90.06
-96.91
-99.57
-96.69
-87.89
-73.98
-56.63
-37.87
-19.45
-2.49
12.40
24.99
35.09
42.50
47.09
48.96
48.58
46.81
44.60
42.82
41.93
41.88
42.32
42.69
42.59
41.90
40.77
39.41
37.94
36.24
34.00
30.85
26.58
21.20
14.98
8.29
1.47
-5.25
-11.72
-17.89
-23.72
-29.25
-34.66
-40.31
-46.66
-54.09
-62.58
-71.53
-79.66
-85.34
-86.99
-83.63
-75.17
-62.46
-46.97
-30.28
-13.76
1.61
15.25
26.70
35.56
41.52
44.49
44.76
43.03
40.26
37.33
34.88
33.18
32.09
31.34
30.59
29.59
28.25
26.61
24.69
22.50
19.91
16.65
12.43
7.06
0.56
-6.81
-14.57
-22.19
-29.30
-35.73
-41.64
-47.35
-53.37
-60.18
-68.07
-77.03
-86.51
-95.38
-102.10
-105.02
-102.83
-94.98
-81.84
-64.64
-45.07
-24.89
-5.64
11.58
26.01
37.26
45.24
50.21
52.68
53.40
53.11
52.42
51.70
51.06
50.46
49.81
49.01
47.96
46.62
44.97
43.02
40.77
38.18
35.01
31.02
25.92
19.59
12.16
4.00
-4.35
-12.39
-19.80
-26.59
-33.08
-39.83
-47.47
-56.53
-67.22
-79.10
-91.03
-101.23
-107.64
-108.51
-102.92
-91.06
-74.15
-54.09
-32.84
-12.06
7.16
24.21
38.76
50.58
59.48
65.33
68.24
68.64
67.33
65.30
63.50
62.52
62.40
62.69
62.73
61.99
60.34
58.04
55.49
52.94
50.23
46.89
42.36
36.29
28.78
20.31
11.55
3.10
-4.69
-11.85
-18.68
-25.63
-33.17
-41.68
-51.40
-62.27
-73.82
-85.03
-94.38
-100.10
-100.66
-95.20
-83.85
-67.72
-48.56
-28.30
-8.62
9.23
24.42
36.45
45.02
50.07
51.89
51.15
48.77
45.76
42.91
40.73
39.33
38.59
38.31
38.29
38.40
38.51
38.50
38.13
37.10
35.11
31.86
27.23
21.28
14.29
6.71
-1.01
-8.54
-15.85
-23.21
-31.13
-40.14
-50.55
-62.15
-74.05
-84.66
-92.02
-94.27
-90.24
-79.83
-64.08
-44.81
-24.10
-3.76
14.92
31.19
44.59
54.74
61.32
64.25
63.86
60.97
56.76
52.41
48.76
46.18
44.46
43.11
41.64
39.72
37.35
34.69
31.93
29.05
25.75
21.60
16.16
9.32
1.32
-7.27
-15.75
-23.67
-30.91
-37.79
-44.94
-53.03
-62.59
-73.70
-85.81
-97.66
-107.37
-112.89
-112.48
-105.32
-91.74
-73.15
-51.57
-29.07
-7.32
12.59
30.02
44.63
56.15
64.39
69.32
71.24
70.79
68.91
66.49
64.22
62.37
60.80
59.18
57.22
54.80
52.02
49.08
46.13
43.13
39.80
35.73
30.53
24.04
16.35
7.92
-0.59
-8.55
-15.60
-21.81
-27.74
-34.26
-42.22
-52.16
-63.99
-76.82
-89.01
-98.48
-103.16
-101.54
-93.11
-78.51
-59.30
-37.52
-15.15
6.19
25.49
42.17
55.93
66.57
74.06
78.49
80.18
79.69
77.70
74.96
72.15
69.70
67.79
66.28
64.88
63.26
61.20
58.63
55.62
52.29
48.69
44.76
40.33
35.16
29.10
22.06
14.20
5.85
-2.53
-10.54
-17.92
-24.70
-31.17
-37.77
-44.97
-53.23
-62.79
-73.51
-84.71
-95.04
-102.67
-105.66
-102.57
-92.96
-77.56
-58.08
-36.71
-15.49
4.04
21.01
34.99
45.82
53.41
57.79
59.23
58.31
55.95
53.16
50.82
49.38
48.84
48.80
48.69
48.04
46.63
44.52
41.97
39.17
36.17
32.78
28.61
23.29
16.61
8.69
0.05
-8.62
-16.68
-23.73
-29.75
-35.09
-40.33
-46.18
-53.20
-61.72
-71.48
-81.60
-90.55
-96.44
-97.46
-92.48
-81.37
-65.10
-45.46
-24.51
-4.14
14.34
30.18
43.07
52.98
59.95
64.11
65.71
65.25
63.40
60.90
58.41
56.37
54.94
54.06
53.55
53.13
52.51
51.33
49.30
46.21
42.04
36.96
31.27
25.23
18.98
12.53
5.78
-1.32
-8.72
-16.27
-23.76
-30.98
-37.80
-44.18
-50.29
-56.51
-63.44
-71.66
-81.49
-92.56
-103.68
-112.85
-117.80
-116.64
-108.49
-93.81
-74.19
-51.84
-29.01
-7.42
11.90
28.48
42.13
52.79
60.40
65.09
67.24
67.47
66.57
65.26
63.95
62.78
61.77
60.87
60.17
59.78
59.70
59.65
59.14
57.63
54.70
50.36
44.87
38.74
32.43
26.19
20.03
13.82
7.38
0.72
-6.05
-12.74
-19.18
-25.34
-31.39
-37.62
-44.34
-51.91
-60.56
-70.32
-80.87
-91.30
-100.08
-105.34
-105.28
-98.87
-86.21
-68.55
-47.96
-26.65
-6.42
11.58
26.86
39.27
48.82
55.60
59.71
61.53
61.59
60.59
59.16
57.82
56.80
56.12
55.68
55.35
55.04
54.66
54.08
53.09
51.35
48.60
44.73
39.86
34.31
28.49
22.69
16.96
11.16
5.01
-1.63
-8.62
-15.62
-22.18
-27.99
-32.95
-37.33
-41.66
-46.61
-52.79
-60.48
-69.48
-78.82
-86.92
-91.84
-91.82
-85.89
-74.25
-58.19
-39.70
-20.83
-3.20
12.26
25.16
35.38
42.82
47.37
49.04
48.18
45.47
41.89
38.38
35.63
33.90
33.14
33.05
33.34
33.75
34.07
34.04
33.38
31.83
29.28
25.77
21.52
16.76
11.63
6.16
0.28
-6.02
-12.59
-19.14
-25.35
-31.06
-36.35
-41.57
-47.21
-53.72
-61.41
-70.27
-79.91
-89.38
-97.25
-101.77
-101.35
-95.00
-82.81
-66.02
-46.68
-27.04
-8.93
6.61
19.36
29.55
37.51
43.41
47.25
49.04
48.95
47.45
45.23
43.02
41.40
40.59
40.44
40.60
40.67
40.41
39.70
38.56
37.00
34.92
32.15
28.47
23.76
18.08
11.57
4.56
-2.64
-9.72
-16.46
-22.71
-28.49
-33.97
-39.52
-45.64
-52.83
-61.37
-71.06
-81.08
-89.99
-95.97
-97.33
-93.03
-83.06
-68.43
-50.88
-32.31
-14.36
1.94
16.13
28.15
38.09
46.05
52.09
56.30
58.80
59.80
59.57
58.48
56.95
55.36
53.99
52.97
52.22
51.49
50.50
48.98
46.80
43.93
40.40
36.24
31.49
26.16
20.29
13.98
7.34
0.49
-6.42
-13.24
-19.82
-26.03
-31.82
-37.23
-42.49
-48.03
-54.42
-62.22
-71.65
-82.22
-92.60
-100.72
-104.40
-101.99
-93.09
-78.66
-60.68
-41.46
-22.88
-6.09
8.52
21.01
31.41
39.70
45.75
49.56
51.29
51.37
50.34
48.77
47.19
45.98
45.28
45.04
44.98
44.78
44.16
43.01
41.33
39.17
36.51
33.20
29.04
23.90
17.80
10.97
3.78
-3.39
-10.23
-16.58
-22.43
-27.91
-33.30
-38.97
-45.36
-52.81
-61.36
-70.60
-79.45
-86.39
-89.74
-88.14
-81.05
-68.94
-53.18
-35.66
-18.18
-2.13
11.76
23.26
32.33
38.93
42.90
44.24
43.22
40.55
37.31
34.59
33.11
33.04
33.94
35.08
35.75
35.53
34.36
32.42
29.98
27.17
23.93
19.98
14.96
8.64
1.10
-7.27
-15.82
-23.94
-31.30
-37.98
-44.40
-51.13
-58.63
-67.15
-76.65
-86.78
-96.76
-105.31
-110.79
-111.54
-106.43
-95.26
-78.92
-59.21
-38.17
-17.56
1.46
18.35
32.95
45.18
54.88
61.84
65.93
67.33
66.48
64.14
61.22
58.53
56.64
55.69
55.48
55.55
55.40
54.62
52.94
50.32
46.81
42.50
37.46
31.73
25.23
17.95
9.92
1.40
-7.18
-15.33
-22.75
-29.44
-35.80
-42.49
-50.23
-59.63
-70.99
-84.11
-98.08
-111.25
-121.41
-126.32
-124.43
-115.36
-100.16
-80.85
-59.77
-38.91
-19.51
-2.11
13.10
25.96
36.20
43.56
48.03
49.98
50.25
49.82
49.59
50.04
51.09
52.25
52.94
52.84
52.09
51.08
50.24
49.61
48.71
46.74
42.94
36.98
29.12
20.09
10.79
1.94
-6.13
-13.52
-20.71
-28.41
-37.33
-47.98
-60.33
-73.50
-85.80
-94.95
-98.72
-95.61
-85.38
-69.19
-49.13
-27.62
-6.68
12.43
29.22
43.61
55.52
64.68
70.64
73.17
72.46
69.32
64.97
60.67
57.34
55.42
54.81
55.12
55.91
56.72
57.21
57.13
56.19
54.10
50.57
45.40
38.51
30.07
20.49
10.39
0.47
-8.73
-16.91
-24.21
-31.08
-38.20
-46.27
-55.85
-67.07
-79.34
-91.24
-100.61
-105.02
-102.58
-92.63
-75.93
-54.53
-30.96
-7.52
14.27
33.63
50.31
64.14
74.84
82.12
85.93
86.63
85.04
82.21
79.11
76.34
74.07
72.10
70.02
67.49
64.31
60.54
56.38
52.04
47.69
43.21
38.35
32.67
25.80
17.57
8.16
-1.88
-11.88
-21.25
-29.75
-37.55
-45.10
-52.98
-61.74
-71.77
-83.22
-95.84
-108.79
-120.53
-128.92
-131.73
-127.23
-114.87
-95.46
-71.01
-44.12
-17.29
7.50
28.97
46.43
59.55
68.23
72.67
73.40
71.38
67.91
64.33
61.71
60.58
60.85
61.97
63.15
63.74
63.38
62.04
59.95
57.33
54.34
50.92
46.90
42.02
36.11
29.15
21.37
13.23
5.21
-2.27
-9.15
-15.68
-22.43
-30.07
-39.11
-49.67
-61.23
-72.59
-81.95
-87.26
-86.76
-79.55
-65.83
-47.03
-25.33
-3.16
17.44
35.07
49.01
59.01
65.07
67.38
66.40
62.89
57.99
52.95
48.82
46.20
45.08
44.91
44.96
44.66
43.78
42.55
41.34
40.34
39.30
37.53
34.18
28.61
20.76
11.26
1.17
-8.41
-16.81
-24.04
-30.61
-37.31
-44.88
-53.94
-64.75
-77.07
-89.79
-100.88
-107.67
-107.76
-99.93
-84.76
-64.48
-42.07
-20.17
-0.26
17.33
32.80
46.22
57.07
64.50
67.93
67.48
64.07
59.05
53.72
48.93
45.03
41.88
39.21
36.76
34.47
32.42
30.72
29.27
27.70
25.41
21.74
16.27
9.01
0.45
-8.59
-17.25
-24.96
-31.64
-37.63
-43.65
-50.45
-58.63
-68.38
-79.28
-90.26
-99.60
-105.34
-105.71
-99.74
-87.53
-70.29
-49.96
-28.68
-8.32
9.78
24.82
36.42
44.47
49.06
50.49
49.30
46.28
42.33
38.34
34.92
32.38
30.63
29.36
28.23
27.03
25.67
24.09
22.20
19.69
16.23
11.62
5.89
-0.60
-7.36
-13.94
-20.10
-25.96
-31.87
-38.40
-46.09
-55.29
-65.83
-76.82
-86.57
-92.93
-93.82
-87.98
-75.44
-57.51
-36.45
-14.63
5.90
23.84
38.51
49.60
57.03
60.86
61.40
59.33
55.67
51.53
47.90
45.29
43.69
42.67
41.70
40.36
38.59
36.56
34.54
32.60
30.51
27.73
23.69
18.02
10.82
2.63
-5.82
-13.87
-21.20
-27.97
-34.75
-42.28
-51.21
-61.69
-73.14
-84.17
-92.81
-96.94
-95.00
-86.46
-71.99
-53.32
-32.63
-11.92
7.31
24.20
38.28
49.25
56.80
60.77
61.34
59.13
55.24
50.88
47.05
44.27
42.45
41.16
39.88
38.36
36.64
35.03
33.77
32.84
31.81
29.97
26.67
21.53
14.68
6.59
-2.02
-10.57
-18.69
-26.31
-33.56
-40.72
-48.19
-56.34
-65.44
-75.30
-85.08
-93.23
-97.82
-97.08
-90.11
-77.22
-59.86
-40.10
-19.97
-1.02
15.90
30.34
42.00
50.54
55.59
57.09
55.46
51.67
47.01
42.74
39.67
38.03
37.50
37.44
37.29
36.77
35.88
34.81
33.60
32.07
29.72
26.01
20.60
13.58
5.42
-3.10
-11.28
-18.72
-25.41
-31.67
-38.00
-44.90
-52.73
-61.61
-71.30
-81.04
-89.46
-94.78
-95.18
-89.33
-76.95
-58.97
-37.37
-14.60
7.02
25.87
41.16
52.74
60.82
65.63
67.33
66.18
62.67
57.69
52.38
47.85
44.83
43.48
43.38
43.83
44.16
43.97
43.18
41.86
40.09
37.79
34.77
30.81
25.78
19.71
12.78
5.25
-2.57
-10.36
-17.86
-24.86
-31.31
-37.39
-43.50
-50.25
-58.23
-67.76
-78.54
-89.51
-98.87
-104.45
-104.32
-97.41
-83.88
-65.10
-43.26
-20.72
0.59
19.41
35.17
47.74
57.18
63.57
67.01
67.83
66.55
63.97
60.90
58.09
55.94
54.57
53.84
53.46
53.14
52.59
51.60
50.02
47.78
44.92
41.47
37.46
32.85
27.56
21.48
14.59
7.00
-1.03
-9.12
-16.93
-24.13
-30.60
-36.41
-41.93
-47.73
-54.49
-62.71
-72.32
-82.48
-91.52
-97.33
-97.95
-92.22
-80.24
-63.41
-43.89
-23.93
-5.32
11.00
24.64
35.53
43.50
48.28
49.77
48.27
44.67
40.27
36.33
33.71
32.61
32.69
33.30
33.86
34.04
33.78
33.14
32.14
30.67
28.46
25.20
20.65
14.77
7.79
0.10
-7.74
-15.23
-22.07
-28.28
-34.13
-40.13
-46.88
-54.86
-64.28
-74.82
-85.52
-94.82
-100.74
-101.48
-95.89
-83.93
-66.76
-46.43
-25.28
-5.30
12.16
26.53
37.72
45.78
50.81
52.89
52.35
49.78
46.12
42.30
39.08
36.81
35.40
34.50
33.77
32.97
32.04
31.08
30.12
29.08
27.75
25.78
22.82
18.57
12.92
6.01
-1.73
-9.75
-17.47
-24.51
-30.82
-36.63
-42.39
-48.69
-56.13
-65.10
-75.56
-86.74
-97.04
-104.30
-106.36
-101.72
-90.17
-72.82
-51.78
-29.45
-7.89
11.54
28.16
41.76
52.26
59.57
63.73
64.96
63.86
61.31
58.32
55.72
53.97
53.11
52.80
52.58
52.09
51.10
49.62
47.76
45.64
43.40
41.02
38.35
35.14
30.97
25.52
18.65
10.63
1.98
-6.54
-14.36
-21.19
-27.17
-32.80
-38.76
-45.77
-54.34
-64.57
-75.93
-87.08
-96.06
-100.64
-98.99
-90.32
-75.19
-55.34
-33.22
-11.21
8.90
26.12
40.14
50.96
58.70
63.47
65.44
65.04
62.94
59.96
56.89
54.30
52.44
51.26
50.60
50.23
49.94
49.55
48.85
47.54
45.38
42.22
38.10
33.18
27.66
21.67
15.26
8.47
1.42
-5.66
-12.51
-18.88
-24.72
-30.14
-35.32
-40.53
-46.02
-52.16
-59.31
-67.67
-76.93
-85.97
-92.95
-95.68
-92.37
-82.40
-66.53
-46.75
-25.56
-5.24
12.67
27.47
39.02
47.44
52.81
55.24
54.98
52.59
48.89
44.90
41.57
39.53
38.96
39.63
40.97
42.35
43.23
43.26
42.27
40.20
37.10
33.08
28.32
23.06
17.48
11.61
5.36
-1.33
-8.44
-15.72
-22.82
-29.42
-35.46
-41.10
-46.79
-52.99
-60.13
-68.41
-77.75
-87.57
-96.66
-103.27
-105.41
-101.51
-90.94
-74.42
-53.80
-31.51
-9.83
9.66
26.17
39.50
49.67
56.69
60.53
61.30
59.47
55.90
51.68
47.91
45.36
44.31
44.59
45.68
46.94
47.80
47.85
46.87
44.74
41.51
37.28
32.24
26.61
20.56
14.20
7.57
0.68
-6.38
-13.41
-20.16
-26.43
-32.09
-37.19
-41.93
-46.67
-51.90
-58.17
-65.91
-75.08
-84.90
-93.76
-99.46
-99.82
-93.49
-80.44
-62.07
-40.70
-18.91
1.27
18.62
32.76
43.76
51.83
57.15
59.80
60.02
58.27
55.31
52.04
49.24
47.38
46.55
46.49
46.86
47.29
47.52
47.35
46.60
45.11
42.82
39.77
36.10
31.92
27.28
22.08
16.20
9.60
2.46
-4.88
-12.07
-18.88
-25.23
-31.23
-36.99
-42.75
-48.84
-55.69
-63.64
-72.56
-81.52
-88.82
-92.29
-90.11
-81.44
-66.82
-48.01
-27.35
-7.09
11.14
26.50
38.70
47.74
53.65
56.49
56.45
53.98
49.91
45.27
41.14
38.31
37.11
37.36
38.52
39.90
40.87
41.12
40.56
39.32
37.59
35.45
32.79
29.40
25.05
19.61
13.16
6.08
-1.15
-8.06
-14.37
-20.05
-25.25
-30.22
-35.20
-40.54
-46.67
-54.03
-62.80
-72.50
-81.76
-88.47
-90.42
-86.02
-75.04
-58.68
-39.15
-18.90
0.11
16.67
30.23
40.51
47.31
50.50
50.29
47.35
42.87
38.20
34.48
32.28
31.53
31.69
32.02
31.89
31.01
29.39
27.30
25.08
22.95
20.92
18.72
15.89
11.94
6.57
-0.18
-7.85
-15.68
-22.93
-29.12
-34.22
-38.58
-42.85
-47.76
-53.92
-61.69
-70.96
-80.93
-90.15
-96.62
-98.38
-94.04
-83.35
-67.25
-47.66
-26.83
-6.77
11.10
26.06
37.87
46.53
52.12
54.76
54.74
52.57
49.09
45.30
42.21
40.49
40.29
41.18
42.32
42.89
42.38
40.81
38.57
36.20
33.98
31.78
29.14
25.46
20.37
13.91
6.57
-0.99
-8.17
-14.67
-20.59
-26.30
-32.27
-38.99
-46.80
-55.87
-66.13
-77.04
-87.49
-95.80
-100.04
-98.56
-90.60
-76.62
-58.23
-37.71
-17.28
1.38
17.36
30.42
40.57
47.91
52.45
54.32
53.92
52.04
49.68
47.85
47.16
47.70
49.05
50.54
51.53
51.62
50.77
49.16
47.06
44.63
41.83
38.42
34.07
28.55
21.86
14.30
6.40
-1.28
-8.29
-14.49
-19.98
-25.07
-30.15
-35.64
-41.96
-49.47
-58.28
-67.90
-77.13
-84.08
-86.71
-83.42
-73.77
-58.66
-40.01
-20.16
-1.10
15.83
30.02
41.24
49.38
54.29
55.94
54.66
51.26
46.91
42.85
40.03
38.84
39.09
40.14
41.22
41.69
41.26
39.97
38.13
36.10
34.02
31.79
29.04
25.31
20.31
14.13
7.17
0.06
-6.64
-12.65
-18.01
-22.99
-27.93
-33.17
-39.00
-45.73
-53.49
-62.09
-70.70
-77.86
-81.73
-80.67
-73.85
-61.57
-45.21
-26.80
-8.39
8.46
22.77
34.12
42.35
47.37
49.22
48.20
45.00
40.62
36.24
32.82
30.85
30.27
30.62
31.25
31.66
31.58
30.97
29.91
28.45
26.52
23.94
20.42
15.74
9.78
2.74
-4.94
-12.64
-19.81
-26.15
-31.70
-36.87
-42.25
-48.48
-56.06
-65.20
-75.58
-86.28
-95.63
-101.58
-102.18
-96.23
-83.81
-66.25
-45.78
-24.73
-4.98
12.42
27.08
38.94
47.98
54.11
57.28
57.68
55.92
52.95
49.85
47.43
46.10
45.70
45.71
45.53
44.77
43.39
41.64
39.82
38.02
36.04
33.46
29.86
25.02
18.99
12.07
4.67
-2.84
-10.17
-17.13
-23.68
-29.90
-36.03
-42.54
-49.97
-58.75
-68.88
-79.64
-89.52
-96.53
-98.68
-94.64
-84.22
-68.39
-49.00
-28.22
-7.96
10.43
26.18
38.97
48.72
55.45
59.30
60.58
59.79
57.65
55.02
52.70
51.26
50.85
51.20
51.75
51.92
51.34
49.95
47.91
45.45
42.68
39.57
35.98
31.77
26.90
21.38
15.30
8.75
1.90
-5.08
-11.98
-18.63
-25.02
-31.31
-37.92
-45.34
-54.04
-64.09
-74.94
-85.24
-93.11
-96.52
-93.97
-85.03
-70.53
-52.25
-32.43
-13.07
4.40
19.24
31.19
40.15
46.08
48.98
49.09
47.02
43.73
40.38
37.99
37.13
37.79
39.47
41.36
42.82
43.43
43.16
42.16
40.56
38.39
35.53
31.78
27.01
21.20
14.51
7.23
-0.18
-7.25
-13.65
-19.21
-24.08
-28.59
-33.27
-38.64
-45.21
-53.20
-62.39
-71.92
-80.29
-85.56
-85.95
-80.34
-68.80
-52.58
-33.67
-14.25
3.93
19.81
32.95
43.22
50.58
54.95
56.36
55.11
51.90
47.73
43.66
40.54
38.84
38.52
39.21
40.33
41.26
41.51
40.74
38.85
35.90
32.10
27.69
22.87
17.72
12.24
6.40
0.23
-6.10
-12.40
-18.48
-24.24
-29.74
-35.13
-40.64
-46.57
-53.35
-61.38
-70.88
-81.53
-92.24
-101.15
-106.04
-105.00
-97.13
-82.88
-63.96
-42.68
-21.30
-1.44
16.01
30.73
42.59
51.48
57.30
60.13
60.40
58.94
56.67
54.49
52.92
52.14
52.02
52.30
52.66
52.87
52.72
52.01
50.59
48.35
45.25
41.36
36.79
31.62
25.93
19.79
13.22
6.35
-0.62
-7.44
-13.89
-19.85
-25.40
-30.79
-36.37
-42.56
-49.76
-58.24
-67.97
-78.34
-88.09
-95.35
-98.15
-94.95
-85.35
-70.23
-51.49
-31.46
-12.17
5.02
19.50
31.14
40.03
46.26
49.93
51.23
50.56
48.55
46.02
43.77
42.42
42.20
42.95
44.14
45.15
45.50
45.01
43.78
42.04
39.94
37.41
34.22
30.10
24.94
18.86
12.21
5.42
-1.14
-7.22
-12.78
-17.90
-22.71
-27.43
-32.41
-38.11
-45.06
-53.55
-63.32
-73.31
-81.71
-86.43
-85.70
-78.74
-66.03
-49.14
-30.24
-11.38
5.92
20.85
33.16
42.80
49.74
53.87
55.16
53.90
50.78
46.85
43.25
40.84
39.94
40.28
41.17
41.83
41.68
40.47
38.30
35.43
32.12
28.51
24.57
20.13
14.99
9.03
2.31
-4.96
-12.45
-19.82
-26.87
-33.50
-39.74
-45.71
-51.57
-57.63
-64.33
-72.13
-81.25
-91.24
-100.82
-108.01
-110.65
-107.19
-97.20
-81.54
-62.03
-40.83
-19.82
-0.36
16.77
31.09
42.36
50.50
55.68
58.34
59.13
58.75
57.82
56.83
56.13
55.97
56.43
57.37
58.46
59.27
59.41
58.71
57.17
54.90
52.00
48.47
44.20
39.12
33.22
26.59
19.39
11.84
4.12
-3.57
-11.04
-18.17
-24.91
-31.39
-37.94
-45.07
-53.28
-62.93
-73.79
-84.87
-94.35
-100.02
-99.89
-92.90
-79.37
-60.89
-39.86
-18.69
0.77
17.50
31.16
41.81
49.61
54.74
57.47
58.23
57.67
56.52
55.32
54.39
53.72
53.09
52.30
51.24
50.00
48.72
47.50
46.30
44.92
43.06
40.48
37.00
32.58
27.24
20.99
13.88
6.01
-2.38
-10.91
-19.10
-26.54
-32.97
-38.44
-43.29
-48.11
-53.58
-60.27
-68.44
-77.71
-86.97
-94.43
-98.00
-95.93
-87.45
-73.08
-54.57
-34.31
-14.57
2.99
17.58
28.99
37.29
42.58
44.94
44.72
42.56
39.45
36.45
34.35
33.47
33.65
34.42
35.25
35.81
35.98
35.80
35.37
34.71
33.71
32.09
29.43
25.34
19.53
12.06
3.41
-5.66
-14.30
-21.89
-28.29
-33.85
-39.31
-45.52
-53.17
-62.50
-73.02
-83.50
-92.09
-96.76
-95.82
-88.55
-75.34
-57.67
-37.60
-17.15
2.04
18.96
33.05
44.01
51.66
55.93
57.04
55.54
52.36
48.66
45.54
43.76
43.47
44.26
45.29
45.72
45.07
43.34
40.94
38.39
35.97
33.58
30.74
26.89
21.67
15.04
7.42
-0.61
-8.46
-15.72
-22.35
-28.58
-34.82
-41.54
-49.14
-57.90
-67.85
-78.62
-89.20
-97.97
-102.94
-102.30
-95.09
-81.56
-63.21
-42.30
-21.12
-1.40
15.95
30.63
42.58
51.72
57.90
61.04
61.40
59.65
56.79
53.83
51.52
50.17
49.66
49.55
49.42
48.93
48.00
46.74
45.28
43.64
41.64
38.88
34.88
29.33
22.27
14.12
5.56
-2.70
-10.18
-16.77
-22.69
-28.38
-34.31
-40.99
-48.77
-57.84
-67.92
-78.11
-86.88
-92.28
-92.56
-86.73
-74.97
-58.64
-39.70
-20.21
-1.76
14.59
28.20
38.59
45.36
48.27
47.51
43.85
38.59
33.15
28.73
25.94
24.71
24.51
24.70
24.81
24.66
24.31
23.82
23.11
21.85
19.61
16.00
10.91
4.54
-2.64
-10.01
-16.99
-23.25
-28.79
-33.94
-39.29
-45.47
-52.93
-61.66
-70.95
-79.41
-85.14
-86.33
-81.74
-71.19
-55.74
-37.26
-17.92
0.48
16.82
30.62
41.67
49.74
54.55
55.97
54.37
50.70
46.40
42.78
40.65
40.02
40.24
40.47
40.08
38.95
37.44
35.95
34.68
33.31
31.19
27.56
22.05
14.78
6.39
-2.24
-10.38
-17.71
-24.38
-30.88
-37.79
-45.66
-54.84
-65.46
-77.09
-88.58
-98.05
-103.21
-102.00
-93.49
-78.18
-58.06
-35.78
-13.90
5.85
22.70
36.52
47.37
55.25
60.05
61.84
61.10
58.70
55.68
53.03
51.30
50.59
50.53
50.51
50.00
48.71
46.70
44.30
41.89
39.60
37.18
34.09
29.69
23.60
15.92
7.18
-1.78
-10.18
-17.55
-23.89
-29.58
-35.31
-41.82
-49.68
-59.12
-69.75
-80.43
-89.38
-94.48
-93.88
-86.60
-72.92
-54.31
-32.98
-11.22
9.20
27.17
42.07
53.58
61.45
65.59
66.28
64.24
60.64
56.69
53.44
51.45
50.70
50.81
51.19
51.31
50.80
49.52
47.59
45.22
42.58
39.62
36.08
31.58
25.80
18.77
10.80
2.47
-5.65
-13.17
-19.93
-26.01
-31.68
-37.29
-43.30
-50.18
-58.21
-67.20
-76.30
-83.97
-88.30
-87.62
-81.00
-68.60
-51.68
-32.20
-12.32
6.08
21.74
34.02
42.75
48.05
50.19
49.56
46.77
42.68
38.28
34.53
32.11
31.22
31.62
32.79
34.22
35.55
36.59
37.15
36.97
35.63
32.69
27.83
21.07
12.77
3.59
-5.73
-14.57
-22.60
-29.81
-36.50
-43.13
-50.27
-58.37
-67.56
-77.39
-86.69
-93.64
-96.29
-93.09
-83.57
-68.49
-49.67
-29.31
-9.37
8.88
24.82
38.19
48.74
56.18
60.27
61.13
59.38
56.09
52.40
49.22
46.96
45.50
44.46
43.39
42.00
40.26
38.30
36.25
34.14
31.80
28.88
25.04
20.00
13.73
6.49
-1.23
-8.89
-16.01
-22.40
-28.22
-33.89
-40.05
-47.27
-55.97
-66.19
-77.41
-88.47
-97.57
-102.64
-101.90
-94.45
-80.73
-62.36
-41.69
-20.97
-1.75
15.28
30.06
42.57
52.52
59.38
62.74
62.70
60.14
56.40
52.85
50.38
49.20
48.94
49.01
48.91
48.40
47.47
46.24
44.78
43.09
41.01
38.35
34.80
30.14
24.29
17.37
9.75
1.94
-5.60
-12.58
-18.97
-24.97
-30.95
-37.36
-44.69
-53.28
-63.15
-73.64
-83.40
-90.48
-92.88
-89.19
-79.10
-63.57
-44.48
-24.05
-4.27
13.51
28.58
40.74
49.94
56.21
59.57
60.14
58.33
54.84
50.61
46.61
43.57
41.83
41.20
41.17
41.15
40.69
39.69
38.27
36.59
34.68
32.42
29.51
25.73
20.97
15.35
9.13
2.61
-3.89
-10.19
-16.16
-21.75
-27.00
-32.05
-37.21
-42.93
-49.71
-57.76
-66.80
-75.85
-83.33
-87.42
-86.60
-80.13
-68.35
-52.51
-34.40
-15.90
1.45
16.59
28.91
38.09
44.02
46.79
46.69
44.33
40.60
36.50
32.93
30.47
29.24
28.93
29.04
29.06
28.70
27.97
27.05
26.11
25.09
23.72
21.59
18.34
13.85
8.30
2.08
-4.35
-10.64
-16.67
-22.50
-28.28
-34.21
-40.56
-47.60
-55.53
-64.26
-73.06
-80.55
-84.86
-84.25
-77.74
-65.59
-49.23
-30.83
-12.58
3.96
17.98
29.30
37.97
44.00
47.28
47.85
46.07
42.73
38.92
35.63
33.53
32.75
32.96
33.54
33.91
33.68
32.72
31.18
29.26
27.08
24.60
21.64
17.92
13.27
7.68
1.38
-5.25
-11.78
-17.92
-23.57
-28.83
-33.91
-39.11
-44.83
-51.47
-59.36
-68.51
-78.17
-86.87
-92.58
-93.31
-87.84
-76.22
-59.76
-40.57
-20.89
-2.52
13.50
26.71
37.00
44.35
48.83
50.66
50.33
48.62
46.41
44.47
43.28
42.92
43.15
43.51
43.67
43.39
42.66
41.57
40.23
38.61
36.57
33.85
30.18
25.40
19.53
12.77
5.46
-2.00
-9.20
-15.82
-21.67
-26.73
-31.25
-35.75
-40.94
-47.53
-55.91
-65.81
-76.10
-84.93
-90.11
-89.82
-83.23
-70.73
-53.84
-34.69
-15.35
2.60
18.21
31.01
40.71
47.12
50.15
50.05
47.49
43.51
39.28
35.77
33.51
32.52
32.43
32.72
32.95
32.92
32.63
32.20
31.70
31.07
30.01
28.16
25.20
20.96
15.54
9.24
2.56
-4.01
-10.09
-15.49
-20.29
-24.79
-29.42
-34.69
-41.02
-48.61
-57.26
-66.18
-73.98
-78.96
-79.52
-74.76
-64.77
-50.71
-34.38
-17.61
-1.90
11.87
23.26
32.00
37.81
40.53
40.24
37.52
33.45
29.34
26.33
25.02
25.32
26.59
28.00
28.88
29.01
28.54
27.83
27.07
26.08
24.31
21.11
16.05
9.19
1.09
-7.34
-15.21
-21.94
-27.45
-32.08
-36.48
-41.37
-47.41
-54.98
-64.02
-73.81
-82.92
-89.42
-91.42
-87.59
-77.72
-62.78
-44.63
-25.43
-7.02
9.40
23.22
34.23
42.35
47.47
49.66
49.31
47.16
44.24
41.61
40.02
39.71
40.31
41.09
41.25
40.29
38.24
35.59
32.97
30.76
28.88
26.71
23.48
18.66
12.22
4.67
-3.19
-10.67
-17.42
-23.53
-29.44
-35.76
-43.02
-51.60
-61.55
-72.36
-82.86
-91.33
-95.78
-94.56
-86.96
-73.44
-55.55
-35.38
-15.00
4.03
20.81
34.85
45.83
53.43
57.42
57.93
55.71
52.03
48.39
45.95
45.18
45.69
46.62
47.07
46.58
45.22
43.46
41.76
40.28
38.78
36.74
33.63
29.11
23.21
16.23
8.66
0.97
-6.45
-13.43
-20.07
-26.63
-33.52
-41.18
-49.92
-59.78
-70.27
-80.25
-88.00
-91.54
-89.31
-80.65
-66.21
-47.68
-27.30
-7.16
11.18
26.80
39.20
48.02
53.03
54.23
52.14
47.79
42.58
37.84
34.48
32.78
32.45
32.85
33.38
33.62
33.44
32.97
32.34
31.50
30.19
27.95
24.32
19.14
12.56
5.14
-2.39
-9.37
-15.42
-20.58
-25.25
-30.19
-36.18
-43.82
-53.13
-63.28
-72.56
-78.82
-80.03
-75.02
-63.88
-47.93
-29.15
-9.60
9.06
25.69
39.56
50.15
57.10
60.28
59.98
56.97
52.39
47.51
43.33
40.43
38.81
38.07
37.60
36.86
35.57
33.75
31.62
29.38
27.02
24.20
20.40
15.17
8.34
0.21
-8.55
-17.19
-25.10
-32.07
-38.39
-44.62
-51.51
-59.73
-69.59
-80.82
-92.39
-102.47
-108.78
-109.22
-102.48
-88.62
-69.03
-46.07
-22.30
0.16
20.00
36.62
49.88
59.71
66.02
68.82
68.45
65.73
61.84
58.02
55.18
53.64
53.07
52.73
51.84
50.00
47.22
43.92
40.61
37.56
34.69
31.51
27.40
21.80
14.53
5.89
-3.43
-12.64
-21.07
-28.48
-35.10
-41.56
-48.65
-57.10
-67.29
-79.09
-91.68
-103.62
-113.07
-118.24
-117.93
-111.91
-101.07
-87.01
-71.54
-56.15
-41.83
-29.21
-19.06
-12.53
-11.03
-15.80
-27.15
-43.98
-63.78
-83.10
-98.49
-107.41
-108.94
-103.90
-94.61
-84.02
-74.80
-68.37
-64.38
-60.78
-54.65
-43.62
-27.18
-7.31
12.22
27.33
35.47
36.80
33.96
30.83
30.73
35.05
43.05
52.45
60.56
65.27
65.45
61.07
53.06
43.06
33.23
25.68
21.92
22.26
25.73
30.47
34.54
36.72
37.01
36.45
36.44
38.01
41.15
44.82
47.56
48.32
47.23
45.75
46.10
50.20
58.77
70.93
84.69
97.90
109.20
118.45
126.37
133.86
141.33
148.43
154.51
159.22
162.94
166.81
172.29
180.54
191.93
205.93
221.28
236.45
249.99
260.82
268.15
271.48
270.39
264.75
255.00
242.36
228.74
216.10
205.67
197.35
189.65
180.33
167.33
149.47
126.59
99.17
67.87
33.42
-3.03
-39.48
-73.05
-100.59
-119.70
-129.67
-131.84
-129.21
-125.38
-123.46
-125.19
-130.76
-139.02
-148.27
-157.16
-165.27
-173.43
-183.18
-195.89
-211.72
-229.17
-245.44
-257.47
-263.14
-262.03
-255.34
-245.08
-233.13
-220.45
-206.96
-191.99
-174.83
-155.25
-133.65
-110.90
-88.04
-65.91
-45.00
-25.42
-7.07
10.07
25.74
39.17
49.27
54.98
55.83
52.36
46.21
39.70
35.04
33.59
35.48
39.80
45.24
50.82
56.22
61.49
66.54
70.51
71.88
69.08
61.36
49.38
35.17
21.26
9.73
1.34
-4.61
-9.79
-16.08
-24.84
-36.55
-50.86
-66.75
-82.72
-96.95
-107.59
-113.05
-112.53
-106.25
-95.38
-81.66
-66.81
-52.07
-38.17
-25.50
-14.44
-5.58
0.52
3.68
4.39
3.99
4.35
7.33
14.31
25.92
42.20
62.84
87.49
115.52
145.82
176.45
204.63
227.31
241.78
246.34
240.55
225.02
201.14
170.78
136.38
100.85
67.45
39.07
17.40
2.22
-8.41
-17.22
-26.36
-36.27
-45.58
-51.87
-53.19
-49.31
-42.16
-35.16
-31.87
-34.62
-43.64
-57.07
-71.66
-83.80
-90.50
-90.13
-82.63
-69.35
-52.60
-34.98
-18.71
-5.30
4.55
10.79
13.67
13.57
10.95
6.28
0.21
-6.73
-14.13
-21.88
-30.03
-38.67
-47.72
-56.91
-65.91
-74.57
-83.14
-92.18
-102.31
-113.69
-125.55
-136.14
-142.98
-143.66
-136.64
-121.97
-101.33
-77.62
-53.99
-33.00
-16.09
-3.47
5.31
10.83
13.53
13.62
11.45
7.78
3.85
1.01
0.32
2.17
6.33
12.24
19.42
27.53
36.17
44.57
51.41
55.09
54.36
48.88
39.43
27.53
14.70
1.87
-10.97
-24.52
-39.70
-57.02
-76.20
-95.95
-114.18
-128.43
-136.54
-137.44
-131.52
-120.69
-107.77
-95.54
-85.95
-79.72
-76.41
-75.01
-74.56
-74.43
-74.38
-74.28
-73.89
-72.78
-70.56
-67.10
-62.67
-57.93
-53.46
-49.39
-45.03
-39.00
-29.72
-16.02
2.37
24.84
50.17
77.17
104.92
132.70
159.63
184.45
205.41
220.61
228.32
227.19
216.55
196.50
168.38
134.84
99.64
66.90
39.93
20.22
7.19
-1.29
-7.68
-13.77
-20.19
-26.68
-32.78
-38.46
-44.18
-50.62
-58.08
-66.30
-74.44
-81.49
-86.67
-89.71
-90.82
-90.41
-88.81
-86.01
-81.92
-76.54
-70.31
-64.13
-59.11
-56.14
-55.48
-56.70
-58.87
-61.06
-62.76
-64.01
-65.27
-67.22
-70.49
-75.57
-82.84
-92.37
-103.72
-115.61
-126.00
-132.51
-133.17
-127.18
-115.23
-99.19
-81.21
-62.96
-45.16
-27.93
-11.33
4.06
17.15
26.81
32.52
34.80
34.95
34.61
35.04
36.75
39.54
42.79
45.86
48.35
50.10
51.10
51.36
50.75
49.13
46.31
42.14
36.71
30.28
23.26
16.03
8.66
0.83
-8.11
-18.67
-30.74
-43.20
-53.99
-60.71
-61.48
-55.66
-44.05
-28.50
-11.01
6.85
24.36
41.24
57.18
71.40
82.69
89.85
92.29
90.36
85.24
78.55
71.76
65.76
60.86
56.85
53.38
50.14
46.95
43.73
40.39
36.83
32.88
28.41
23.41
18.01
12.39
6.56
0.31
-6.97
-16.03
-27.31
-40.47
-54.13
-66.03
-73.63
-74.94
-69.20
-57.09
-40.46
-21.61
-2.60
15.15
30.96
44.52
55.59
63.86
68.92
70.61
69.15
65.31
60.23
55.21
51.23
48.79
47.67
47.20
46.52
44.95
42.28
38.65
34.46
29.98
25.23
20.01
14.05
7.11
-0.96
-10.29
-21.02
-33.16
-46.15
-58.66
-68.57
-73.52
-71.75
-62.79
-47.73
-28.76
-8.38
11.38
29.40
45.28
58.93
70.12
78.34
83.00
83.81
81.08
75.74
69.03
62.16
55.95
50.70
46.24
42.10
37.81
33.03
27.61
21.62
15.13
8.15
0.56
-7.80
-17.06
-27.20
-38.08
-49.55
-61.47
-73.67
-85.71
-96.58
-104.66
-108.00
-104.98
-94.92
-78.47
-57.40
-34.02
-10.46
11.75
31.83
49.47
64.51
76.72
85.85
91.69
94.32
94.17
92.01
88.72
85.12
81.88
79.42
77.97
77.59
78.15
79.26
80.35
80.72
79.80
77.25
73.12
67.65
61.19
53.86
45.71
36.69
26.93
16.76
6.65
-3.01
-12.07
-20.72
-29.41
-38.70
-49.15
-61.26
-75.20
-90.63
-106.43
-120.60
-130.61
-134.02
-129.27
-116.25
-96.34
-71.92
-45.59
-19.51
4.99
27.35
47.36
64.90
79.77
91.67
100.50
106.35
109.61
110.86
110.67
109.47
107.56
105.17
102.52
99.95
97.69
95.81
93.99
91.59
87.88
82.37
75.02
66.26
56.77
47.12
37.56
27.94
17.91
7.17
-4.32
-16.29
-28.30
-39.83
-50.50
-60.21
-69.11
-77.71
-86.70
-96.77
-108.33
-121.09
-133.86
-144.65
-151.06
-151.00
-143.34
-128.29
-107.32
-82.69
-56.74
-31.31
-7.51
14.16
33.54
50.48
64.73
76.00
84.08
89.03
91.16
91.02
89.22
86.37
82.97
79.45
76.15
73.37
71.27
69.82
68.79
67.75
66.19
63.65
59.85
54.77
48.59
41.59
34.02
26.00
17.53
8.65
-0.51
-9.72
-18.69
-27.25
-35.47
-43.70
-52.50
-62.46
-74.01
-87.14
-101.16
-114.63
-125.54
-131.68
-131.31
-123.69
-109.29
-89.62
-66.74
-42.60
-18.75
3.78
24.39
42.57
57.88
69.92
78.47
83.65
85.91
85.97
84.62
82.51
80.06
77.38
74.50
71.43
68.32
65.41
62.88
60.66
58.46
55.78
52.19
47.54
41.98
35.94
29.82
23.90
18.12
12.25
5.97
-0.85
-8.10
-15.47
-22.61
-29.28
-35.47
-41.49
-47.83
-55.03
-63.55
-73.55
-84.57
-95.43
-104.28
-108.97
-107.72
