1625584009.00
64.000000
-0.00
-0.00
-0.00
-0.00
-0.00
-0.00
-0.00
-0.00
-0.00
-0.00
0.00
0.01
0.01
-0.00
-0.03
-0.05
-0.05
0.00
0.13
0.36
0.66
1.01
1.37
1.72
2.06
2.40
2.79
3.24
3.80
4.42
5.06
5.66
6.20
6.68
7.15
7.68
8.31
9.14
10.09
11.04
11.88
12.56
13.14
13.76
14.65
15.96
17.91
20.32
22.90
25.38
27.58
29.57
31.68
34.32
37.81
42.54
48.15
54.10
59.83
64.97
69.58
74.14
79.34
85.71
93.76
103.00
112.62
121.73
129.77
136.75
143.30
150.75
157.77
166.64
177.95
191.79
206.97
220.57
228.25
225.36
208.53
176.87
132.76
80.05
23.07
-34.94
-92.44
-149.16
-205.23
-260.37
-313.74
-363.87
-409.82
-450.89
-486.47
-515.68
-537.15
-549.11
-549.81
-538.17
-513.96
-478.37
-433.52
-382.03
-326.54
-269.29
-212.01
-155.97
-102.19
-51.53
-4.98
36.59
72.53
102.55
126.81
145.81
160.25
170.85
178.23
182.80
184.82
184.55
182.24
178.25
172.98
166.85
160.20
153.28
146.24
139.14
132.03
124.95
117.97
111.15
104.56
98.26
92.29
86.66
81.37
76.45
71.89
67.70
63.90
60.48
57.46
54.83
52.58
50.72
49.23
48.07
47.20
46.54
45.96
45.32
44.45
43.16
41.30
38.71
35.31
31.08
26.07
20.36
14.13
7.63
1.11
-5.14
-10.88
-15.88
-19.98
-23.10
-25.19
-26.29
-26.50
-25.94
-24.74
-23.08
-21.09
-18.88
-16.54
-14.13
-11.68
-9.22
-6.76
-4.31
-1.85
0.64
3.16
5.74
8.40
11.17
14.02
16.91
19.84
22.80
25.82
28.92
32.13
35.51
39.15
42.97
46.95
51.06
55.33
59.75
64.36
69.17
74.26
79.69
85.32
91.05
96.84
102.65
108.47
114.29
120.12
125.99
131.94
137.68
142.99
147.64
151.40
153.97
154.99
153.98
150.23
145.08
139.02
132.38
125.40
118.23
111.01
103.84
96.83
90.09
83.76
77.68
71.75
65.93
60.22
54.66
49.28
44.19
39.50
35.34
31.61
28.22
25.10
22.23
19.54
17.02
14.68
12.55
10.69
8.99
7.36
5.72
4.02
2.22
0.37
-1.47
-3.20
-4.71
-5.99
-7.09
-8.11
-9.16
-10.33
-11.63
-12.99
-14.29
-15.41
-16.35
-17.25
-18.34
-19.90
-22.10
-24.94
-28.22
-31.62
-34.87
-37.88
-40.88
-44.31
-48.73
-54.48
-61.54
-69.44
-77.49
-85.02
-91.72
-97.89
-104.29
-111.90
-121.44
-133.08
-146.28
-160.06
-173.42
-185.79
-197.27
-208.71
-221.49
-237.15
-256.99
-281.38
-309.20
-337.63
-362.50
-379.48
-385.50
-379.95
-364.97
-344.68
-323.70
-305.45
-291.05
-279.11
-266.50
-249.58
-225.60
-193.63
-154.94
-112.53
-70.27
-31.77
0.46
25.35
43.05
54.43
60.59
62.66
61.83
59.34
56.42
54.04
52.71
52.44
52.90
53.75
54.79
56.00
57.45
59.00
60.15
60.15
58.19
53.76
46.92
38.31
28.96
19.89
11.75
4.56
-2.32
-9.96
-19.45
-31.22
-44.49
-57.02
-65.47
-66.33
-57.22
-37.94
-10.81
20.00
49.69
74.30
91.61
101.29
104.32
102.26
96.65
88.80
79.79
70.62
62.19
55.12
49.66
45.68
42.84
40.74
39.19
38.06
37.25
36.48
35.20
32.82
28.80
22.98
15.63
7.38
-1.00
-8.85
-15.88
-22.19
-28.33
-35.09
-43.32
-53.38
-64.69
-75.47
-82.81
-83.57
-75.45
-58.08
-33.39
-5.13
22.27
45.13
61.35
70.59
73.80
72.45
67.88
61.18
53.24
44.92
37.13
30.74
26.41
24.40
24.55
26.35
29.05
31.81
33.91
34.78
34.12
31.90
28.31
23.63
18.20
12.30
6.14
-0.14
-6.47
-12.96
-19.90
-27.76
-36.80
-46.68
-56.02
-62.48
-63.31
-56.35
-41.04
-18.85
6.95
32.32
53.67
68.74
77.01
79.32
77.20
72.20
65.53
57.96
50.03
42.30
35.42
30.09
26.87
25.89
26.76
28.61
30.38
31.13
30.22
27.43
22.90
17.01
10.25
3.16
-3.81
-10.35
-16.40
-22.17
-28.09
-34.79
-42.85
-52.58
-63.49
-74.04
-81.62
-83.26
-76.57
-60.90
-37.80
-10.73
16.09
38.96
55.72
65.90
70.26
70.12
66.68
60.93
53.76
46.11
38.99
33.24
29.34
27.22
26.40
26.17
25.96
25.51
24.90
24.28
23.68
22.74
20.74
16.91
10.78
2.44
-7.43
-17.72
-27.28
-35.24
-41.35
-46.04
-50.41
-55.84
-63.54
-73.79
-85.46
-96.00
-102.00
-100.35
-89.44
-69.81
-44.13
-16.28
9.83
31.25
46.47
55.33
58.49
57.04
52.23
45.34
37.69
30.56
24.86
21.11
19.33
19.13
19.94
21.26
22.71
24.15
25.50
26.67
27.35
27.09
25.32
21.68
16.16
9.16
1.45
-6.11
-12.90
-18.66
-23.70
-28.80
-34.93
-42.88
-52.67
-63.17
-72.03
-76.28
-73.26
-61.74
-42.55
-18.45
6.72
29.32
46.90
58.57
64.69
66.28
64.37
59.85
53.49
46.23
39.16
33.40
29.74
28.39
28.94
30.45
31.89
32.51
32.07
30.91
29.58
28.46
27.40
25.69
22.38
16.76
8.84
-0.63
-10.32
-18.98
-25.86
-31.04
-35.29
-39.79
-45.65
-53.50
-63.14
-73.25
-81.49
-85.07
-81.55
-69.87
-50.86
-27.15
-2.38
19.95
37.46
49.24
55.65
57.67
56.35
52.53
46.87
40.16
33.34
27.47
23.37
21.36
21.11
21.76
22.30
22.01
20.68
18.70
16.70
15.15
14.01
12.66
10.22
5.94
-0.40
-8.35
-16.93
-25.02
-31.75
-36.80
-40.46
-43.46
-46.74
-51.19
-57.40
-65.51
-74.93
-84.21
-91.06
-92.90
-87.56
-74.21
-53.88
-29.33
-4.23
17.94
34.86
45.73
51.00
51.79
49.31
44.58
38.50
31.95
25.86
21.03
17.97
16.73
16.97
18.14
19.70
21.33
22.89
24.39
25.74
26.63
26.53
24.81
21.02
15.16
7.78
-0.18
-7.72
-14.13
-19.28
-23.62
-28.03
-33.48
-40.69
-49.64
-59.29
-67.63
-71.98
-69.85
-59.89
-42.61
-20.32
3.44
25.15
42.32
53.98
60.48
62.79
61.87
58.40
52.87
45.93
38.57
32.00
27.28
24.91
24.64
25.64
26.80
27.23
26.58
25.04
23.13
21.36
19.86
18.29
15.93
12.08
6.35
-1.03
-9.33
-17.58
-24.89
-30.79
-35.34
-39.04
-42.62
-46.93
-52.68
-60.33
-69.70
-79.67
-88.11
-92.22
-89.33
-78.05
-58.88
-34.34
-8.18
15.81
34.97
48.22
55.91
59.08
58.82
55.87
50.77
44.12
36.84
30.01
24.69
21.44
20.21
20.32
20.89
21.16
20.73
19.71
18.50
17.44
16.64
15.77
14.16
11.08
6.01
-1.09
-9.65
-18.79
-27.45
-34.89
-40.81
-45.46
-49.46
-53.60
-58.66
-65.18
-73.22
-82.12
-90.28
-95.36
-94.86
-87.04
-71.67
-50.37
-26.15
-2.48
17.76
33.02
43.02
48.39
50.03
48.77
45.32
40.46
35.13
30.37
27.10
25.77
26.37
28.37
31.02
33.59
35.64
37.09
38.07
38.70
38.84
38.01
35.58
31.03
24.29
15.88
6.80
-1.88
-9.46
-15.80
-21.33
-26.92
-33.48
-41.67
-51.51
-62.07
-71.47
-77.07
-76.30
-67.53
-50.87
-28.38
-3.45
20.26
39.93
54.18
63.08
67.48
68.37
66.46
62.22
56.12
48.94
41.81
35.93
32.17
30.82
31.40
32.90
34.21
34.46
33.38
31.28
28.79
26.50
24.60
22.72
20.12
15.95
9.75
1.62
-7.73
-17.21
-25.77
-32.69
-37.85
-41.64
-44.88
-48.52
-53.49
-60.36
-69.07
-78.66
-87.12
-91.74
-89.84
-79.78
-61.73
-37.84
-11.59
13.24
33.78
48.63
57.90
62.63
64.05
63.20
60.74
57.11
52.71
48.01
43.60
40.01
37.65
36.62
36.68
37.34
37.96
38.01
37.22
35.58
33.20
30.19
26.58
22.32
17.35
11.68
5.39
-1.39
-8.52
-15.78
-22.88
-29.45
-35.18
-39.90
-43.75
-47.13
-50.66
-55.04
-60.85
-68.31
-76.92
-85.34
-91.33
-92.38
-86.45
-72.82
-52.62
-28.57
-4.11
17.58
34.45
45.83
52.16
54.38
53.49
50.33
45.64
40.20
34.88
30.56
27.89
27.16
28.19
30.38
32.95
35.18
36.59
37.06
36.73
35.85
34.58
32.85
30.36
26.71
21.63
15.17
7.72
0.00
-7.19
-13.23
-17.91
-21.48
-24.56
-27.99
-32.54
-38.77
-46.78
-55.94
-64.79
-71.13
-72.53
-67.10
-54.32
-35.43
-13.21
8.95
28.06
42.38
51.59
56.44
58.06
57.39
55.04
51.34
46.70
41.73
37.14
33.63
31.62
31.16
31.88
33.22
34.56
35.43
35.53
34.78
33.23
31.01
28.19
24.78
20.67
15.69
9.68
2.63
-5.21
-13.34
-21.10
-27.87
-33.30
-37.38
-40.48
-43.21
-46.30
-50.45
-56.20
-63.66
-72.23
-80.42
-85.98
-86.51
-80.22
-66.71
-47.32
-24.75
-2.28
17.28
32.21
42.07
47.37
49.12
48.26
45.58
41.72
37.24
32.78
28.96
26.29
25.02
25.12
26.19
27.65
28.86
29.34
28.87
27.53
25.54
23.16
20.45
17.29
13.44
8.66
2.93
-3.53
-10.23
-16.61
-22.22
-26.88
-30.69
-33.90
-36.87
-39.92
-43.40
-47.70
-53.12
-59.49
-65.89
-70.54
-71.16
-65.80
-53.74
-35.89
-14.70
6.67
25.40
39.74
49.17
54.12
55.36
53.65
49.64
44.04
37.70
31.65
26.82
23.76
22.52
22.66
23.51
24.35
24.72
24.45
23.67
22.61
21.42
20.05
18.12
15.10
10.57
4.42
-2.99
-10.92
-18.50
-25.02
-30.19
-34.20
-37.60
-41.16
-45.59
-51.31
-58.15
-65.08
-70.25
-71.41
-66.64
-55.20
-37.96
-17.25
3.87
22.59
37.14
46.98
52.62
54.97
54.93
53.12
49.98
45.92
41.44
37.08
33.35
30.59
28.91
28.15
28.02
28.20
28.34
28.19
27.54
26.23
24.16
21.32
17.79
13.75
9.36
4.66
-0.40
-5.94
-11.98
-18.37
-24.77
-30.74
-35.94
-40.24
-43.78
-46.95
-50.26
-54.37
-59.85
-66.88
-74.95
-82.59
-87.52
-87.30
-80.20
-66.01
-46.34
-24.12
-2.65
15.44
28.82
37.40
41.89
43.19
42.02
38.92
34.50
29.48
24.71
20.92
18.55
17.59
17.65
18.08
18.28
17.91
16.97
15.81
14.85
14.28
13.83
12.84
10.48
6.12
-0.24
-7.98
-16.02
-23.30
-29.09
-33.32
-36.49
-39.47
-43.18
-48.38
-55.32
-63.53
-71.75
-77.98
-79.92
-75.67
-64.42
-46.91
-25.34
-2.77
17.82
34.28
45.70
52.23
54.69
54.03
51.18
46.92
41.97
37.11
32.97
30.00
28.29
27.62
27.59
27.79
28.00
28.15
28.24
28.17
27.66
26.24
23.39
18.82
12.63
5.37
-2.17
-9.21
-15.29
-20.39
-24.98
-29.87
-35.99
-43.94
-53.66
-64.05
-72.96
-77.69
-75.84
-66.21
-49.42
-27.77
-4.59
16.85
34.19
46.33
53.34
55.96
55.12
51.71
46.55
40.55
34.68
29.92
26.88
25.73
26.06
27.04
27.78
27.64
26.46
24.62
22.68
21.03
19.56
17.62
14.29
8.76
0.92
-8.60
-18.56
-27.62
-34.79
-39.90
-43.49
-46.70
-50.78
-56.73
-64.89
-74.62
-84.15
-90.86
-91.91
-85.21
-70.32
-48.73
-23.55
1.52
23.37
40.19
51.65
58.41
61.47
61.67
59.61
55.79
50.82
45.50
40.78
37.36
35.57
35.20
35.62
35.97
35.56
34.08
31.69
28.85
26.07
23.56
21.14
18.24
14.16
8.39
0.88
-7.86
-16.88
-25.13
-31.84
-36.77
-40.32
-43.33
-46.82
-51.71
-58.53
-67.20
-76.85
-85.67
-91.22
-90.96
-83.10
-67.38
-45.45
-20.40
4.10
25.03
40.68
50.88
56.47
58.63
58.35
56.22
52.74
48.49
44.31
41.08
39.38
39.24
40.08
41.02
41.28
40.50
38.89
37.00
35.37
34.14
32.96
31.05
27.59
22.06
14.57
5.82
-3.12
-11.15
-17.66
-22.63
-26.59
-30.44
-35.05
-41.11
-48.93
-58.21
-67.88
-76.07
-80.31
-78.22
-68.39
-51.06
-28.37
-3.73
19.26
37.89
50.97
58.78
62.46
63.33
62.36
60.14
57.06
53.51
50.01
47.09
45.09
44.03
43.65
43.51
43.30
42.87
42.25
41.51
40.58
39.15
36.75
32.95
27.69
21.29
14.41
7.74
1.74
-3.58
-8.54
-13.62
-19.07
-24.82
-30.41
-35.27
-38.95
-41.34
-42.78
-44.01
-45.95
-49.58
-55.58
-64.02
-73.93
-83.27
-89.18
-88.87
-80.54
-64.26
-42.07
-17.41
6.05
25.42
39.32
47.83
51.97
53.05
52.14
50.04
47.30
44.41
41.79
39.76
38.44
37.71
37.32
37.03
36.74
36.51
36.45
36.54
36.56
36.07
34.54
31.64
27.40
22.28
16.94
11.97
7.64
3.78
-0.08
-4.46
-9.65
-15.51
-21.59
-27.27
-32.07
-35.85
-38.98
-42.20
-46.45
-52.60
-61.01
-71.19
-81.62
-89.92
-93.39
-89.92
-78.78
-61.01
-39.13
-16.40
4.21
20.76
32.61
40.18
44.36
46.08
46.07
44.84
42.87
40.71
38.91
37.92
37.89
38.62
39.57
40.13
39.87
38.69
36.88
34.88
33.04
31.35
29.35
26.34
21.72
15.23
7.18
-1.64
-10.30
-18.02
-24.38
-29.46
-33.65
-37.57
-41.91
-47.27
-54.00
-61.81
-69.63
-75.56
-77.30
-72.93
-61.65
-44.21
-22.80
-0.32
20.39
37.34
49.62
57.25
60.90
61.46
59.83
56.85
53.35
50.02
47.40
45.79
45.20
45.37
45.90
46.35
46.36
45.69
44.22
41.98
39.02
35.47
31.49
27.23
22.78
18.12
13.12
7.63
1.52
-5.15
-12.15
-19.05
-25.45
-31.03
-35.66
-39.46
-42.75
-46.00
-49.83
-54.93
-61.73
-70.13
-79.11
-86.70
-90.41
-88.09
-78.73
-63.01
-43.20
-22.38
-3.47
11.60
22.15
28.60
31.81
32.69
31.91
29.93
27.19
24.26
21.73
20.15
19.73
20.32
21.42
22.41
22.81
22.42
21.38
20.05
18.78
17.68
16.61
15.14
12.80
9.23
4.35
-1.57
-8.02
-14.37
-20.09
-24.85
-28.57
-31.44
-33.85
-36.34
-39.56
-43.98
-49.70
-56.06
-61.57
-64.25
-62.20
-54.41
-41.16
-24.14
-5.79
11.43
25.75
36.40
43.43
47.30
48.54
47.56
44.76
40.70
36.14
31.90
28.64
26.66
25.80
25.62
25.57
25.27
24.60
23.71
22.85
22.18
21.61
20.77
19.09
16.05
11.41
5.35
-1.52
-8.41
-14.60
-19.72
-23.86
-27.45
-31.15
-35.59
-41.19
-48.00
-55.44
-62.23
-66.47
-66.21
-60.03
-47.82
-30.94
-11.96
6.23
21.29
32.01
38.41
41.26
41.58
40.21
37.71
34.50
31.03
27.80
25.30
23.84
23.46
23.91
24.75
25.45
25.57
24.88
23.39
21.35
19.03
16.65
14.20
11.43
7.94
3.37
-2.36
-8.96
-15.81
-22.21
-27.65
-31.95
-35.36
-38.35
-41.55
-45.49
-50.56
-56.85
-63.95
-70.81
-75.80
-76.99
-72.81
-62.66
-47.32
-28.80
-9.69
7.65
21.64
31.78
38.27
41.64
42.38
40.82
37.39
32.75
27.82
23.59
20.84
19.82
20.23
21.41
22.58
23.20
23.10
22.42
21.44
20.35
19.12
17.44
14.93
11.27
6.43
0.76
-5.14
-10.54
-14.85
-17.88
-19.86
-21.42
-23.43
-26.67
-31.60
-38.01
-44.94
-50.76
-53.57
-51.70
-44.38
-31.95
-15.89
1.71
18.59
33.01
43.93
51.06
54.61
55.15
53.31
49.75
45.10
39.99
35.01
30.66
27.30
25.10
23.92
23.41
23.09
22.56
21.61
20.31
18.82
17.24
15.40
12.93
9.36
4.49
-1.48
-7.94
-14.04
-19.08
-22.79
-25.41
-27.64
-30.39
-34.51
-40.52
-48.40
-57.32
-65.69
-71.33
-72.13
-66.75
-55.14
-38.64
-19.58
-0.55
16.40
30.07
40.16
46.90
50.71
52.03
51.25
48.86
45.54
42.09
39.22
37.45
36.91
37.32
38.23
39.13
39.72
40.13
40.75
41.90
43.71
45.83
47.52
47.96
46.58
43.49
39.61
36.50
35.92
39.08
45.96
54.96
63.08
66.64
62.41
48.71
26.21
-2.14
-31.73
-57.57
-75.66
-83.87
-82.42
-73.60
-60.98
-48.40
-38.96
-34.30
-34.31
-37.31
-40.70
-41.87
-39.08
-31.90
-21.15
-8.37
4.93
17.83
30.05
41.54
52.08
61.16
68.14
72.79
75.42
76.82
77.68
78.10
77.43
74.67
69.07
60.71
50.50
39.90
30.20
22.02
15.20
8.87
1.88
-6.73
-17.28
-29.10
-40.44
-48.84
-51.88
-48.06
-37.51
-21.96
-4.25
12.80
27.16
38.06
45.71
50.66
53.28
53.55
51.31
46.67
40.24
33.03
26.12
20.36
16.08
13.28
11.79
11.41
11.95
13.05
14.11
14.27
12.64
8.55
1.80
-7.32
-18.17
-29.92
-41.82
-53.23
-63.78
-73.40
-82.42
-91.37
-100.81
-110.99
-121.71
-132.09
-140.71
-145.81
-145.68
-139.16
-126.16
-107.97
-87.05
-66.45
-48.81
-35.70
-27.20
-22.39
-20.03
-19.28
-19.82
-21.52
-23.89
-25.86
-25.96
-23.06
-16.82
-7.96
2.12
11.92
20.34
26.97
31.80
35.01
36.58
36.27
33.67
28.55
21.14
12.21
3.09
-4.75
-10.13
-12.69
-12.89
-11.91
-11.21
-12.02
-15.13
-20.71
-28.24
-36.39
-43.15
-46.01
-42.59
-31.44
-12.69
11.84
39.02
65.48
88.45
106.35
118.84
126.37
129.50
128.58
123.55
114.27
100.83
83.93
64.89
45.38
27.02
10.85
-2.75
-13.98
-23.26
-30.99
-37.40
-42.82
-47.68
-52.57
-58.07
-64.59
-72.27
-81.03
-90.56
-100.42
-110.16
-119.47
-128.54
-138.01
-148.73
-161.11
-174.45
-186.65
-194.62
-195.38
-187.19
-170.48
-147.60
-122.03
-97.13
-75.18
-57.09
-42.80
-31.90
-24.03
-19.06
-16.85
-16.91
-18.15
-19.24
-19.01
-16.99
-13.58
-9.66
-6.00
-2.66
1.00
5.94
12.80
21.49
31.28
41.11
50.14
58.07
65.03
71.29
76.93
81.84
85.92
89.08
91.17
91.49
88.82
81.83
70.15
55.13
39.96
28.90
25.61
31.81
46.73
67.64
91.21
114.65
136.17
154.64
169.16
178.77
182.81
181.25
174.83
164.62
151.45
135.67
117.25
96.62
75.22
55.60
40.55
32.03
30.26
33.54
39.18
44.52
47.78
48.07
45.02
38.10
26.66
10.31
-10.43
-33.80
-57.14
-77.84
-94.32
-106.48
-115.43
-122.51
-128.19
-131.70
-131.24
-125.04
-112.47
-94.72
-74.61
-55.49
-40.04
-29.26
-22.48
-18.08
-14.47
-10.82
-6.97
-2.97
1.52
7.20
14.65
23.51
32.21
38.21
39.00
33.35
22.05
7.74
-5.92
-15.72
-20.02
-18.94
-13.72
-5.54
5.40
19.85
38.70
61.61
86.38
109.27
126.51
136.21
139.36
139.36
140.32
145.05
154.15
166.30
179.30
191.05
199.73
203.41
199.80
186.57
162.34
127.45
84.14
35.76
-14.50
-64.46
-112.91
-158.91
-201.00
-237.27
-265.96
-286.43
-299.46
-306.96
-310.95
-312.97
-313.63
-313.08
-311.44
-309.44
-308.43
-310.18
-316.39
-328.42
-347.14
-372.73
-404.28
-439.34
-473.73
-502.02
-518.92
-520.99
-507.84
-482.34
-449.34
-413.91
-379.66
-348.17
-319.41
-292.82
-268.15
-245.59
-225.35
-207.10
-189.84
-172.30
-153.51
-133.30
-112.29
-91.60
-72.23
-54.66
-38.69
-23.63
-8.71
6.50
21.88
36.73
50.10
61.18
69.60
75.57
79.78
83.11
86.38
90.01
94.03
98.11
101.81
104.80
107.03
108.78
110.55
112.76
115.60
118.78
121.61
123.21
122.81
120.14
115.62
110.23
105.18
101.50
99.52
98.88
98.67
98.04
96.67
95.23
95.16
98.23
105.66
117.58
132.86
149.57
165.78
180.40
193.59
206.61
221.32
239.55
262.71
291.40
324.81
360.10
392.23
414.76
421.70
410.09
381.61
342.50
301.44
266.20
241.01
225.72
217.08
211.08
205.00
197.70
189.12
179.09
166.93
151.87
133.87
114.19
95.18
79.69
70.07
67.50
71.65
80.76
91.91
101.54
106.28
103.86
93.93
78.05
58.88
38.85
18.98
-1.40
-23.98
-49.84
-77.85
-104.44
-124.61
-134.49
-133.57
-124.88
-113.20
-102.54
-94.40
-87.99
-81.83
-75.62
-70.77
-69.32
-72.01
-77.09
-80.81
-79.33
-71.00
-57.24
-41.80
-28.67
-20.09
-15.95
-14.34
-12.79
-9.58
-4.46
1.32
5.43
5.29
-0.79
-12.84
-29.25
-46.78
-61.17
-68.29
-65.35
-52.08
-31.30
-8.25
10.94
21.30
20.64
10.11
-6.42
-23.86
-37.49
-44.27
-43.23
-35.27
-22.25
-6.04
11.86
30.42
48.59
64.96
78.03
86.72
90.87
91.66
91.00
90.68
91.37
92.29
91.58
87.36
78.64
65.67
49.81
32.80
16.19
1.13
-11.64
-21.60
-28.20
-30.70
-28.38
-21.04
-9.72
3.17
14.51
21.63
23.29
19.79
12.37
2.58
-8.05
-17.89
-24.86
-26.49
-20.89
-7.90
10.35
30.23
48.46
63.53
75.93
87.08
97.42
105.75
110.18
109.99
107.03
104.87
106.41
111.39
115.84
114.00
101.76
79.57
52.53
28.05
12.01
6.21
8.18
13.05
16.09
14.55
7.94
-2.81
-16.49
-32.10
-48.46
-63.79
-75.67
-81.70
-80.09
-70.58
-54.64
-34.96
-14.54
4.32
20.38
33.14
42.21
46.91
46.37
40.28
29.41
15.64
1.26
-11.92
-23.07
-32.22
-39.84
-46.50
-52.84
-59.51
-66.99
-75.09
-82.55
-87.30
-87.55
-83.26
-76.82
-72.27
-73.41
-81.85
-96.09
-112.12
-125.17
-131.46
-129.21
-118.50
-100.54
-76.95
-49.37
-19.40
11.29
40.96
68.07
91.63
111.40
127.98
142.39
155.49
167.39
177.09
182.67
182.11
174.31
159.66
140.01
117.89
95.64
74.96
57.01
42.62
32.53
27.12
25.82
26.95
28.21
27.59
24.18
18.43
11.51
4.50
-2.14
-8.28
-13.42
-16.23
-14.79
-7.70
4.94
21.23
38.32
53.89
66.99
78.02
87.69
95.92
101.51
102.69
98.19
87.96
73.16
55.56
36.95
18.79
2.22
-12.01
-23.74
-33.65
-43.13
-53.69
-66.17
-80.28
-94.73
-108.02
-119.14
-127.93
-134.81
-140.29
-144.70
-148.14
-150.66
-152.08
-151.64
-147.54
-137.01
-117.28
-87.10
-48.27
-5.72
33.75
63.92
81.45
86.84
83.46
75.47
65.82
55.58
44.71
33.37
22.58
13.80
7.86
4.18
1.04
-3.27
-9.34
-16.37
-22.82
-27.44
-29.71
-29.80
-27.94
-24.25
-19.11
-13.60
-9.49
-8.61
-11.62
-17.42
-23.42
-26.63
-24.85
-17.32
-4.55
12.18
31.40
51.58
71.29
89.24
104.52
116.82
126.32
133.38
138.18
140.62
140.53
137.96
133.33
127.25
120.21
112.39
103.69
94.01
83.46
72.32
61.03
49.94
39.38
29.59
20.72
12.72
5.17
-2.68
-11.80
-22.97
-36.49
-51.96
-68.16
-83.37
-95.65
-103.44
-105.96
-103.58
-97.65
-90.11
-82.78
-76.85
-72.68
-70.02
-68.40
-67.46
-67.06
-67.13
-67.51
-67.85
-67.73
-66.84
-65.11
-62.76
-60.19
-57.91
-56.33
-55.69
-55.90
-56.57
-57.05
-56.68
-54.99
-52.03
-48.33
-44.77
-42.22
-41.14
-41.29
-41.72
-40.97
-37.60
-30.69
-20.18
-6.94
7.43
21.08
32.35
40.06
43.65
43.05
38.53
30.63
20.12
8.02
-4.53
-16.41
-26.85
-35.62
-42.99
-49.51
-55.45
-60.44
-63.41
-62.88
-57.70
-47.72
-33.98
-18.42
-3.09
10.59
22.03
31.09
37.46
40.03
37.29
28.26
13.56
-4.07
-20.37
-30.95
-32.68
-24.69
-8.25
13.72
37.63
59.96
77.84
89.46
94.34
93.40
88.57
82.10
75.82
70.74
67.01
64.31
62.12
59.95
57.40
54.28
50.63
46.82
43.32
40.34
37.61
34.35
29.74
23.38
15.67
7.62
0.40
-5.12
-8.64
-10.04
-9.23
-5.98
-0.26
7.40
15.84
23.62
29.49
32.68
32.85
29.75
23.07
12.51
-1.88
-19.26
-38.11
-56.61
-73.33
-87.57
-99.40
-109.15
-116.97
-122.73
-126.09
-127.02
-125.80
-123.08
-119.60
-116.05
-112.97
-110.80
-109.90
-110.35
-111.85
-113.42
-113.57
-110.64
-103.29
-90.98
-74.22
-54.39
-33.34
-12.86
5.65
21.33
33.69
42.48
47.66
49.40
48.22
45.04
40.90
36.65
32.70
28.97
25.04
20.57
15.54
10.27
5.37
1.34
-1.62
-3.75
-5.82
-8.94
-14.44
-23.35
-35.90
-51.03
-66.33
-78.66
-85.12
-84.08
-75.80
-62.19
-45.96
-29.67
-15.11
-3.16
5.82
11.63
14.05
13.10
9.21
3.44
-2.84
-8.38
-12.46
-15.10
-16.80
-18.17
-19.48
-20.55
-20.75
-19.44
-16.25
-11.35
-5.52
0.04
3.94
4.92
2.31
-3.56
-11.15
-17.85
-20.59
-16.78
-5.28
13.23
36.39
60.92
83.68
102.30
115.58
123.29
125.86
124.05
118.85
111.34
102.63
93.64
84.84
76.32
67.90
59.57
51.72
45.04
40.33
37.96
37.66
38.51
39.36
39.17
37.22
33.17
27.00
19.16
10.67
3.34
-0.68
0.59
8.19
21.74
39.52
59.05
77.80
93.73
105.52
112.38
113.96
110.15
101.28
88.09
71.76
53.71
35.26
17.50
1.21
-13.14
-25.27
-35.13
-42.81
-48.58
-52.89
-56.16
-58.90
-61.63
-64.98
-69.69
-76.45
-85.42
-95.79
-105.56
-111.98
-112.28
-104.83
-89.77
-69.00
-45.53
-22.41
-1.96
14.52
26.47
33.72
36.28
34.44
28.97
21.14
12.45
4.20
-2.95
-9.03
-14.43
-19.51
-24.30
-28.45
-31.49
-33.17
-33.66
-33.59
-33.96
-35.88
-40.30
-47.61
-57.30
-67.72
-76.34
-80.27
-77.26
-66.43
-48.75
-26.74
-3.68
17.34
34.19
45.84
52.27
53.99
51.75
46.38
38.72
29.64
19.90
10.11
0.72
-7.90
-15.39
-21.49
-26.07
-29.26
-31.43
-33.11
-34.85
-37.18
-40.67
-45.91
-53.29
-62.54
-72.31
-80.11
-82.86
-77.96
-64.37
-43.17
-17.30
9.44
33.54
52.60
65.59
72.53
74.05
70.98
64.17
54.61
43.35
31.47
19.98
9.64
0.90
-6.09
-11.42
-15.29
-17.99
-19.78
-20.99
-22.07
-23.70
-26.80
-32.27
-40.53
-50.93
-61.61
-69.58
-71.64
-65.49
-50.54
-28.28
-1.86
24.94
48.66
66.96
78.77
84.14
83.81
78.92
70.81
60.88
50.44
40.60
32.09
25.27
20.17
16.53
13.97
12.05
10.30
8.33
5.82
2.44
-2.25
-8.86
-17.99
-29.76
-43.29
-56.40
-65.92
-68.59
-62.23
-46.65
-23.93
2.24
27.67
48.88
63.88
72.22
74.65
72.42
66.85
59.04
49.86
40.08
30.44
21.70
14.50
9.16
5.65
3.50
2.08
0.76
-0.85
-3.02
-6.00
-10.37
-17.00
-26.59
-39.13
-53.19
-65.91
-73.57
-72.95
-62.46
-42.96
-17.62
9.14
33.00
50.91
61.59
65.34
63.37
57.19
48.16
37.44
26.07
14.99
5.01
-3.33
-9.88
-14.93
-19.00
-22.72
-26.56
-30.75
-35.38
-40.51
-46.55
-54.24
-64.46
-77.58
-92.75
-107.43
-117.67
-119.32
-109.57
-88.33
-58.54
-25.35
5.61
29.99
45.76
53.16
53.86
49.87
42.80
33.82
23.81
13.69
4.33
-3.65
-10.19
-15.82
-21.36
-27.44
-34.08
-40.64
-46.36
-51.04
-55.69
-62.35
-73.08
-88.72
-107.85
-126.96
-141.62
-148.18
-145.05
-132.84
-113.63
-89.82
-63.46
-36.33
-10.58
11.02
25.47
30.67
26.51
15.26
0.79
-12.78
-22.23
-25.60
-21.71
-9.72
10.61
38.17
69.63
99.54
121.41
129.88
122.67
101.35
70.63
36.52
4.33
-22.23
-40.80
-49.54
-46.81
-31.87
-6.14
25.95
57.64
81.96
94.22
93.88
84.46
71.74
60.98
54.91
53.34
54.37
55.99
57.05
57.39
57.35
57.33
57.65
58.59
60.35
62.81
65.18
66.16
64.30
58.77
49.73
38.22
25.54
12.71
0.27
-11.40
-21.58
-29.17
-32.98
-32.40
-27.48
-19.15
-8.84
1.81
11.28
18.38
22.29
22.65
19.64
13.94
6.61
-1.25
-8.70
-15.16
-20.40
-24.41
-27.30
-29.28
-30.60
-31.64
-32.91
-35.00
-38.59
-44.31
-52.72
-64.07
-78.15
-94.10
-110.22
-124.02
-132.67
-133.80
-126.29
-110.88
-90.03
-67.21
-45.85
-28.44
-16.13
-8.90
-5.97
-6.21
-8.39
-11.30
-13.92
-15.49
-15.64
-14.48
-12.34
-9.76
-7.22
-5.12
-3.71
-3.10
-3.24
-4.02
-5.42
-7.74
-11.51
-17.22
-24.69
-32.56
-38.23
-38.52
-30.90
-14.72
8.26
34.21
58.61
77.76
89.84
95.20
95.68
93.65
91.19
89.70
89.95
92.15
96.12
101.30
106.84
111.86
115.81
118.59
120.61
122.30
123.81
124.78
124.46
122.03
117.01
109.41
99.91
89.87
81.35
76.72
78.11
86.57
101.32
119.70
137.94
152.52
161.43
164.69
163.87
160.98
157.32
152.98
147.41
140.27
132.00
123.73
116.39
109.84
102.80
93.67
81.78
68.10
54.80
43.59
34.03
23.02
5.96
-21.05
-58.82
-104.14
-150.42
-189.60
-214.13
-218.61
-200.76
-161.86
-106.81
-43.58
18.30
70.04
105.94
124.85
129.80
125.91
117.72
107.38
94.57
77.81
56.43
31.66
6.35
-16.39
-34.67
-48.60
-59.75
-70.04
-80.73
-92.15
-104.03
-116.18
-128.54
-140.96
-153.06
-164.23
-173.83
-181.19
-185.44
-185.10
-178.34
-163.67
-141.16
-112.95
-82.79
-54.73
-31.62
-14.50
-2.97
3.68
5.79
3.51
-2.58
-11.06
-20.03
-28.09
-35.04
-41.62
-48.61
-55.72
-61.37
-63.48
-60.91
-54.33
-46.36
-40.52
-39.88
-46.06
-58.79
-76.11
-95.07
-112.39
-125.10
-131.05
-129.32
-120.25
-105.35
-86.82
-67.10
-48.29
-31.78
-18.16
-7.51
0.21
4.79
5.94
3.99
0.50
-1.74
0.44
9.12
24.18
43.41
63.63
82.27
98.21
111.56
122.62
131.02
135.63
135.28
129.84
120.59
109.86
100.12
93.17
89.82
90.01
93.07
97.75
102.35
105.05
104.35
99.64
91.19
79.96
66.95
52.96
38.57
24.38
11.14
-0.41
-9.92
-17.68
-24.54
-31.41
-38.74
-46.23
-53.04
-58.35
-61.78
-63.62
-64.66
-65.87
-68.09
-71.96
-77.67
-84.75
-91.85
-96.82
-97.27
-91.43
-78.97
-61.22
-40.81
-20.68
-3.20
10.40
19.95
25.79
28.42
28.23
25.68
21.52
16.72
12.31
8.89
6.45
4.48
2.33
-0.39
-3.54
-6.61
-9.08
-10.83
-12.20
-13.93
-16.86
-21.63
-28.54
-37.39
-47.25
-56.51
-62.94
-64.29
-59.08
-47.25
-30.42
-11.40
6.76
21.75
32.51
39.18
42.51
43.33
42.15
39.31
35.14
30.24
25.35
21.19
18.09
15.96
14.29
12.45
10.06
7.11
3.92
0.97
-1.47
-3.50
-5.68
-8.87
-13.92
-21.31
-30.73
-40.88
-49.56
-54.31
-53.17
-45.48
-32.24
-15.74
1.19
16.15
27.76
35.73
40.40
42.24
41.60
38.73
34.10
28.52
23.02
18.55
15.56
13.84
12.67
11.15
8.63
5.02
0.77
-3.38
-6.76
-9.08
-10.61
-12.15
-14.74
-19.33
-26.29
-35.16
-44.45
-51.94
-55.24
-52.66
-43.88
-30.09
-13.62
2.89
17.30
28.45
36.16
40.75
42.60
41.93
38.88
33.80
27.43
20.89
15.34
11.54
9.54
8.70
7.97
6.43
3.73
0.19
-3.38
-6.21
-8.00
-9.11
-10.46
-13.05
-17.65
-24.53
-33.29
-42.87
-51.58
-57.37
-58.35
-53.36
-42.53
-27.31
-10.13
6.46
20.52
31.08
38.04
41.73
42.55
40.73
36.58
30.69
24.09
18.02
13.60
11.29
10.83
11.24
11.39
10.40
8.07
4.83
1.44
-1.38
-3.38
-4.88
-6.60
-9.37
-13.89
-20.46
-28.77
-37.84
-45.94
-50.97
-51.02
-45.06
-33.46
-17.90
-0.88
15.16
28.54
38.52
45.09
48.46
48.75
46.01
40.58
33.28
25.46
18.59
13.75
11.24
10.53
10.57
10.26
8.96
6.62
3.71
0.89
-1.33
-2.87
-4.09
-5.59
-8.11
-12.24
-18.32
-26.27
-35.29
-43.91
-50.09
-51.80
-47.70
-37.72
-23.19
-6.43
10.08
24.39
35.45
43.01
47.12
47.85
45.18
39.38
31.22
22.09
13.68
7.38
3.86
2.83
3.24
3.76
3.34
1.59
-1.24
-4.50
-7.59
-10.20
-12.53
-15.12
-18.66
-23.77
-30.86
-39.93
-50.28
-60.42
-68.14
-70.99
-67.17
-56.21
-39.43
-19.49
0.50
17.97
31.51
40.78
45.98
47.32
44.79
38.51
29.19
18.37
8.17
0.55
-3.44
-4.06
-2.74
-1.33
-1.29
-3.12
-6.31
-9.79
-12.62
-14.43
-15.65
-17.20
-20.14
-25.26
-32.93
-42.95
-54.37
-65.41
-73.65
-76.51
-72.05
-59.78
-40.96
-18.28
4.88
25.60
41.98
53.27
59.51
61.00
58.05
51.06
40.83
28.85
17.07
7.47
1.35
-1.09
-0.86
0.25
0.47
-1.26
-4.90
-9.52
-13.92
-17.24
-19.43
-21.29
-24.07
-29.07
-37.11
-48.29
-61.72
-75.43
-86.51
-91.76
-88.62
-76.09
-55.30
-29.27
-1.95
23.07
43.39
58.07
67.21
71.14
70.12
64.36
54.53
42.06
29.12
18.03
10.39
6.60
5.77
6.19
6.15
4.60
1.46
-2.58
-6.54
-9.77
-12.27
-14.71
-18.18
-23.85
-32.56
-44.46
-58.76
-73.48
-85.61
-91.66
-88.64
-75.12
-52.00
-22.40
9.24
38.49
62.19
78.96
88.93
92.97
91.95
86.44
76.89
64.17
49.83
36.05
25.01
18.12
15.48
15.83
17.05
17.08
14.72
10.01
4.02
-1.81
-6.48
-9.90
-12.90
-16.84
-23.03
-32.34
-44.96
-60.27
-76.70
-91.67
-101.81
-103.67
-94.81
-74.84
-45.94
-12.33
20.91
49.45
70.77
84.32
90.93
91.87
88.14
80.45
69.59
56.84
44.12
33.46
26.42
23.42
23.56
25.00
25.75
24.45
20.86
15.76
10.39
5.73
2.02
-1.37
-5.60
-11.83
-20.88
-32.98
-47.69
-63.81
-79.22
-90.97
-95.80
-91.07
-75.84
-51.60
-21.96
8.35
35.09
55.63
69.27
76.67
78.88
76.66
70.39
60.54
48.21
35.29
24.06
16.42
13.18
13.69
16.19
18.46
18.80
16.57
12.29
7.15
2.30
-1.73
-5.29
-9.28
-14.75
-22.48
-32.81
-45.56
-59.93
-74.27
-86.00
-91.93
-89.18
-76.31
-54.20
-26.01
3.70
30.53
51.48
65.50
73.11
75.42
73.45
67.76
58.86
47.58
35.42
24.26
15.82
11.04
9.73
10.66
12.07
12.37
10.64
6.96
2.19
-2.60
-6.67
-9.97
-13.17
-17.29
-23.28
-31.72
-42.62
-55.41
-68.76
-80.53
-87.95
-88.14
-79.16
-60.88
-35.42
-6.68
21.00
44.13
60.94
71.39
76.37
76.89
73.62
66.99
57.63
46.77
36.15
27.54
22.12
20.06
20.42
21.61
21.98
20.47
16.95
12.15
7.15
2.84
-0.50
-3.34
-6.62
-11.37
-18.39
-28.07
-40.23
-53.96
-67.36
-77.67
-81.80
-77.29
-63.38
-41.57
-15.26
11.30
34.45
52.08
63.80
70.36
72.75
71.56
67.02
59.39
49.47
38.79
29.29
22.58
19.38
19.15
20.38
21.20
20.18
16.82
11.64
5.73
0.19
-4.41
-8.18
-11.83
-16.32
-22.51
-30.98
-41.90
-54.82
-68.34
-80.11
-87.12
-86.52
-76.73
-58.24
-33.71
-7.19
17.26
36.81
50.36
58.29
61.67
61.42
58.04
51.85
43.49
34.21
25.72
19.53
16.41
15.96
16.84
17.33
16.07
12.59
7.36
1.52
-3.84
-8.05
-11.21
-14.05
-17.66
-23.03
-30.88
-41.37
-54.01
-67.44
-79.41
-87.05
-87.64
-79.48
-62.78
-39.82
-14.35
9.60
28.99
42.56
50.64
54.42
55.09
53.31
49.30
43.24
35.79
28.16
21.75
17.62
16.00
16.19
16.84
16.52
14.31
10.15
4.75
-0.80
-5.58
-9.27
-12.30
-15.52
-19.88
-26.10
-34.52
-45.04
-57.01
-69.08
-79.09
-84.38
-82.50
-72.18
-54.10
-30.85
-6.21
16.18
33.91
46.23
53.80
57.74
58.97
57.83
54.38
48.81
41.83
34.62
28.46
24.24
22.13
21.50
21.26
20.26
17.82
13.91
9.10
4.17
-0.25
-4.06
-7.69
-11.87
-17.29
-24.37
-33.22
-43.62
-54.94
-66.04
-75.03
-79.57
-77.40
-67.32
-49.83
-27.29
-3.28
18.61
35.83
47.50
54.18
57.10
57.43
55.76
52.27
47.11
40.76
34.10
28.21
23.90
21.45
20.47
20.13
19.50
17.92
15.18
11.48
7.32
3.17
-0.69
-4.25
-7.78
-11.64
-16.27
-22.04
-29.30
-38.21
-48.54
-59.38
-68.87
-74.56
-73.97
-65.64
-49.88
-28.90
-6.13
14.86
31.56
43.05
49.82
53.05
53.82
52.68
49.80
45.29
39.60
33.56
28.20
24.37
22.46
22.18
22.78
23.27
22.82
20.97
17.77
13.62
9.06
4.50
0.05
-4.44
-9.28
-14.70
-20.88
-28.01
-36.26
-45.63
-55.61
-64.79
-70.92
-71.44
-64.50
-49.93
-29.55
-6.77
14.63
31.72
43.23
49.53
51.87
51.60
49.53
45.89
40.75
34.42
27.64
21.43
16.77
14.18
13.59
14.38
15.62
16.40
16.04
14.26
11.18
7.14
2.55
-2.31
-7.30
-12.52
-18.08
-24.12
-30.80
-38.29
-46.78
-56.12
-65.48
-73.15
-76.72
-73.89
-63.35
-45.66
-23.23
0.35
21.47
37.62
47.91
52.87
53.76
51.86
48.14
43.19
37.50
31.74
26.70
23.06
21.19
20.90
21.58
22.34
22.42
21.32
18.89
15.28
10.80
5.84
0.67
-4.52
-9.72
-15.06
-20.76
-27.13
-34.49
-43.08
-52.91
-63.50
-73.62
-81.27
-84.06
-79.92
-68.02
-49.25
-26.17
-2.34
18.86
35.13
45.67
50.96
52.22
50.71
47.41
42.99
37.91
32.67
27.77
23.72
20.80
19.13
18.55
18.74
19.23
19.52
19.11
17.60
14.73
10.54
5.28
-0.61
-6.67
-12.57
-18.19
-23.64
-29.26
-35.57
-43.18
-52.55
-63.55
-75.10
-84.97
-90.22
-88.15
-77.31
-58.30
-33.72
-7.37
16.92
36.43
50.00
57.83
60.87
60.26
57.00
51.97
46.07
40.23
35.30
31.83
29.88
29.04
28.65
28.04
26.92
25.38
23.81
22.51
21.45
20.07
17.48
12.91
6.13
-2.37
-11.49
-20.01
-27.10
-32.72
-37.60
-42.93
-49.95
-59.42
-71.14
-83.72
-94.59
-100.56
-98.72
-87.54
-67.53
-41.34
-12.94
13.68
35.54
51.34
61.30
66.46
68.00
66.87
63.75
59.24
54.09
49.20
45.36
43.04
42.23
42.48
43.12
43.60
43.59
43.15
42.54
42.00
41.60
41.13
40.15
38.18
34.85
30.08
24.14
17.50
10.82
4.63
-0.72
-5.27
-9.42
-13.80
-19.02
-25.34
-32.55
-39.96
-46.67
-52.03
-55.91
-58.84
-61.79
-65.88
-71.97
-80.50
-91.25
-103.16
-114.27
-121.82
-122.89
-115.31
-98.58
-74.29
-45.81
-17.14
8.26
28.39
42.80
52.04
56.96
58.31
56.69
52.79
47.65
42.55
38.68
36.76
36.75
37.99
39.47
40.28
39.95
38.55
36.56
34.57
32.94
31.57
29.87
27.00
22.22
15.26
6.50
-3.10
-12.40
-20.40
-26.70
-31.57
-35.77
-40.31
-46.11
-53.75
-63.23
-73.77
-83.71
-90.74
-92.36
-86.71
-73.30
-53.37
-29.60
-5.32
16.44
33.69
45.74
52.94
56.19
56.48
54.69
51.52
47.56
43.37
39.45
36.16
33.65
31.80
30.29
28.81
27.21
25.58
24.13
22.95
21.81
20.07
16.98
12.02
5.26
-2.64
-10.69
-18.00
-24.19
-29.51
-34.80
-41.08
-49.26
-59.61
-71.44
-82.89
-91.24
-93.62
-87.96
-73.92
-53.17
-28.98
-5.18
15.04
29.92
39.27
43.99
45.35
44.44
41.93
38.23
33.70
28.81
24.17
20.36
17.76
16.44
16.16
16.40
16.58
16.16
14.77
12.28
8.80
4.57
-0.15
-5.17
-10.39
-15.84
-21.64
-28.06
-35.49
-44.38
-55.02
-67.01
-78.93
-88.26
-92.03
-87.84
-74.95
-54.78
-30.58
-6.38
14.38
29.83
39.78
45.19
47.36
47.22
45.21
41.51
36.51
30.93
25.81
22.15
20.47
20.67
21.96
23.20
23.30
21.61
18.10
13.27
7.87
2.55
-2.39
-7.19
-12.36
-18.53
-26.24
-35.80
-47.19
-59.86
-72.54
-83.16
-89.16
-88.17
-78.94
-62.03
-39.81
-15.82
6.45
24.59
37.67
46.11
50.92
53.07
53.13
51.30
47.79
43.07
37.97
33.48
30.40
29.06
29.09
29.58
29.42
27.72
24.19
19.20
13.61
8.32
3.85
0.10
-3.57
-8.04
-14.18
-22.50
-33.06
-45.35
-58.13
-69.42
-76.73
-77.64
-70.64
-55.81
-35.09
-11.74
10.61
29.13
42.49
50.82
55.21
56.89
56.72
55.04
52.01
47.87
43.14
38.54
34.77
32.28
31.02
30.50
29.95
28.62
26.02
22.15
17.40
12.32
7.37
2.63
-2.14
-7.37
-13.40
-20.41
-28.49
-37.71
-48.11
-59.33
-70.19
-78.54
-81.65
-77.17
-64.23
-44.10
-19.96
4.21
24.91
40.26
50.12
55.65
58.27
59.04
58.38
56.36
53.02
48.78
44.31
40.36
37.55
36.04
35.58
35.66
35.63
34.93
33.16
30.15
25.93
20.71
14.74
8.30
1.67
-4.95
-11.42
-17.78
-24.28
-31.49
-40.03
-50.17
-61.31
-71.65
-78.43
-78.85
-71.15
-55.47
-34.08
-10.52
11.58
29.71
42.96
51.76
57.15
60.07
61.03
60.27
58.09
55.10
52.14
49.95
48.89
48.69
48.64
47.95
46.11
43.21
39.85
36.74
34.29
32.21
29.54
25.14
18.23
8.92
-1.77
-12.33
-21.39
-28.28
-33.25
-37.23
-41.40
-46.83
-54.20
-63.61
-74.40
-84.98
-92.92
-95.47
-90.46
-77.20
-57.05
-33.06
-9.03
11.82
27.71
38.54
45.35
49.47
51.80
52.63
51.88
49.58
46.22
42.68
39.93
38.55
38.50
39.11
39.45
38.77
36.80
33.90
30.74
27.93
25.63
23.43
20.47
15.97
9.51
1.39
-7.43
-15.73
-22.46
-27.26
-30.54
-33.32
-36.81
-42.03
-49.52
-59.19
-70.23
-81.10
-89.59
-93.23
-89.96
-78.97
-61.14
-39.00
-15.96
4.75
21.08
32.49
39.67
43.86
46.08
46.84
46.25
44.41
41.69
38.85
36.78
36.05
36.65
37.90
38.82
38.58
36.90
34.16
31.12
28.50
26.47
24.64
22.13
18.11
12.15
4.48
-4.15
-12.74
-20.40
-26.64
-31.51
-35.53
-39.49
-44.32
-50.76
-59.12
-68.95
-78.91
-86.81
-90.12
-86.77
-75.95
-58.52
-36.92
-14.38
6.09
22.47
34.09
41.29
44.88
45.65
44.21
41.09
37.00
32.89
29.72
28.09
27.98
28.69
29.24
28.82
27.16
24.66
22.02
19.89
18.40
17.06
15.06
11.56
6.21
-0.79
-8.67
-16.45
-23.24
-28.62
-32.71
-36.24
-40.23
-45.75
-53.43
-63.08
-73.47
-82.43
-87.32
-85.86
-76.93
-61.13
-40.64
-18.61
1.81
18.35
30.04
37.11
40.47
41.21
40.21
38.04
35.14
31.90
28.73
26.02
24.08
23.02
22.78
23.18
23.94
24.69
24.98
24.31
22.23
18.52
13.29
6.93
-0.00
-6.99
-13.74
-20.22
-26.58
-33.13
-40.33
-48.65
-58.32
-68.92
-78.98
-86.11
-87.57
-81.25
-66.74
-45.64
-21.25
2.58
22.63
37.19
46.17
50.67
52.13
51.76
50.28
47.91
44.74
40.97
37.02
33.42
30.71
29.12
28.52
28.46
28.33
27.59
25.86
23.07
19.28
14.66
9.37
3.59
-2.52
-8.80
-15.15
-21.60
-28.39
-35.97
-44.81
-54.93
-65.48
-74.55
-79.51
-77.80
-68.04
-50.68
-28.18
-4.16
17.76
35.08
46.91
53.76
56.87
57.41
56.14
53.40
49.41
44.57
39.51
34.97
31.56
29.50
28.61
28.37
28.15
27.40
25.74
23.02
19.22
14.41
8.68
2.18
-4.86
-12.16
-19.42
-26.46
-33.37
-40.57
-48.61
-57.89
-68.07
-77.81
-84.77
-86.26
-80.20
-65.95
-44.79
-19.59
6.02
28.79
46.66
59.02
66.36
69.71
70.03
67.99
64.05
58.62
52.26
45.65
39.51
34.37
30.49
27.80
25.96
24.53
22.96
20.77
17.62
13.40
8.26
2.50
-3.51
-9.46
-15.28
-21.07
-27.13
-33.85
-41.68
-50.93
-61.50
-72.55
-82.29
-88.19
-87.67
-79.03
-62.29
-39.42
-13.80
10.79
31.30
46.09
55.01
58.93
59.13
56.74
52.66
47.54
41.99
36.56
31.78
27.95
25.18
23.39
22.39
22.01
22.06
22.23
22.08
21.00
18.43
14.04
7.90
0.49
-7.50
-15.42
-22.83
-29.66
-36.16
-42.92
-50.67
-60.07
-71.20
-83.09
-93.55
-99.53
-98.11
-87.58
-68.36
-43.00
-15.38
10.56
31.97
47.61
57.61
62.81
64.13
62.28
57.91
51.89
45.30
39.30
34.76
31.95
30.60
30.09
29.85
29.57
29.25
28.92
28.47
27.44
25.14
20.90
14.39
5.84
-3.97
-13.98
-23.15
-30.92
-37.37
-43.18
-49.51
-57.52
-67.96
-80.64
-94.11
-105.69
-112.08
-110.33
-98.95
-78.57
-51.88
-22.84
4.51
27.20
43.80
54.28
59.50
60.56
58.50
54.23
48.73
43.04
38.19
34.91
33.37
33.18
33.64
34.00
33.88
33.35
32.68
32.05
31.23
29.53
26.09
20.29
12.11
2.26
-8.10
-17.76
-25.97
-32.66
-38.49
-44.57
-52.15
-62.12
-74.50
-88.08
-100.34
-107.94
-107.66
-97.54
-77.77
-50.84
-20.85
7.80
31.63
48.89
59.53
64.61
65.58
63.69
59.90
54.93
49.54
44.45
40.32
37.47
35.90
35.28
35.11
34.97
34.56
33.71
32.29
30.11
26.88
22.30
16.26
8.90
0.70
-7.68
-15.66
-22.91
-29.60
-36.37
-44.20
-53.98
-66.02
-79.51
-92.31
-101.25
-103.00
-95.22
-77.61
-52.25
-23.01
5.62
29.94
47.95
59.40
65.29
66.96
65.52
61.66
55.92
48.95
41.67
35.08
29.95
26.62
24.95
24.48
24.65
24.94
24.91
24.10
22.09
18.45
13.03
6.00
-2.07
-10.38
-18.24
-25.27
-31.61
-37.87
-45.04
-54.08
-65.48
-78.75
-92.00
-102.14
-105.62
-99.60
-83.19
-58.01
-27.89
2.31
28.28
47.41
59.17
64.65
65.56
63.37
58.95
52.74
45.13
36.90
29.22
23.36
20.18
19.78
21.37
23.54
24.76
23.89
20.61
15.29
8.85
2.19
-4.10
-10.05
-16.09
-22.85
-30.91
-40.68
-52.36
-65.76
-79.99
-93.18
-102.53
-104.91
-97.93
-80.99
-55.91
-26.50
2.66
27.64
46.26
58.21
64.46
66.27
64.64
60.14
53.28
44.92
36.44
29.37
24.94
23.50
24.31
25.86
26.40
24.71
20.51
14.47
7.82
1.68
-3.56
-8.31
-13.64
-20.80
-30.76
-43.89
-59.86
-77.49
-94.61
-108.30
-115.36
-113.29
-101.30
-80.91
-55.65
-29.99
-7.89
8.28
18.06
22.30
22.20
18.58
11.71
1.74
-10.75
-24.50
-37.84
-49.31
-58.29
-65.25
-71.61
-79.09
-88.94
-101.40
-115.63
-130.08
-143.22
-153.99
-162.08
-167.66
-171.01
-172.16
-170.79
-166.17
-157.26
-142.67
-120.72
-89.82
-49.23
0.19
55.49
111.89
163.93
206.86
237.97
256.88
265.15
265.23
259.51
249.78
237.22
222.74
207.24
191.72
177.13
164.15
153.07
143.69
135.55
127.92
120.10
111.49
101.74
90.85
79.08
66.85
54.60
42.59
30.86
19.35
7.87
-3.83
-16.08
-29.30
-43.64
-58.52
-72.22
-81.92
-84.46
-77.52
-60.84
-36.65
-9.11
17.08
38.28
52.89
61.37
65.40
66.78
66.71
65.64
63.66
60.92
57.88
55.11
53.02
51.60
50.45
49.04
47.03
44.45
41.62
38.82
36.01
32.77
28.42
22.35
14.42
5.04
-4.92
-14.45
-22.76
-29.59
-35.30
-40.82
-47.36
-56.02
-67.13
-79.78
-91.62
-99.27
-99.43
-90.11
-71.65
-46.77
-19.64
5.50
25.69
39.90
48.72
53.59
55.93
56.65
56.15
54.62
52.29
49.55
46.79
44.26
42.03
39.96
37.91
35.79
33.63
31.45
29.17
26.50
22.96
18.07
11.64
3.86
-4.66
-13.09
-20.71
-27.16
-32.60
-37.72
-43.53
-51.00
-60.48
-71.26
-81.32
-87.73
-87.58
-79.12
-62.62
-40.50
-16.50
5.61
23.20
35.43
42.91
47.01
48.96
49.53
48.99
47.44
45.14
42.45
39.76
37.27
34.93
32.54
29.92
27.12
24.35
21.89
19.77
17.73
15.25
11.70
6.74
0.48
-6.55
-13.55
-19.85
-25.17
-29.78
-34.42
-40.11
-47.66
-57.26
-68.04
-78.02
-84.47
-84.79
-77.44
-62.70
-42.73
-20.87
-0.47
16.01
27.64
34.82
38.61
40.13
40.14
39.05
37.14
34.81
32.54
30.80
29.78
29.31
28.94
28.17
26.72
24.67
22.41
20.32
18.47
16.51
13.74
9.45
3.32
-4.35
-12.63
-20.44
-26.87
-31.58
-34.91
-37.75
-41.23
-46.34
-53.54
-62.40
-71.46
-78.40
-80.71
-76.49
-65.29
-48.42
-28.56
-8.90
7.90
20.49
28.83
33.83
36.60
37.98
38.34
37.84
36.70
35.36
34.37
34.13
34.58
35.24
35.37
34.40
32.23
29.25
26.19
23.66
21.82
20.28
18.26
15.02
10.12
3.73
-3.43
-10.42
-16.40
-20.99
-24.42
-27.45
-31.07
-36.13
-43.04
-51.49
-60.38
-67.91
-71.92
-70.51
-62.74
-49.05
-31.34
-12.43
4.81
18.40
27.65
33.10
35.90
37.13
37.44
37.04
35.94
34.35
32.69
31.48
31.06
31.40
32.05
32.37
31.84
30.29
28.00
25.46
23.12
21.07
18.93
16.02
11.68
5.73
-1.44
-8.87
-15.50
-20.58
-23.98
-26.27
-28.40
-31.42
-36.07
-42.58
-50.58
-59.03
-66.21
-70.11
-68.86
-61.46
-48.28
-31.12
-12.72
4.14
17.46
26.58
31.99
34.82
36.16
36.67
36.56
35.83
34.59
33.16
31.98
31.44
31.62
32.37
33.35
34.28
34.99
35.46
35.70
35.65
35.11
33.89
31.85
29.03
25.67
22.11
18.64
15.32
12.03
8.52
4.62
0.38
-3.89
-7.75
-10.94
-13.50
-15.81
-18.41
-21.70
-25.73
-30.19
-34.63
-38.65
-42.14
-45.27
-48.47
-52.20
-56.95
-63.07
-70.68
-79.41
-88.15
-95.07
-97.90
-94.66
-84.45
-67.99
-47.58
-26.41
-7.53
7.08
16.92
22.72
25.73
27.09
27.45
27.02
25.91
24.39
22.95
22.14
22.33
23.51
25.34
27.29
28.83
29.63
29.56
28.73
27.28
25.34
22.95
20.03
16.43
12.02
6.76
0.75
-5.76
-12.41
-18.78
-24.54
-29.51
-33.70
-37.27
-40.53
-43.94
-48.04
-53.39
-60.28
-68.41
-76.67
-83.18
-85.76
-82.62
-73.19
-58.36
-40.36
-21.94
-5.56
7.38
16.59
22.67
26.50
28.77
29.80
29.64
28.44
26.62
24.83
23.72
23.62
24.35
25.32
25.85
25.49
24.28
22.67
21.20
20.17
19.38
18.23
15.90
11.79
5.78
-1.68
-9.70
-17.26
-23.59
-28.37
-31.86
-34.76
-38.01
-42.55
-49.02
-57.44
-67.00
-76.02
-82.30
-83.63
-78.63
-67.21
-50.77
-31.74
-12.88
3.46
15.96
24.35
29.16
31.35
31.87
31.48
30.69
29.80
29.07
28.64
28.55
28.67
28.70
28.28
27.16
25.43
23.43
21.59
20.11
18.75
16.89
13.77
9.01
2.70
-4.57
-11.96
-18.75
-24.63
-29.76
-34.75
-40.46
-47.67
-56.72
-67.10
-77.21
-84.67
-86.87
-81.95
-69.62
-51.35
-30.03
-8.98
9.03
22.48
31.21
36.06
38.24
38.83
38.47
37.41
35.78
33.69
31.41
29.29
27.65
26.60
26.08
25.81
25.44
24.61
22.94
20.20
16.27
11.24
5.41
-0.83
-7.12
-13.29
-19.39
-25.68
-32.58
-40.58
-50.10
-61.17
-73.03
-83.89
-91.14
-91.99
-84.61
-68.96
-47.04
-22.41
1.06
20.33
34.00
42.33
46.66
48.63
49.50
49.90
49.89
49.27
47.89
45.79
43.28
40.83
38.86
37.48
36.52
35.53
33.97
31.44
27.74
22.90
17.13
10.69
3.87
-3.12
-10.21
-17.43
-25.01
-33.34
-42.79
-53.49
-64.89
-75.59
-83.31
-85.54
-80.31
-67.10
-47.25
-23.65
0.04
20.59
36.04
46.01
51.36
53.51
53.78
53.01
51.58
49.61
47.22
44.63
42.15
40.04
38.48
37.47
36.87
36.40
35.77
34.59
32.51
29.23
24.59
18.61
11.57
3.92
-3.79
-11.14
-17.95
-24.38
-30.90
-38.21
-46.85
-56.81
-67.08
-75.67
-79.90
-77.37
-66.84
-48.98
-26.28
-2.32
19.37
36.43
48.07
54.86
57.97
58.52
57.21
54.42
50.63
46.64
43.41
41.69
41.67
42.80
44.06
44.46
43.56
41.60
39.26
37.18
35.52
33.82
31.22
26.95
20.73
12.96
4.57
-3.37
-10.11
-15.48
-19.84
-23.95
-28.65
-34.65
-42.32
-51.40
-60.83
-68.65
-72.39
-69.73
-59.55
-42.44
-20.80
1.94
22.43
38.45
49.31
55.56
58.28
58.45
56.69
53.38
49.07
44.53
40.77
38.67
38.60
40.35
43.15
46.05
48.26
49.39
49.49
48.83
47.64
45.89
43.31
39.54
34.50
28.47
22.09
16.10
10.95
6.65
2.70
-1.54
-6.55
-12.38
-18.67
-24.79
-30.16
-34.52
-37.97
-41.01
-44.29
-48.61
-54.64
-62.64
-72.17
-81.75
-89.02
-91.22
-86.15
-73.12
-53.39
-29.96
-6.52
13.69
28.87
38.79
44.31
46.60
46.55
44.63
41.20
36.89
32.63
29.50
28.24
28.98
31.20
33.99
36.48
38.08
38.56
37.93
36.34
33.95
30.94
27.47
23.69
19.59
15.07
10.00
4.27
-2.02
-8.57
-14.92
-20.65
-25.48
-29.32
-32.35
-34.97
-37.76
-41.39
-46.48
-53.31
-61.46
-69.62
-75.67
-77.29
-72.71
-61.47
-44.72
-24.88
-4.91
12.67
26.37
35.83
41.50
44.14
44.42
42.80
39.73
35.75
31.61
28.11
25.87
25.20
25.88
27.35
28.83
29.63
29.41
28.25
26.58
24.88
23.45
22.14
20.43
17.61
13.19
7.14
-0.04
-7.51
-14.43
-20.25
-24.94
-28.85
-32.55
-36.60
-41.50
-47.59
-55.05
-63.60
-72.20
-79.06
-81.87
-78.63
-68.47
-52.20
-32.17
-11.54
6.79
21.02
30.69
36.39
39.10
39.72
38.86
36.96
34.53
32.17
30.49
29.88
30.34
31.47
32.63
33.18
32.74
31.31
29.19
26.92
24.98
23.56
22.42
20.90
18.21
13.76
7.44
-0.23
-8.32
-15.86
-22.17
-27.07
-30.90
-34.35
-38.20
-43.19
-49.82
-58.16
-67.56
-76.56
-83.00
-84.54
-79.50
-67.55
-50.06
-29.65
-9.45
7.99
21.26
30.23
35.63
38.38
39.21
38.53
36.61
33.85
30.86
28.35
26.90
26.68
27.44
28.55
29.28
29.14
27.96
26.01
23.79
21.81
20.34
19.26
18.04
15.98
12.45
7.15
0.37
-7.19
-14.63
-21.18
-26.48
-30.69
-34.38
-38.31
-43.28
-49.84
-58.14
-67.62
-76.87
-83.81
-86.12
-82.11
-71.35
-54.98
-35.47
-15.78
1.51
14.96
24.30
30.21
33.69
35.56
36.30
36.09
35.09
33.59
32.06
31.04
30.82
31.41
32.38
33.13
33.09
32.02
30.05
27.55
25.00
22.71
20.70
18.64
16.02
12.34
7.32
1.08
-5.91
-12.94
-19.33
-24.63
-28.82
-32.28
-35.64
-39.69
-45.09
-52.27
-61.11
-70.78
-79.62
-85.43
-85.97
-79.85
-67.07
-49.21
-28.99
-9.41
7.18
19.61
27.91
32.91
35.64
36.93
37.24
36.88
36.07
35.17
34.59
34.65
35.49
36.93
38.58
39.93
40.51
40.08
38.66
36.49
33.95
31.36
28.81
26.10
22.80
18.46
12.84
6.08
-1.38
-8.90
-15.94
-22.19
-27.65
-32.52
-37.15
-42.00
-47.62
-54.47
-62.69
-71.68
-79.90
-85.06
-84.80
-77.65
-63.68
-44.73
-23.77
-3.95
12.38
24.25
31.92
36.40
38.80
39.98
40.41
40.34
39.99
39.64
39.55
39.90
40.66
41.64
42.53
43.03
42.92
42.13
40.69
38.69
36.23
33.36
30.09
26.36
22.05
17.04
11.24
4.75
-2.15
-9.00
-15.32
-20.79
-25.36
-29.28
-32.99
-36.95
-41.67
-47.55
-54.82
-63.32
-72.15
-79.65
-83.60
-81.91
-73.50
-58.80
-39.77
-19.34
-0.44
14.85
25.70
32.37
35.74
36.87
36.58
35.50
34.06
32.67
31.67
31.27
31.42
31.83
32.05
31.66
30.55
28.89
27.11
25.61
24.46
23.36
21.64
18.64
13.95
7.67
0.37
-7.11
-13.99
-19.87
-24.81
-29.37
-34.43
-40.81
-48.87
-58.20
-67.41
-74.35
-76.78
-73.05
-62.80
-47.17
-28.47
-9.46
7.51
21.01
30.69
36.96
40.61
42.44
43.09
43.04
42.64
42.14
41.64
41.09
40.31
39.12
37.46
35.42
33.28
31.32
29.75
28.48
27.12
25.05
21.68
16.70
10.30
3.14
-3.90
-10.09
-15.19
-19.51
-23.89
-29.26
-36.35
-45.41
-55.85
-66.31
-74.67
-78.61
-76.23
-66.84
-51.39
-32.25
-12.53
4.92
18.42
27.67
33.48
37.09
39.47
41.12
42.13
42.50
42.43
42.29
42.40
42.84
43.29
43.18
41.97
39.50
36.14
32.64
29.80
27.99
26.93
25.79
23.55
19.40
13.18
5.41
-2.89
-10.61
-16.96
-21.73
-25.37
-28.78
-33.03
-39.02
-47.15
-56.93
-66.98
-75.18
-79.18
-77.16
-68.44
-53.87
-35.56
-16.27
1.43
15.81
26.28
33.17
37.39
39.86
41.31
42.16
42.60
42.71
42.60
42.39
42.24
42.25
42.40
42.53
42.41
41.82
40.67
39.05
37.13
35.09
32.94
30.50
27.43
23.37
18.10
11.67
4.51
-2.80
-9.62
-15.51
-20.39
-24.40
-27.94
-31.40
-35.17
-39.62
-45.20
-52.25
-60.73
-69.85
-77.90
-82.51
-81.46
-73.48
-58.96
-39.93
-19.42
-0.41
15.00
26.08
33.19
37.34
39.56
40.62
40.99
40.99
40.85
40.75
40.81
40.95
41.04
40.92
40.56
40.03
39.46
38.97
38.53
38.02
37.16
35.68
33.35
30.06
25.87
20.98
15.63
10.05
4.37
-1.41
-7.34
-13.39
-19.37
-25.01
-30.09
-34.59
-38.71
-42.88
-47.70
-53.73
-61.34
-70.41
-80.02
-88.35
-93.01
-91.70
-83.15
-67.77
-47.72
-26.25
-6.63
8.91
19.60
26.03
29.41
30.97
31.47
31.24
30.36
28.98
27.46
26.26
25.77
26.12
27.08
28.21
28.99
29.13
28.60
27.57
26.35
25.12
23.84
22.25
19.92
16.40
11.47
5.20
-1.94
-9.23
-15.89
-21.36
-25.56
-28.87
-31.95
-35.56
-40.32
-46.51
-54.06
-62.33
-70.08
-75.54
-76.79
-72.41
-62.06
-46.84
-28.91
-10.89
5.01
17.51
26.28
31.71
34.39
34.90
33.80
31.64
29.14
27.04
25.95
26.02
27.02
28.34
29.31
29.48
28.82
27.72
26.71
26.17
26.01
25.62
24.13
20.79
15.36
8.25
0.35
-7.31
-13.90
-19.09
-23.12
-26.63
-30.47
-35.39
-41.84
-49.66
-57.96
-65.17
-69.28
-68.46
-61.66
-49.15
-32.51
-14.31
2.81
16.81
26.78
32.89
35.93
36.88
36.48
35.29
33.71
32.14
30.96
30.37
30.33
30.49
30.47
29.96
29.00
27.86
26.92
26.42
26.25
25.99
25.01
22.75
18.92
13.66
7.43
0.87
-5.43
-11.13
-16.24
-21.14
-26.44
-32.84
-40.73
-49.81
-58.83
-65.75
-68.31
-64.86
-55.04
-40.07
-22.35
-4.61
10.85
22.78
30.92
35.67
37.72
37.71
36.22
33.84
31.15
28.75
27.10
26.42
26.69
27.58
28.62
29.34
29.42
28.88
27.95
26.96
26.10
25.16
23.65
20.92
16.54
10.54
3.46
-3.78
-10.28
-15.47
-19.39
-22.62
-26.19
-31.13
-38.10
-47.03
-56.83
-65.55
-70.83
-70.62
-63.90
-51.15
-34.16
-15.55
2.20
17.28
28.94
37.21
42.51
45.26
45.67
43.97
40.59
36.32
32.13
28.90
27.12
26.74
27.26
28.00
28.41
28.21
27.52
26.60
25.67
24.68
23.28
20.94
17.14
11.68
4.82
-2.77
-10.26
-16.90
-22.35
-26.70
-30.43
-34.18
-38.63
-44.35
-51.61
-60.12
-68.75
-75.61
-78.41
-75.26
-65.46
-49.90
-30.85
-11.26
6.24
20.10
29.95
36.32
40.08
41.95
42.35
41.53
39.75
37.43
35.15
33.46
32.70
32.84
33.48
34.05
34.02
33.17
31.59
29.56
27.48
25.52
23.65
21.54
18.74
14.86
9.69
3.36
-3.70
-10.87
-17.54
-23.28
-28.03
-32.04
-35.78
-39.90
-45.03
-51.67
-59.95
-69.31
-78.29
-84.70
-86.15
-80.91
-68.62
-50.64
-29.68
-8.87
9.19
23.09
32.68
38.60
41.71
42.63
41.72
39.32
35.96
32.47
29.78
28.61
29.15
30.99
33.26
35.05
35.70
35.07
33.50
31.59
29.87
28.50
27.18
25.23
21.92
16.77
9.84
1.71
-6.74
-14.64
-21.44
-27.07
-31.86
-36.41
-41.34
-47.27
-54.55
-63.15
-72.33
-80.60
-85.80
-85.73
-78.93
-65.34
-46.50
-25.10
-4.16
13.89
27.74
37.21
42.91
45.66
46.22
45.14
42.90
39.99
36.96
34.39
32.74
32.25
32.86
34.21
35.74
36.87
37.17
36.50
35.00
33.00
30.76
28.40
25.74
22.38
17.95
12.27
5.43
-2.17
-9.91
-17.19
-23.57
-28.92
-33.43
-37.57
-41.92
-47.11
-53.61
-61.57
-70.59
-79.55
-86.63
-89.68
-86.84
-77.25
-61.57
-41.82
-20.90
-1.60
14.13
25.51
32.74
36.51
37.59
36.62
34.20
31.02
27.90
25.61
24.62
24.95
26.17
27.59
28.54
28.69
28.06
26.96
25.82
24.84
23.90
22.51
20.01
15.84
9.88
2.56
-5.26
-12.54
-18.50
-22.89
-26.06
-28.80
-32.11
-36.89
-43.67
-52.45
-62.41
-71.90
-78.63
-80.29
-75.29
-63.49
-46.29
-26.34
-6.61
10.41
23.37
31.99
36.84
38.74
38.49
36.74
34.04
30.95
27.97
25.49
23.66
22.49
21.83
21.54
21.57
21.87
22.36
22.82
22.86
21.97
19.70
15.77
10.21
3.41
-4.02
-11.41
-18.20
-24.09
-29.24
-34.20
-39.88
-47.15
-56.32
-66.72
-76.50
-83.00
-83.54
-76.49
-61.97
-41.96
-19.68
1.49
18.97
31.58
39.36
43.17
44.09
43.04
40.79
37.88
34.86
32.10
29.85
28.19
27.05
26.34
25.98
25.86
25.79
25.45
24.42
22.31
18.89
14.21
8.57
2.45
-3.73
-9.64
-15.18
-20.50
-25.98
-32.21
-39.82
-49.23
-60.08
-71.02
-79.67
-83.25
-79.53
-67.74
-49.12
-26.57
-3.82
15.91
30.70
40.24
45.44
47.60
47.87
46.88
44.90
42.06
38.66
35.11
31.91
29.41
27.76
26.97
26.84
27.19
27.65
27.86
27.35
25.72
22.74
18.39
12.88
6.56
-0.16
-6.96
-13.62
-20.26
-27.31
-35.38
-44.99
-56.00
-67.23
-76.43
-80.82
-78.04
-67.12
-49.05
-26.52
-3.10
17.85
34.11
44.96
50.91
53.17
53.00
51.38
48.95
46.09
43.10
40.29
37.98
36.42
35.73
35.79
36.38
37.14
37.63
37.42
36.14
33.55
29.58
24.37
18.24
11.60
4.79
-1.91
-8.45
-15.01
-22.07
-30.26
-40.08
-51.34
-62.86
-72.40
-77.13
-74.62
-63.87
-45.85
-23.33
-0.01
20.70
36.61
47.10
52.76
54.75
54.25
52.13
49.06
45.66
42.56
40.27
39.02
38.63
38.56
38.23
37.30
35.84
34.26
33.02
32.22
31.44
29.84
26.52
21.05
13.67
5.27
-3.01
-10.30
-16.29
-21.32
-26.16
-31.66
-38.53
-46.97
-56.50
-65.86
-73.01
-75.64
-71.82
-60.78
-43.46
-22.28
-0.50
18.84
33.78
43.73
49.22
51.28
50.87
48.65
45.12
40.86
36.63
33.30
31.47
31.24
32.14
33.34
34.05
33.87
32.88
31.48
30.06
28.62
26.76
23.79
19.15
12.72
4.97
-3.18
-10.72
-16.85
-21.38
-24.77
-27.95
-32.10
-38.22
-46.62
-56.61
-66.38
-73.35
-74.93
-69.39
-56.67
-38.46
-17.68
2.46
19.45
32.05
40.22
44.66
46.26
45.72
43.51
40.12
36.18
32.47
29.71
28.30
28.15
28.76
29.48
29.79
29.52
28.86
28.14
27.51
26.76
25.25
22.21
17.12
10.00
1.50
-7.26
-15.20
-21.61
-26.44
-30.24
-33.92
-38.43
-44.46
-52.31
-61.64
-71.31
-79.37
-83.42
-81.34
-72.10
-56.35
-36.35
-15.29
3.80
18.91
29.38
35.61
38.46
38.75
37.09
34.04
30.29
26.72
24.13
23.02
23.30
24.43
25.61
26.25
26.15
25.51
24.77
24.18
23.60
22.48
20.13
16.02
10.08
2.80
-5.00
-12.43
-18.93
-24.39
-29.17
-33.95
-39.51
-46.50
-55.13
-64.79
-74.00
-80.50
-81.95
-76.68
-64.48
-46.80
-26.38
-6.25
11.08
24.27
33.13
38.25
40.37
40.15
38.07
34.64
30.59
26.75
23.86
22.30
21.93
22.18
22.38
22.09
21.29
20.32
19.60
19.26
18.97
17.96
15.40
10.83
4.39
-3.17
-10.85
-17.83
-23.75
-28.81
-33.63
-39.03
-45.79
-54.33
-64.42
-74.88
-83.59
-87.97
-85.81
-76.18
-59.90
-39.47
-18.18
0.97
16.10
26.69
33.25
36.68
37.75
37.01
34.92
32.07
29.24
27.19
26.37
26.72
27.70
28.57
28.71
28.01
26.73
25.37
24.23
23.19
21.65
18.87
14.33
8.05
0.64
-6.97
-13.92
-19.80
-24.77
-29.48
-34.79
-41.49
-50.04
-60.25
-71.13
-80.80
-86.84
-86.89
-79.48
-64.71
-44.42
-21.73
-0.03
18.04
31.20
39.56
44.02
45.64
45.24
43.34
40.35
36.83
33.42
30.72
29.03
28.25
28.05
28.03
27.95
27.77
27.51
27.06
26.11
24.20
20.90
16.05
9.81
2.70
-4.65
-11.67
-18.08
-23.96
-29.81
-36.39
-44.45
-54.31
-65.35
-75.85
-83.25
-84.84
-78.82
-65.00
-45.14
-22.33
-0.05
18.85
32.87
41.84
46.55
48.12
47.55
45.50
42.42
38.65
34.62
30.84
27.83
25.98
25.38
25.76
26.56
27.06
26.61
24.83
21.65
17.28
12.07
6.36
0.32
-5.95
-12.45
-19.19
-26.23
-33.75
-42.10
-51.57
-62.02
-72.39
-80.59
-83.98
-80.23
-68.45
-49.73
-26.96
-3.86
16.29
31.53
41.61
47.37
50.05
50.63
49.53
46.90
42.91
38.07
33.19
29.18
26.69
25.86
26.32
27.23
27.68
26.97
24.78
21.25
16.81
12.01
7.25
2.65
-1.91
-6.79
-12.40
-19.24
-27.72
-37.95
-49.48
-60.97
-70.24
-74.67
-72.03
-61.40
-43.75
-21.73
1.11
21.43
37.09
47.45
53.08
55.13
54.66
52.39
48.72
44.01
38.81
33.87
29.98
27.65
26.98
27.51
28.38
28.67
27.71
25.33
21.87
17.91
13.96
10.21
6.45
2.23
-2.90
-9.22
-16.82
-25.71
-35.79
-46.64
-57.22
-65.75
-69.92
-67.65
-57.90
-41.36
-20.40
1.66
21.52
36.95
47.13
52.47
54.08
53.10
50.35
46.40
41.70
36.72
32.07
28.29
25.80
24.68
24.68
25.27
25.78
25.59
24.29
21.72
17.99
13.43
8.42
3.29
-1.82
-6.95
-12.26
-18.01
-24.56
-32.32
-41.56
-52.11
-62.95
-72.11
-76.98
-75.20
-65.57
-48.74
-27.17
-4.35
16.38
32.74
43.99
50.53
53.39
53.51
51.59
48.18
43.82
39.20
35.02
31.80
29.71
28.62
28.22
28.20
28.28
28.26
27.85
26.66
24.28
20.42
15.13
8.80
2.03
-4.61
-10.75
-16.34
-21.61
-27.03
-33.21
-40.82
-50.22
-61.13
-72.21
-81.08
-84.88
-81.31
-69.58
-50.93
-28.35
-5.54
14.33
29.42
39.40
45.00
47.25
47.11
45.24
42.20
38.56
35.05
32.33
30.79
30.39
30.73
31.20
31.25
30.67
29.57
28.24
26.84
25.21
22.85
19.14
13.69
6.60
-1.47
-9.57
-16.77
-22.63
-27.28
-31.44
-36.17
-42.49
-50.99
-61.34
-72.12
-80.94
-85.03
-82.11
-71.32
-53.68
-31.79
-9.09
11.24
27.13
37.93
44.11
46.68
46.56
44.42
40.80
36.29
31.69
27.86
25.47
24.65
25.00
25.75
26.22
26.10
25.50
24.66
23.73
22.42
20.12
16.25
10.55
3.33
-4.63
-12.38
-19.17
-24.71
-29.23
-33.38
-38.06
-44.11
-51.97
-61.35
-70.97
-78.64
-81.81
-78.36
-67.53
-50.34
-29.37
-7.91
11.07
25.77
35.73
41.47
43.97
44.12
42.60
39.91
36.62
33.36
30.64
28.75
27.62
26.97
26.41
25.71
24.82
23.88
23.01
22.20
21.20
19.57
16.83
12.68
7.15
0.61
-6.32
-13.01
-19.05
-24.44
-29.61
-35.34
-42.41
-51.22
-61.31
-71.19
-78.55
-80.87
-76.33
-64.56
-46.89
-25.95
-4.87
13.68
28.12
37.96
43.56
45.60
44.80
41.85
37.52
32.72
28.43
25.44
24.09
24.17
25.04
25.92
26.28
25.93
25.08
24.01
22.80
21.22
18.77
14.95
9.60
3.05
-4.01
-10.72
-16.45
-20.97
-24.57
-27.90
-31.84
-37.20
-44.40
-53.21
-62.49
-70.29
-74.21
-72.17
-63.18
-47.84
-28.23
-7.30
12.00
27.61
38.58
45.00
47.57
47.15
44.52
40.41
35.52
30.59
26.28
23.05
21.03
20.09
19.85
19.92
20.00
20.03
20.03
19.98
19.70
18.72
16.49
12.59
7.05
0.34
-6.78
-13.55
-19.60
-25.02
-30.35
-36.34
-43.63
-52.42
-62.13
-71.29
-77.70
-79.06
-73.70
-61.39
-43.55
-22.95
-2.82
14.18
26.54
34.09
37.58
38.05
36.38
33.23
29.05
24.32
19.65
15.68
12.89
11.51
11.44
12.31
13.68
15.01
15.84
15.75
14.46
11.87
8.09
3.43
-1.72
-7.07
-12.43
-17.82
-23.39
-29.42
-36.24
-44.12
-53.05
-62.37
-70.57
-75.52
-74.98
-67.51
-53.17
-33.75
-12.27
7.96
24.39
35.87
42.57
45.51
45.84
44.37
41.48
37.38
32.42
27.25
22.72
19.64
18.45
19.03
20.76
22.71
23.94
23.82
22.14
19.13
15.18
10.74
6.05
1.16
-4.02
-9.61
-15.76
-22.68
-30.70
-40.09
-50.66
-61.40
-70.30
-74.75
-72.43
-62.27
-45.09
-23.52
-1.14
18.70
33.81
43.55
48.54
49.99
48.98
46.25
42.18
37.10
31.54
26.22
21.88
19.13
18.13
18.60
19.85
21.03
21.35
20.27
17.66
13.70
8.78
3.32
-2.33
-8.05
-13.84
-19.89
-26.51
-34.12
-43.10
-53.45
-64.45
-74.39
-80.86
-81.41
-74.44
-60.01
-39.96
-17.40
4.31
22.48
35.77
44.07
48.14
49.03
47.72
44.96
41.34
37.36
33.52
30.21
27.68
26.07
25.29
25.13
25.25
25.25
24.73
23.38
20.98
17.50
12.99
7.57
1.35
-5.51
-12.81
-20.31
-27.85
-35.49
-43.63
-52.81
-63.36
-74.72
-85.18
-92.05
-92.45
-84.51
-68.18
-45.49
-19.94
4.66
25.36
40.65
50.46
55.65
57.33
56.50
53.88
50.09
45.74
41.47
37.81
35.10
33.41
32.57
32.28
32.25
32.26
32.13
31.63
30.36
27.84
23.58
17.32
9.24
-0.05
-9.63
-18.56
-26.31
-32.95
-39.20
-46.19
-54.99
-65.99
-78.41
-90.15
-98.17
-99.43
-91.99
-75.78
-52.85
-26.75
-1.37
20.21
36.36
46.97
52.91
55.33
55.21
53.27
50.13
46.54
43.32
41.08
40.05
39.92
40.01
39.64
38.49
36.72
34.83
33.31
32.26
31.27
29.44
25.80
19.71
11.24
1.17
-9.24
-18.74
-26.58
-32.81
-38.29
-44.33
-52.24
-62.64
-75.13
-88.04
-98.71
-104.09
-101.67
-90.36
-70.95
-45.97
-19.00
6.41
27.66
43.50
53.89
59.57
61.44
60.35
57.10
52.59
47.84
43.85
41.35
40.51
40.97
41.94
42.59
42.35
41.19
39.46
37.68
36.13
34.58
32.36
28.56
22.51
14.13
4.10
-6.38
-16.08
-24.17
-30.60
-36.05
-41.69
-48.79
-58.21
-70.02
-83.08
-95.11
-102.99
-103.68
-95.25
-77.77
-53.47
-26.06
0.39
22.74
39.42
50.42
56.62
59.05
58.52
55.63
51.04
45.69
40.71
37.11
35.36
35.22
35.93
36.52
36.32
35.27
33.79
32.46
31.59
30.89
29.53
26.54
21.25
13.68
4.57
-4.90
-13.64
-21.00
-27.04
-32.39
-38.04
-44.99
-53.90
-64.84
-76.97
-88.42
-96.54
-98.46
-92.11
-77.03
-54.78
-28.57
-2.31
20.57
38.02
49.51
55.67
57.62
56.36
52.69
47.35
41.24
35.39
30.79
28.01
27.02
27.32
28.18
29.06
29.68
30.05
30.15
29.76
28.42
25.57
20.84
14.27
6.29
-2.38
-10.97
-18.88
-25.82
-32.02
-38.11
-45.07
-53.81
-64.65
-76.77
-88.06
-95.41
-95.72
-87.07
-69.54
-45.39
-18.37
7.48
29.04
44.69
54.38
59.06
59.98
58.24
54.63
49.75
44.16
38.57
33.65
29.99
27.83
27.03
27.16
27.64
27.96
27.79
26.92
25.17
22.34
18.20
12.66
5.92
-1.59
-9.23
-16.49
-23.13
-29.47
-36.19
-44.22
-54.11
-65.60
-77.24
-86.52
-90.44
-86.53
-73.79
-53.23
-27.69
-0.98
23.21
42.33
55.37
62.67
65.41
64.91
62.23
58.13
53.04
47.35
41.55
36.26
32.11
29.61
28.87
29.54
30.85
31.83
31.57
29.54
25.69
20.37
14.13
7.47
0.70
-6.05
-12.81
-19.72
-27.01
-35.11
-44.48
-55.24
-66.70
-77.08
-83.62
-83.49
-74.82
-57.65
-34.18
-8.07
16.69
37.05
51.55
60.28
64.23
64.60
62.34
58.07
52.34
45.86
39.53
34.25
30.66
28.93
28.73
29.47
30.40
30.89
30.51
29.00
26.25
22.30
17.26
11.38
4.97
-1.69
-8.38
-14.99
-21.66
-28.71
-36.61
-45.73
-56.02
-66.54
-75.38
-79.95
-77.80
-67.61
-49.87
-26.91
-2.25
20.52
38.76
51.25
58.16
60.46
59.33
55.73
50.43
44.11
37.55
31.60
27.02
24.22
23.13
23.32
24.18
25.14
25.82
25.92
25.15
23.15
19.55
14.21
7.40
-0.31
-8.10
-15.34
-21.70
-27.32
-32.72
-38.62
-45.81
-54.78
-65.35
-76.31
-85.37
-89.63
-86.46
-74.64
-54.96
-30.17
-4.15
19.40
37.93
50.52
57.53
59.97
58.90
55.21
49.65
43.09
36.52
30.86
26.76
24.33
23.23
22.83
22.64
22.34
21.92
21.40
20.65
19.26
16.65
12.38
6.38
-0.92
-8.76
-16.33
-23.06
-28.88
-34.19
-39.81
-46.62
-55.29
-65.73
-76.76
-86.14
-90.99
-88.73
-78.05
-59.64
-36.02
-10.82
12.42
31.16
44.33
52.15
55.49
55.43
52.86
48.57
43.32
37.92
33.12
29.44
27.01
25.63
24.90
24.44
24.08
23.78
23.48
22.97
21.81
19.51
15.76
10.55
4.25
-2.56
-9.36
-15.73
-21.58
-27.14
-32.92
-39.66
-48.06
-58.34
-69.77
-80.43
-87.49
-88.07
-80.36
-64.44
-42.44
-17.92
5.33
24.42
37.96
46.00
49.49
49.57
47.26
43.34
38.52
33.53
29.10
25.70
23.48
22.25
21.60
21.23
21.04
21.09
21.40
21.74
21.57
20.22
17.20
12.41
6.17
-0.89
-8.12
-15.06
-21.55
-27.67
-33.75
-40.29
-47.83
-56.70
-66.53
-75.97
-82.74
-84.19
-78.36
-64.85
-45.25
-22.62
-0.56
18.02
31.56
39.97
44.07
44.92
43.41
40.08
35.38
29.84
24.20
19.28
15.74
13.91
13.69
14.64
16.14
17.59
18.44
18.34
17.01
14.30
10.27
5.11
-0.79
-6.95
-12.98
-18.68
-24.14
-29.75
-36.12
-43.90
-53.41
-64.20
-74.76
-82.65
-85.15
-80.21
-67.41
-48.31
-26.02
-4.19
14.13
27.35
35.46
39.52
40.89
40.64
39.25
36.79
33.26
28.92
24.40
20.54
18.08
17.38
18.15
19.62
20.86
21.09
19.94
17.48
14.01
9.87
5.29
0.36
-4.88
-10.40
-16.24
-22.55
-29.73
-38.20
-48.05
-58.63
-68.25
-74.50
-74.88
-67.88
-53.66
-34.14
-12.49
7.95
24.66
36.49
43.61
46.93
47.52
46.21
43.51
39.83
35.68
31.73
28.62
26.82
26.40
27.04
28.09
28.84
28.67
27.27
24.59
20.80
16.25
11.21
5.92
0.51
-4.97
-10.60
-16.53
-23.02
-30.46
-39.10
-48.81
-58.71
-67.06
-71.55
-70.03
-61.35
-46.01
-26.12
-4.82
14.72
30.27
40.93
47.04
49.61
49.75
48.30
45.77
42.54
39.00
35.59
32.78
30.80
29.67
29.16
28.90
28.54
27.81
26.52
24.53
21.71
17.96
13.30
7.84
1.87
-4.26
-10.18
-15.73
-21.01
-26.51
-32.93
-40.86
-50.35
-60.43
-69.13
-73.81
-72.12
-62.94
-46.91
-26.38
-4.60
15.27
31.05
41.90
48.10
50.55
50.30
48.27
45.17
41.60
38.08
35.06
32.77
31.27
30.38
29.86
29.49
29.12
28.69
28.16
27.32
25.81
23.15
18.92
12.98
5.62
-2.49
-10.52
-17.75
-23.88
-29.02
-33.78
-39.03
-45.59
-53.87
-63.39
-72.64
-79.21
-80.59
-74.97
-62.18
-43.85
-22.95
-2.75
14.20
26.71
34.87
39.52
41.61
41.76
40.38
37.86
34.82
32.09
30.41
30.16
31.12
32.56
33.59
33.56
32.35
30.35
28.19
26.37
24.90
23.24
20.58
16.16
9.71
1.55
-7.44
-16.21
-23.88
-30.09
-35.01
-39.31
-43.84
-49.50
-56.83
-65.67
-74.97
-82.72
-86.47
-84.04
-74.41
-58.21
-37.65
-15.82
4.28
20.67
32.61
40.45
45.01
47.07
47.13
45.57
42.87
39.75
37.07
35.52
35.37
36.26
37.47
38.19
37.92
36.68
34.88
33.04
31.48
30.07
28.24
25.29
20.66
14.22
6.40
-1.92
-9.76
-16.39
-21.57
-25.66
-29.48
-34.09
-40.42
-48.97
-59.42
-70.43
-79.71
-84.62
-82.87
-73.53
-57.47
-37.21
-16.08
2.87
17.74
28.09
34.58
38.23
39.83
39.79
38.30
35.70
32.68
30.15
28.95
29.43
31.34
33.83
35.84
36.55
35.68
33.55
30.86
28.29
26.08
23.93
21.09
16.75
10.54
2.64
-6.11
-14.64
-21.99
-27.75
-32.09
-35.69
-39.43
-44.14
-50.42
-58.36
-67.46
-76.41
-83.23
-85.62
-81.75
-70.96
-54.20
-33.88
-13.02
5.67
20.52
31.11
37.89
41.69
43.18
42.88
41.17
38.62
35.93
33.87
32.98
33.42
34.82
36.47
37.59
37.62
36.45
34.47
32.22
30.16
28.29
26.12
22.90
17.94
11.06
2.65
-6.41
-15.10
-22.70
-28.94
-34.10
-38.79
-43.77
-49.75
-57.18
-66.12
-75.90
-85.09
-91.52
-92.81
-87.14
-74.02
-54.62
-31.59
-8.19
12.64
29.07
40.56
47.52
50.86
51.44
49.97
47.02
43.25
39.40
36.23
34.21
33.39
33.37
33.51
33.25
32.37
31.06
29.78
28.90
28.39
27.77
26.21
22.96
17.69
10.72
2.88
-4.84
-11.65
-17.28
-22.09
-26.86
-32.50
-39.75
-48.89
-59.52
-70.45
-79.78
-85.24
-84.76
-77.21
-62.87
-43.54
-22.05
-1.47
15.76
28.34
36.16
39.93
40.70
39.47
37.06
34.19
31.44
29.28
27.94
27.31
27.03
26.62
25.73
24.35
22.76
21.38
20.44
19.80
18.92
17.03
13.54
8.26
1.53
-5.92
-13.22
-19.77
-25.36
-30.35
-35.48
-41.70
-49.75
-59.68
-70.52
-80.22
-86.06
-85.54
-77.38
-62.07
-41.88
-20.09
0.06
16.33
27.77
34.61
37.73
38.11
36.59
33.82
30.31
26.59
23.12
20.33
18.51
17.78
18.06
19.04
20.23
21.01
20.87
19.48
16.77
12.95
8.31
3.17
-2.26
-7.93
-13.89
-20.29
-27.36
-35.45
-44.87
-55.71
-67.41
-78.47
-86.56
-89.08
-84.09
-71.14
-51.69
-28.77
-5.99
13.53
28.02
37.24
42.07
43.80
43.55
42.01
39.45
36.03
32.04
28.00
24.56
22.26
21.36
21.63
22.45
23.05
22.74
21.18
18.46
14.95
11.10
7.17
3.14
-1.37
-6.83
-13.69
-22.28
-32.73
-44.87
-57.94
-70.39
-79.86
-83.72
-79.90
-67.83
-48.94
-26.30
-3.65
15.86
30.52
40.28
46.06
49.09
50.16
49.56
47.31
43.59
38.92
34.18
30.28
27.90
27.21
27.78
28.81
29.40
28.87
27.04
24.12
20.56
16.75
12.77
8.31
2.92
-3.86
-12.24
-22.26
-33.77
-46.34
-59.02
-70.11
-77.26
-78.07
-70.95
-56.01
-35.20
-11.89
10.30
28.55
41.53
49.33
52.96
53.61
52.21
49.34
45.38
40.73
35.94
31.69
28.63
27.20
27.35
28.59
30.07
30.90
30.44
28.48
25.26
21.21
16.68
11.85
6.67
1.04
-5.12
-11.84
-19.19
-27.39
-36.73
-47.25
-58.20
-67.85
-73.64
-73.04
-64.50
-48.30
-26.66
-3.09
18.80
36.29
48.18
54.64
56.72
55.65
52.58
48.36
43.72
39.32
35.70
33.24
32.00
31.78
32.16
32.67
32.92
32.66
31.72
30.03
27.41
23.72
18.87
12.94
6.24
-0.74
-7.50
-13.73
-19.43
-24.96
-30.97
-38.20
-47.11
-57.51
-68.19
-76.91
-80.89
-77.69
-66.24
-47.38
-23.94
0.32
21.76
38.00
48.37
53.53
54.85
53.66
50.93
47.33
43.37
39.63
36.61
34.65
33.73
33.58
33.79
34.03
34.13
34.03
33.66
32.79
30.98
27.75
22.75
15.94
7.74
-1.13
-9.83
-17.67
-24.38
-30.16
-35.65
-41.72
-49.12
-58.07
-67.89
-76.87
-82.53
-82.36
-74.70
-59.54
-38.73
-15.42
6.88
25.41
38.79
47.06
51.13
52.07
50.77
47.78
43.67
39.14
35.11
32.35
31.23
31.46
32.30
32.90
32.74
31.81
30.48
29.18
27.99
26.53
24.12
20.07
14.13
6.57
-1.82
-10.08
-17.35
-23.25
-27.92
-32.03
-36.55
-42.51
-50.57
-60.58
-71.35
-80.62
-85.63
-83.92
-74.37
-57.70
-36.38
-13.79
6.88
23.53
35.42
42.89
46.74
47.68
46.21
42.84
38.26
33.49
29.59
27.33
26.88
27.80
29.28
30.43
30.78
30.30
29.33
28.29
27.32
26.14
24.07
20.43
14.88
7.66
-0.49
-8.62
-15.97
-22.22
-27.54
-32.49
-37.77
-44.14
-52.11
-61.76
-72.32
-82.08
-88.56
-89.24
-82.48
-68.30
-48.50
-26.14
-4.45
14.10
28.32
38.18
44.29
47.30
47.74
45.97
42.52
38.17
33.92
30.69
28.96
28.71
29.37
30.17
30.51
30.20
29.47
28.73
28.23
27.81
26.84
24.48
20.05
13.40
4.99
-4.22
-13.14
-20.88
-27.06
-31.87
-35.98
-40.37
-46.02
-53.64
-63.23
-73.78
-83.27
-89.04
-88.58
-80.50
-65.18
-44.78
-22.55
-1.72
15.44
28.13
36.66
41.86
44.45
44.81
43.16
39.90
35.85
32.05
29.40
28.29
28.44
29.14
29.63
29.44
28.62
27.54
26.67
26.16
25.75
24.71
22.23
17.67
10.93
2.53
-6.59
-15.37
-23.07
-29.52
-35.07
-40.50
-46.68
-54.25
-63.42
-73.64
-83.55
-91.05
-93.81
-89.96
-78.88
-61.54
-40.30
-18.19
2.03
18.56
30.73
38.74
43.17
44.60
43.58
40.76
36.93
33.09
30.11
28.54
28.42
29.28
30.39
31.09
31.03
30.28
29.16
27.99
26.78
25.18
22.58
18.38
12.37
4.84
-3.45
-11.58
-18.79
-24.80
-29.82
-34.51
-39.73
-46.25
-54.55
-64.42
-74.77
-83.67
-88.69
-87.62
-79.22
-63.90
-43.59
-21.28
-0.13
17.49
30.38
38.52
42.55
43.44
42.08
39.27
35.72
32.13
29.13
27.10
26.13
26.04
26.39
26.78
26.97
26.93
26.71
26.33
25.60
24.10
21.29
16.76
10.47
2.80
-5.49
-13.53
-20.69
-26.81
-32.32
-38.09
-45.12
-54.05
-64.63
-75.51
-84.36
-88.47
-85.62
-74.96
-57.40
-35.43
-12.37
8.58
25.25
36.75
43.44
46.30
46.45
44.76
41.85
38.10
33.95
29.82
26.23
23.56
22.02
21.55
21.91
22.67
23.38
23.56
22.82
20.87
17.64
13.23
7.93
2.12
-3.86
-9.85
-15.97
-22.64
-30.47
-39.96
-51.08
-62.90
-73.47
-80.20
-80.57
-73.11
-58.02
-37.30
-14.14
8.06
26.66
40.36
49.18
53.97
55.77
55.40
53.31
49.75
45.10
40.04
35.53
32.56
31.70
32.86
35.13
37.13
37.38
34.97
29.71
22.17
13.37
4.24
-4.63
-13.09
-21.23
-29.24
-37.23
-45.34
-53.76
-62.61
-71.68
-79.99
-85.75
-86.71
-81.02
-68.02
-48.87
-26.28
-3.63
16.09
31.06
40.97
46.52
48.77
48.63
46.70
43.36
39.09
34.64
30.88
28.58
28.11
29.25
31.21
32.93
33.46
32.32
29.53
25.62
21.23
16.85
12.63
8.38
3.74
-1.65
-8.12
-15.91
-25.15
-35.67
-46.70
-56.69
-63.45
-64.77
-59.17
-46.57
-28.52
-7.71
12.79
30.43
43.70
52.24
56.55
57.56
56.28
53.53
49.94
45.96
41.93
38.19
35.09
32.94
31.90
31.80
32.15
32.26
31.43
29.25
25.62
20.77
15.08
8.90
2.49
-3.97
-10.31
-16.41
-22.27
-28.10
-34.40
-41.69
-50.17
-59.15
-67.01
-71.39
-70.04
-61.65
-46.57
-26.76
-5.23
14.98
31.60
43.58
50.90
54.19
54.29
52.01
48.16
43.60
39.18
35.65
33.41
32.47
32.43
32.69
32.67
32.00
30.65
28.86
26.93
25.01
22.88
20.04
15.88
10.11
2.94
-4.87
-12.30
-18.49
-23.13
-26.56
-29.64
-33.47
-38.93
-46.40
-55.41
-64.60
-71.83
-74.74
-71.44
-61.25
-45.16
-25.55
-5.48
12.30
26.11
35.49
40.97
43.40
43.50
41.82
38.75
34.94
31.19
28.32
26.82
26.67
27.36
28.21
28.68
28.58
28.02
27.25
26.37
25.19
23.29
20.18
15.55
9.50
2.49
-4.75
-11.50
-17.33
-22.26
-26.76
-31.68
-37.81
-45.59
-54.64
-63.56
-70.21
-72.21
-67.85
-56.80
-40.35
-21.07
-1.96
14.47
26.81
34.91
39.41
41.28
41.37
40.21
38.22
35.73
33.11
30.69
28.67
27.07
25.82
24.79
23.91
23.21
22.69
22.25
21.60
20.28
17.80
13.80
8.23
1.42
-5.98
-13.19
-19.56
-24.84
-29.27
-33.61
-38.85
-45.86
-54.83
-64.98
-74.43
-80.60
-81.04
-74.29
-60.57
-41.78
-20.94
-1.22
15.00
26.62
33.75
37.27
38.28
37.71
36.26
34.45
32.74
31.47
30.80
30.61
30.57
30.26
29.42
28.02
26.30
24.60
23.18
22.02
20.78
18.89
15.78
11.15
5.08
-1.95
-9.23
-16.08
-22.05
-27.15
-31.84
-36.89
-43.17
-51.14
-60.48
-69.80
-76.87
-79.18
-74.92
-63.76
-47.08
-27.60
-8.39
8.09
20.60
29.14
34.44
37.39
38.61
38.48
37.29
35.42
33.46
31.94
31.22
31.24
31.60
31.72
31.17
29.84
28.03
26.24
24.82
23.70
22.32
19.86
15.61
9.47
1.93
-6.01
-13.31
-19.33
-24.08
-28.15
-32.45
-37.94
-45.21
-54.30
-64.46
-74.17
-81.31
-83.68
-79.70
-69.02
-52.77
-33.33
-13.62
3.80
17.32
26.49
31.82
34.27
34.81
34.21
32.98
31.49
30.08
29.04
28.60
28.80
29.46
30.16
30.45
30.04
28.90
27.36
25.85
24.59
23.41
21.66
18.53
13.44
6.37
-2.05
-10.75
-18.65
-25.06
-29.93
-33.76
-37.43
-41.90
-47.90
-55.75
-65.02
-74.44
-81.96
-85.24
-82.37
-72.63
-56.90
-37.46
-17.26
1.02
15.68
26.17
32.83
36.35
37.34
36.28
33.65
30.11
26.50
23.70
22.22
22.11
22.87
23.72
23.90
23.07
21.39
19.44
17.90
17.15
17.04
16.90
15.76
12.82
7.74
0.81
-7.13
-15.11
-22.29
-28.32
-33.31
-37.68
-42.17
-47.53
-54.47
-63.17
-73.04
-82.44
-88.93
-89.96
-83.80
-70.30
-51.09
-29.08
-7.46
11.25
25.71
35.77
42.01
45.26
46.31
45.87
44.61
43.18
42.13
41.77
42.10
42.86
43.66
44.14
44.19
43.89
43.43
42.94
42.36
41.41
39.74
37.06
33.31
28.62
23.22
17.32
11.03
4.35
-2.69
-10.00
-17.32
-24.33
-30.70
-36.25
-40.97
-45.08
-49.04
-53.51
-59.28
-66.89
-76.27
-86.37
-95.05
-99.64
-97.69
-88.03
-71.27
-49.77
-26.78
-5.42
12.23
25.43
34.48
40.16
43.20
44.18
43.55
41.93
40.06
38.60
37.98
38.11
38.54
38.70
38.16
36.90
35.28
33.81
32.86
32.38
31.84
30.40
27.28
22.08
15.02
6.85
-1.38
-8.79
-14.98
-20.12
-24.90
-30.29
-37.21
-46.14
-56.87
-68.17
-77.94
-83.58
-82.81
-74.46
-58.95
-38.37
-15.68
6.04
24.49
38.51
47.91
53.17
54.98
54.07
51.16
47.08
42.74
39.01
36.52
35.46
35.53
36.07
36.35
35.91
34.79
33.42
32.30
31.63
30.98
29.51
26.23
20.61
12.84
3.83
-5.23
-13.36
-20.11
-25.73
-30.92
-36.60
-43.63
-52.47
-62.98
-74.13
-83.97
-89.93
-89.52
-81.24
-65.23
-43.41
-18.94
4.78
25.02
40.38
50.65
56.39
58.44
57.51
54.25
49.41
43.95
38.93
35.24
33.30
32.89
33.28
33.59
33.21
32.01
30.37
28.82
27.70
26.84
25.55
22.89
18.15
11.20
2.61
-6.57
-15.27
-22.82
-29.22
-35.06
-41.25
-48.73
-58.01
-68.90
-80.30
-90.14
-95.84
-94.91
-85.91
-69.07
-46.40
-21.14
3.26
24.12
40.07
50.97
57.42
60.16
59.84
57.02
52.43
47.08
42.10
38.49
36.73
36.63
37.48
38.34
38.48
37.64
36.09
34.35
32.79
31.39
29.59
26.51
21.38
13.93
4.54
-5.81
-15.90
-24.74
-31.85
-37.45
-42.36
-47.74
-54.70
-63.89
-75.04
-86.72
-96.51
-101.45
-99.06
-88.19
-69.51
-45.42
-19.32
5.43
26.32
42.10
52.63
58.47
60.37
59.09
55.37
50.11
44.46
39.64
36.67
35.95
37.07
39.02
40.59
40.91
39.81
37.78
35.62
33.93
32.71
31.37
28.93
24.48
17.59
8.51
-1.88
-12.34
-21.75
-29.43
-35.42
-40.46
-45.65
-52.19
-60.85
-71.58
-83.27
-93.74
-100.19
-99.98
-91.50
-74.92
-52.21
-26.59
-1.57
20.08
36.81
48.26
54.86
57.32
56.43
52.98
47.97
42.57
37.93
34.93
33.85
34.31
35.52
36.50
36.61
35.71
34.17
32.57
31.27
30.16
28.66
25.89
21.17
14.31
5.76
-3.61
-12.80
-21.05
-28.10
-34.22
-40.16
-46.84
-55.11
-65.27
-76.76
-87.93
-96.28
-99.07
-94.20
-81.04
-60.82
-36.28
-10.89
12.13
30.69
43.93
52.06
55.81
56.01
53.47
49.02
43.66
38.44
34.28
31.68
30.57
30.43
30.55
30.44
29.97
29.34
28.82
28.42
27.80
26.28
23.18
18.08
11.08
2.73
-6.16
-14.78
-22.58
-29.48
-35.85
-42.52
-50.43
-60.23
-71.72
-83.46
-92.85
-96.73
-92.54
-79.30
-58.24
-32.51
-6.17
17.11
35.04
46.98
53.60
56.07
55.55
52.82
48.52
43.33
37.99
33.28
29.67
27.33
26.04
25.49
25.37
25.54
25.89
26.20
26.10
25.11
22.80
18.97
13.73
7.42
0.53
-6.54
-13.59
-20.67
-28.12
-36.46
-46.21
-57.33
-68.94
-79.05
-84.97
-84.12
-75.01
-57.99
-35.33
-10.56
12.67
31.64
45.10
53.21
56.92
57.29
55.19
51.21
45.91
39.99
34.23
29.36
25.85
23.81
23.03
23.19
23.96
25.01
25.98
26.38
25.69
23.47
19.56
14.17
7.79
0.99
-5.80
-12.42
-19.01
-25.95
-33.73
-42.71
-52.81
-63.17
-72.06
-77.14
-76.13
-67.62
-51.73
-30.23
-6.11
17.34
37.35
52.28
61.72
66.16
66.59
64.09
59.63
54.03
48.02
42.26
37.29
33.55
31.24
30.28
30.38
31.04
31.73
31.90
31.04
28.80
24.98
19.68
13.27
6.30
-0.66
-7.23
-13.34
-19.27
-25.55
-32.83
-41.64
-52.04
-63.23
-73.42
-80.00
-80.37
-72.79
-57.28
-35.81
-11.69
11.49
30.94
45.25
54.28
58.68
59.32
57.05
52.62
46.87
40.75
35.11
30.60
27.48
25.68
24.98
25.11
25.81
26.82
27.74
28.10
27.32
24.96
20.79
14.94
7.89
0.29
-7.21
-14.14
-20.39
-26.17
-32.06
-38.76
-46.80
-56.11
-65.60
-73.19
-76.25
-72.59
-61.28
-43.26
-21.08
1.92
22.62
38.90
49.94
55.88
57.39
55.36
50.68
44.34
37.32
30.59
24.91
20.77
18.33
17.48
17.92
19.19
20.84
22.40
23.45
23.67
22.76
20.48
16.71
11.48
5.09
-1.95
-9.06
-15.79
-21.99
-27.85
-33.90
-40.86
-49.25
-58.99
-69.03
-77.33
-81.27
-78.47
-67.79
-49.89
-27.22
-3.30
18.41
35.44
46.73
52.53
53.82
51.76
47.45
41.78
35.60
29.66
24.60
20.87
18.59
17.65
17.69
18.36
19.30
20.25
20.91
20.90
19.78
17.19
13.02
7.43
0.88
-6.11
-13.13
-19.97
-26.64
-33.38
-40.58
-48.70
-58.00
-68.11
-77.70
-84.51
-85.97
-80.11
-66.58
-46.93
-24.22
-1.96
16.98
31.07
40.14
44.90
46.30
45.20
42.25
38.04
33.26
28.63
24.80
22.19
20.87
20.63
21.11
21.89
22.61
22.99
22.78
21.70
19.49
16.01
11.30
5.70
-0.35
-6.38
-12.15
-17.72
-23.41
-29.74
-37.22
-46.14
-56.32
-66.80
-75.82
-81.01
-80.10
-71.73
-56.12
-35.27
-12.40
9.02
26.30
38.21
44.92
47.49
47.21
45.09
41.73
37.47
32.69
27.89
23.69
20.63
18.96
18.53
18.90
19.45
19.67
19.21
17.92
15.68
12.41
8.07
2.72
-3.41
-9.94
-16.44
-22.64
-28.54
-34.45
-40.95
-48.64
-57.77
-67.78
-77.16
-83.60
-84.68
-78.68
-65.43
-46.49
-24.79
-3.64
14.27
27.55
36.14
40.89
42.86
42.89
41.47
38.84
35.28
31.24
27.32
24.04
21.74
20.48
20.05
20.12
20.30
20.21
19.49
17.83
15.03
11.11
6.29
0.94
-4.59
-10.06
-15.51
-21.18
-27.47
-34.94
-43.99
-54.52
-65.58
-75.26
-80.97
-80.27
-71.87
-56.25
-35.71
-13.63
6.62
22.68
33.63
39.86
42.49
42.71
41.48
39.38
36.81
34.05
31.36
28.93
26.92
25.39
24.32
23.66
23.28
22.96
22.38
21.12
18.78
15.14
10.24
4.46
-1.69
-7.72
-13.39
-18.74
-24.10
-29.93
-36.78
-45.03
-54.64
-64.82
-73.87
-79.43
-79.15
-71.56
-56.85
-36.97
-15.09
5.45
22.17
33.96
41.00
44.25
44.78
43.49
40.95
37.64
34.03
30.63
27.93
26.17
25.34
25.17
25.25
25.25
24.93
24.23
23.08
21.38
19.00
15.80
11.84
7.33
2.61
-2.01
-6.37
-10.58
-15.04
-20.31
-27.02
-35.51
-45.44
-55.61
-63.94
-67.89
-65.40
-55.67
-39.67
-19.94
0.23
17.81
30.87
38.85
42.29
42.31
40.05
36.54
32.51
28.58
25.18
22.62
21.02
20.32
20.30
20.63
21.01
21.21
21.15
20.78
20.06
18.83
16.76
13.51
8.86
2.93
-3.80
-10.67
-17.07
-22.80
-28.16
-33.96
-41.11
-50.16
-60.73
-71.32
-79.48
-82.58
-78.70
-67.36
-49.87
-28.93
-7.75
10.90
25.31
35.06
40.64
42.93
42.82
40.88
37.52
33.18
28.41
23.89
20.30
18.09
17.31
17.68
18.62
19.48
19.75
19.07
17.32
14.52
10.79
6.35
1.40
-3.87
-9.39
-15.18
-21.42
-28.44
-36.54
-45.82
-55.80
-65.24
-72.16
-74.31
-70.00
-58.78
-41.89
-21.86
-1.79
15.66
28.95
37.79
42.75
44.71
44.36
42.14
38.35
33.43
28.06
23.03
19.14
16.90
16.33
16.98
18.06
18.68
18.17
16.28
13.14
9.20
4.96
0.71
-3.51
-7.92
-12.85
-18.70
-25.81
-34.47
-44.65
-55.82
-66.63
-74.94
-78.36
-74.98
-64.16
-46.96
-25.91
-4.24
15.15
30.35
40.81
46.96
49.70
49.88
48.07
44.60
39.86
34.44
29.15
24.87
22.19
21.17
21.31
21.76
21.68
20.57
18.42
15.48
12.13
8.52
4.61
0.21
-4.83
-10.63
-17.27
-24.94
-33.89
-44.16
-55.25
-65.73
-73.35
-75.62
-70.71
-58.21
-39.53
-17.51
4.52
23.74
38.55
48.63
54.55
57.13
57.00
54.51
49.93
43.74
36.75
30.04
24.66
21.33
20.18
20.74
22.07
23.09
22.92
21.13
17.81
13.45
8.61
3.67
-1.34
-6.66
-12.63
-19.50
-27.38
-36.33
-46.38
-57.36
-68.56
-78.48
-84.80
-85.03
-77.43
-61.94
-40.44
-16.27
6.86
26.08
39.96
48.60
52.92
54.06
52.82
49.68
45.01
39.31
33.31
27.85
23.62
21.01
20.00
20.18
20.91
21.50
21.36
20.11
17.59
13.90
9.26
3.92
-1.89
-8.01
-14.34
-20.89
-27.73
-35.19
-43.70
-53.62
-64.80
-76.13
-85.45
-89.95
-87.13
-75.76
-56.65
-32.43
-6.76
16.81
35.82
49.30
57.47
61.13
61.19
58.38
53.37
47.01
40.29
34.26
29.73
27.08
26.14
26.46
27.39
28.39
29.03
28.97
27.89
25.46
21.42
15.68
8.46
0.21
-8.44
-16.92
-24.86
-32.26
-39.47
-47.17
-56.16
-66.81
-78.70
-90.12
-98.27
-100.04
-93.00
-76.55
-52.34
-23.87
4.62
29.33
47.94
59.76
65.42
66.17
63.38
58.28
51.91
45.27
39.27
34.59
31.57
30.13
29.86
30.17
30.56
30.67
30.33
29.40
27.69
24.95
20.94
15.60
9.07
1.73
-5.95
-13.57
-20.98
-28.25
-35.82
-44.39
-54.64
-66.81
-80.13
-92.52
-100.86
-101.86
-93.33
-75.09
-49.33
-19.95
8.72
33.18
51.54
63.51
69.82
71.50
69.50
64.66
57.90
50.34
43.16
37.37
33.41
31.21
30.24
29.95
29.96
30.12
30.36
30.46
29.93
28.09
24.35
18.49
10.81
2.09
-6.66
-14.63
-21.46
-27.37
-33.09
-39.66
-48.08
-58.89
-71.68
-84.80
-95.41
-100.24
-96.52
-83.14
-61.19
-33.77
-5.07
20.97
41.65
55.91
64.03
67.04
66.08
62.19
56.29
49.37
42.47
36.56
32.29
29.85
28.94
28.98
29.35
29.63
29.66
29.36
28.59
26.97
23.97
19.17
12.55
4.56
-3.93
-12.05
-19.30
-25.75
-32.03
-39.16
-48.12
-59.37
-72.46
-85.68
-96.30
-101.11
-97.52
-84.50
-63.18
-36.58
-8.71
16.58
36.68
50.49
58.21
60.81
59.51
55.57
50.11
44.19
38.73
34.38
31.48
30.02
29.75
30.27
31.19
32.21
33.07
33.57
33.42
32.23
29.52
24.91
18.29
10.01
0.83
-8.29
-16.54
-23.60
-29.82
-36.15
-43.83
-53.80
-66.08
-79.30
-90.75
-97.08
-95.35
-84.16
-64.25
-38.34
-10.23
16.32
38.60
55.21
66.01
71.54
72.63
70.20
65.22
58.75
51.88
45.60
40.67
37.45
35.94
35.74
36.27
36.85
36.93
36.15
34.31
31.28
26.90
20.99
13.45
4.46
-5.36
-15.17
-24.03
-31.36
-37.14
-42.06
-47.24
-53.99
-63.12
-74.45
-86.50
-96.57
-101.50
-98.58
-86.60
-66.39
-40.64
-13.03
12.79
34.12
49.58
59.01
63.08
62.81
59.36
53.87
47.42
40.99
35.36
31.00
28.09
26.51
25.93
25.94
26.11
26.09
25.58
24.33
22.10
18.69
14.05
8.26
1.62
-5.46
-12.60
-19.64
-26.65
-34.06
-42.44
-52.27
-63.55
-75.36
-85.74
-91.98
-91.39
-82.32
-64.90
-41.22
-14.78
10.58
31.77
47.11
56.40
60.51
60.67
58.01
53.35
47.27
40.36
33.37
27.21
22.77
20.65
20.87
22.82
25.42
27.50
28.11
26.83
23.75
19.34
14.11
8.48
2.63
-3.47
-9.94
-16.94
-24.71
-33.60
-43.90
-55.58
-67.71
-78.31
-84.61
-83.88
-74.50
-56.85
-33.39
-7.90
15.69
34.54
47.49
54.89
57.93
57.93
55.79
51.97
46.79
40.66
34.30
28.63
24.50
22.36
22.18
23.31
24.79
25.63
25.17
23.21
20.00
16.02
11.66
7.10
2.18
-3.36
-9.76
-17.13
-25.49
-34.87
-45.21
-56.13
-66.53
-74.46
-77.42
-73.22
-60.97
-41.70
-18.20
5.81
26.88
42.84
53.10
58.34
59.80
58.62
55.55
51.08
45.60
39.65
33.92
29.08
25.67
23.90
23.58
24.17
24.94
25.14
24.26
22.14
18.89
14.83
10.24
5.27
-0.13
-6.04
-12.56
-19.69
-27.48
-36.09
-45.61
-55.75
-65.45
-72.76
-75.26
-70.92
-58.99
-40.50
-18.12
4.73
24.89
40.34
50.42
55.54
56.63
54.69
50.59
45.14
39.16
33.45
28.68
25.24
23.20
22.39
22.50
23.15
23.94
24.40
24.05
22.51
19.59
15.39
10.21
4.48
-1.46
-7.41
-13.27
-19.06
-24.90
-31.10
-38.13
-46.46
-56.02
-65.87
-73.98
-77.73
-74.77
-64.05
-46.45
-24.60
-2.03
17.95
33.26
43.26
48.48
49.94
48.66
45.36
40.61
35.05
29.47
24.71
21.43
19.92
19.97
21.03
22.45
23.79
24.82
25.41
25.36
24.27
21.63
17.09
10.72
3.10
-4.91
-12.53
-19.32
-25.34
-31.04
-37.06
-44.04
-52.31
-61.63
-70.91
-78.23
-81.19
-77.68
-66.77
-49.27
-27.63
-5.17
14.95
30.61
41.11
46.84
48.75
47.76
44.66
40.05
34.60
29.12
24.42
21.09
19.31
18.79
18.95
19.20
19.24
19.07
18.88
18.74
18.41
17.31
14.77
10.46
4.54
-2.34
-9.35
-15.83
-21.52
-26.68
-31.92
-38.02
-45.64
-55.02
-65.56
-75.74
-83.19
-85.39
-80.53
-68.27
-50.02
-28.52
-6.88
12.30
27.49
38.25
44.80
47.62
47.19
44.09
39.10
33.25
27.63
23.10
20.04
18.37
17.64
17.38
17.20
16.99
16.74
16.48
16.05
15.12
13.23
9.97
5.23
-0.77
-7.46
-14.14
-20.24
-25.56
-30.36
-35.28
-41.17
-48.71
-58.00
-68.28
-77.78
-84.10
-84.86
-78.50
-65.01
-46.02
-24.36
-3.21
14.91
28.57
37.55
42.41
43.95
42.91
39.96
35.76
31.06
26.66
23.21
20.95
19.70
19.00
18.39
17.62
16.79
16.07
15.53
14.94
13.78
11.43
7.55
2.18
-4.27
-11.13
-17.87
-24.17
-30.11
-36.08
-42.67
-50.48
-59.81
-70.25
-80.51
-88.41
-91.45
-87.59
-76.10
-58.02
-35.92
-13.12
7.32
23.39
34.44
40.87
43.61
43.56
41.43
37.83
33.36
28.71
24.56
21.37
19.28
18.20
17.94
18.28
19.06
20.04
20.81
20.82
19.50
16.52
11.91
6.09
-0.43
-7.13
-13.79
-20.44
-27.35
-34.98
-43.80
-54.02
-65.21
-76.02
-84.25
-87.34
-83.29
-71.48
-53.12
-30.95
-8.40
11.53
26.94
37.33
43.22
45.60
45.41
43.40
40.08
35.94
31.49
27.28
23.85
21.57
20.56
20.65
21.35
22.03
22.03
20.91
18.42
14.64
9.83
4.33
-1.54
-7.54
-13.54
-19.51
-25.63
-32.30
-40.12
-49.50
-60.30
-71.32
-80.32
-84.50
-81.47
-70.21
-51.64
-28.50
-4.42
17.16
34.03
45.47
52.07
54.96
55.23
53.53
50.17
45.40
39.66
33.71
28.47
24.70
22.73
22.32
22.80
23.28
23.05
21.76
19.42
16.30
12.73
8.88
4.75
0.15
-5.19
-11.54
-19.16
-28.27
-38.89
-50.59
-62.18
-71.66
-76.57
-74.68
-64.95
-48.03
-26.30
-3.09
18.32
35.62
47.92
55.51
59.26
60.07
58.44
54.63
49.00
42.25
35.48
29.91
26.45
25.33
26.02
27.44
28.43
28.17
26.39
23.36
19.63
15.69
11.77
7.79
3.39
-1.83
-8.28
-16.29
-25.99
-37.22
-49.27
-60.72
-69.43
-73.03
-69.59
-58.46
-40.66
-18.71
4.11
24.73
41.09
52.42
59.02
61.70
61.34
58.70
54.39
49.05
43.36
38.03
33.66
30.64
29.04
28.65
29.02
29.54
29.60
28.66
26.41
22.80
18.01
12.40
6.35
0.16
-6.04
-12.32
-18.88
-26.13
-34.49
-44.20
-54.92
-65.41
-73.60
-77.00
-73.55
-62.51
-44.85
-23.11
-0.57
19.72
35.71
46.63
52.73
54.86
53.94
50.81
46.23
40.93
35.68
31.14
27.77
25.71
24.80
24.69
24.94
25.20
25.15
24.58
23.26
20.95
17.47
12.75
6.91
0.26
-6.73
-13.64
-20.19
-26.41
-32.67
-39.60
-47.85
-57.68
-68.41
-78.30
-84.78
-85.21
-77.85
-62.67
-41.52
-17.63
5.42
24.76
38.88
47.65
51.82
52.45
50.44
46.55
41.45
35.92
30.78
26.72
24.10
22.87
22.65
22.95
23.37
23.64
23.63
23.16
21.95
19.65
15.97
10.88
4.60
-2.38
-9.56
-16.53
-23.18
-29.69
-36.56
-44.40
-53.57
-63.83
-73.98
-81.94
-85.27
-81.90
-71.08
-53.74
-32.38
-10.21
9.80
25.71
36.82
43.45
46.42
46.58
44.69
41.41
37.44
33.46
30.03
27.51
25.97
25.27
25.16
25.40
25.81
26.18
26.29
25.80
24.28
21.36
16.89
11.00
4.14
-3.08
-10.08
-16.58
-22.69
-28.93
-36.05
-44.78
-55.33
-67.09
-78.44
-86.95
-89.98
-85.61
-73.34
-54.50
-31.83
-8.68
11.96
28.22
39.46
46.04
48.76
48.52
46.15
42.45
38.20
34.17
30.97
28.89
27.91
27.72
27.89
28.06
28.03
27.67
26.85
25.36
22.91
19.21
14.15
7.83
0.67
-6.79
-13.98
-20.55
-26.47
-32.10
-38.13
-45.40
-54.52
-65.34
-76.64
-86.14
-91.01
-88.84
-78.59
-61.11
-38.96
-15.55
5.85
23.05
35.14
42.34
45.46
45.48
43.32
39.88
35.93
32.17
29.05
26.79
25.35
24.58
24.28
24.28
24.43
24.55
24.43
23.85
22.52
20.19
16.61
11.71
5.59
-1.38
-8.65
-15.67
-22.13
-28.12
-34.22
-41.18
-49.68
-59.77
-70.50
-79.93
-85.51
-84.90
-76.80
-61.54
-41.06
-18.36
3.41
21.76
35.32
43.86
47.89
48.30
46.05
42.07
37.30
32.62
28.72
26.03
24.56
23.99
23.88
23.87
23.76
23.59
23.38
23.02
22.12
20.19
16.80
11.83
5.56
-1.45
-8.56
-15.32
-21.54
-27.41
-33.36
-40.08
-48.24
-58.15
-69.36
-80.26
-88.32
-90.67
-85.16
-71.27
-50.52
-26.00
-1.43
20.11
36.84
48.40
55.31
58.43
58.47
56.03
51.75
46.50
41.32
37.13
34.42
33.15
32.81
32.74
32.46
31.88
31.18
30.55
29.99
29.13
27.33
23.99
18.79
11.89
3.89
-4.40
-12.21
-19.11
-25.09
-30.59
-36.31
-43.06
-51.42
-61.35
-71.89
-81.03
-86.16
-84.82
-75.66
-59.04
-37.02
-12.72
10.65
30.61
45.86
56.04
61.43
62.57
60.16
55.11
48.58
41.90
36.22
32.28
30.20
29.59
29.77
30.09
30.21
30.09
29.93
29.87
29.76
29.08
27.17
23.45
17.80
10.62
2.67
-5.19
-12.36
-18.67
-24.38
-30.13
-36.66
-44.72
-54.57
-65.75
-76.72
-85.06
-88.01
-83.39
-70.55
-50.73
-26.80
-2.27
19.72
37.25
49.74
57.54
61.39
61.85
59.38
54.50
48.03
41.18
35.29
31.33
29.64
29.77
30.74
31.55
31.57
30.78
29.56
28.40
27.44
26.29
24.13
20.12
13.82
5.52
-3.86
-13.06
-21.01
-27.24
-32.01
-36.21
-40.98
-47.38
-55.93
-66.37
-77.43
-86.86
-92.00
-90.45
-81.00
-64.15
-42.09
-17.96
5.07
24.70
39.78
50.19
56.28
58.50
57.28
53.16
46.98
39.97
33.51
28.76
26.33
26.10
27.35
29.09
30.46
31.05
30.96
30.61
30.38
30.24
29.73
27.97
24.14
17.86
9.43
-0.27
-10.06
-18.97
-26.50
-32.76
-38.31
-44.00
-50.66
-58.90
-68.79
-79.59
-89.56
-96.23
-97.00
-90.02
-75.02
-53.58
-28.71
-3.91
17.84
34.82
46.60
53.62
56.68
56.52
53.81
49.24
43.65
38.08
33.49
30.54
29.43
29.94
31.48
33.44
35.25
36.55
37.17
37.04
36.16
34.56
32.18
28.98
24.84
19.68
13.42
6.11
-2.09
-10.86
-19.73
-28.19
-35.80
-42.33
-47.81
-52.58
-57.18
-62.33
-68.75
-76.84
-86.27
-95.76
-103.04
-105.44
-100.73
-88.03
-68.24
-43.90
-18.36
5.19
24.49
38.52
47.29
51.45
51.89
49.56
45.44
40.49
35.57
31.32
28.09
25.93
24.73
24.31
24.52
25.18
26.01
26.59
26.41
25.01
22.10
17.71
12.07
5.64
-1.19
-8.09
-14.91
-21.74
-28.89
-36.93
-46.35
-57.18
-68.53
-78.43
-84.17
-83.17
-74.00
-57.08
-34.70
-10.31
12.57
31.39
45.01
53.55
57.86
58.89
57.33
53.65
48.26
41.74
34.90
28.72
24.06
21.43
20.82
21.64
22.93
23.70
23.25
21.38
18.32
14.56
10.54
6.41
2.04
-2.94
-8.90
-16.17
-25.00
-35.55
-47.54
-60.06
-71.34
-78.95
-80.40
-74.10
-60.02
-39.95
-16.92
5.71
25.20
40.02
49.88
55.26
56.93
55.58
51.79
46.14
39.38
32.43
26.28
21.78
19.33
18.79
19.44
20.28
20.31
18.92
16.06
12.19
7.92
3.77
-0.10
-3.94
-8.26
-13.58
-20.36
-28.85
-39.05
-50.49
-62.02
-71.73
-77.21
-76.27
-67.72
-52.04
-31.37
-8.86
12.29
29.73
42.37
50.25
54.02
54.39
51.96
47.20
40.72
33.37
26.24
20.36
16.47
14.73
14.74
15.61
16.34
16.14
14.67
12.03
8.68
5.08
1.46
-2.26
-6.44
-11.55
-17.96
-25.90
-35.46
-46.51
-58.43
-69.94
-78.98
-83.09
-80.12
-69.16
-51.02
-28.24
-4.23
17.76
35.53
48.26
56.27
60.35
61.26
59.47
55.32
49.30
42.21
35.14
29.18
25.18
23.36
23.31
24.13
24.70
24.14
22.05
18.61
14.38
10.00
5.81
1.77
-2.48
-7.46
-13.61
-21.21
-30.36
-40.82
-51.80
-61.80
-68.70
-70.19
-64.59
-51.64
-32.77
-10.76
11.07
29.91
44.09
53.23
57.87
58.94
57.30
53.61
48.44
42.40
36.26
30.94
27.19
25.42
25.42
26.44
27.39
27.29
25.64
22.51
18.48
14.22
10.11
6.14
1.91
-3.07
-9.21
-16.69
-25.51
-35.55
-46.39
-57.17
-66.36
-71.90
-71.74
-64.59
-50.51
-31.20
-9.51
11.39
28.96
41.80
49.75
53.49
53.97
52.08
48.50
43.83
38.66
33.58
29.11
25.62
23.27
22.08
21.88
22.34
22.98
23.16
22.28
19.93
16.05
10.94
5.14
-0.82
-6.57
-11.98
-17.14
-22.27
-27.71
-33.97
-41.59
-50.75
-60.91
-70.45
-76.88
-77.54
-70.62
-56.01
-35.60
-12.69
9.07
26.86
39.36
46.73
50.00
50.33
48.59
45.32
40.89
35.79
30.71
26.35
23.24
21.59
21.26
21.86
22.87
23.70
23.84
22.85
20.55
16.99
12.41
7.16
1.50
-4.38
-10.38
-16.42
-22.45
-28.60
-35.19
-42.79
-51.69
-61.52
-70.88
-77.41
-78.56
-72.59
-59.33
-40.46
-18.95
1.93
19.58
32.70
41.25
45.92
47.68
47.31
45.40
42.43
38.87
35.27
32.08
29.57
27.77
26.56
25.79
25.32
25.06
24.81
24.20
22.72
19.93
15.60
9.90
3.34
-3.47
-10.06
-16.23
-22.16
-28.26
-35.07
-43.06
-52.38
-62.52
-72.16
-79.20
-81.28
-76.56
-64.58
-46.55
-25.22
-3.94
14.36
27.95
36.47
40.62
41.49
40.09
37.11
33.04
28.35
23.55
19.22
15.78
13.40
12.02
11.38
11.21
11.26
11.31
11.12
10.43
8.98
6.63
3.40
-0.54
-4.89
-9.43
-14.05
-18.81
-23.93
-29.77
-36.74
-45.13
-54.86
-65.08
-74.11
-79.67
-79.52
-72.35
-58.41
-39.50
-18.52
1.54
18.42
31.04
39.36
43.97
45.61
44.99
42.67
39.28
35.45
31.79
28.73
26.51
25.13
24.45
24.28
24.40
24.55
24.44
23.69
21.96
19.00
14.73
9.34
3.22
-3.15
-9.34
-15.14
-20.61
-26.11
-32.20
-39.44
-48.19
-58.19
-68.36
-76.74
-80.97
-78.98
-69.81
-54.15
-34.19
-12.98
6.59
22.50
33.94
41.10
44.65
45.33
43.74
40.41
35.89
30.85
25.96
21.82
18.78
16.94
16.12
16.00
16.19
16.34
16.20
15.58
14.35
12.29
9.13
4.65
-1.18
-8.01
-15.26
-22.21
-28.43
-33.91
-39.19
-45.15
-52.58
-61.71
-71.77
-81.00
-87.02
-87.48
-80.97
-67.51
-48.67
-27.08
-5.64
13.29
28.33
39.09
45.82
48.98
49.06
46.56
42.11
36.56
30.94
26.18
22.89
21.27
21.05
21.74
22.82
23.93
24.90
25.59
25.81
25.16
23.16
19.40
13.81
6.80
-0.86
-8.28
-14.89
-20.59
-25.85
-31.52
-38.50
-47.40
-58.12
-69.69
-80.22
-87.26
-88.47
-82.40
-69.07
-50.11
-28.26
-6.50
12.70
27.95
38.85
45.66
48.87
48.98
46.56
42.33
37.23
32.32
28.49
26.22
25.48
25.81
26.50
27.01
27.09
26.92
26.85
27.11
27.56
27.53
26.13
22.59
16.67
8.83
0.03
-8.61
-16.25
-22.64
-28.09
-33.39
-39.45
-47.10
-56.69
-67.85
-79.18
-88.41
-92.89
-90.36
-79.93
-62.41
-40.16
-16.30
6.22
25.35
40.08
50.21
55.96
57.65
55.76
51.02
44.60
37.84
32.06
28.14
26.32
26.27
27.27
28.65
29.95
31.04
31.98
32.76
33.10
32.44
30.12
25.70
19.15
10.94
1.91
-7.06
-15.27
-22.39
-28.63
-34.58
-41.14
-49.21
-59.33
-71.13
-83.12
-92.81
-97.26
-94.13
-82.47
-63.20
-38.84
-12.69
12.13
33.38
49.86
61.19
67.45
68.94
66.24
60.31
52.54
44.48
37.49
32.46
29.61
28.68
29.15
30.43
32.04
33.67
35.05
35.92
35.93
34.58
31.36
25.90
18.20
8.77
-1.42
-11.27
-19.91
-27.11
-33.34
-39.61
-47.13
-56.79
-68.71
-81.85
-94.03
-102.23
-103.51
-95.94
-79.41
-55.84
-28.56
-1.30
22.91
42.27
56.26
65.14
69.39
69.48
66.02
59.84
52.16
44.34
37.57
32.55
29.40
27.76
27.15
27.12
27.49
28.20
29.13
29.88
29.76
27.90
23.66
16.91
8.13
-1.66
-11.31
-19.98
-27.41
-34.06
-40.91
-49.19
-59.84
-73.02
-87.69
-101.50
-111.15
-113.33
-105.78
-88.32
-62.97
-33.44
-3.94
22.04
42.45
56.66
65.10
68.54
67.80
63.77
57.47
50.18
43.25
37.76
34.25
32.67
32.44
32.89
33.49
34.04
34.55
34.97
34.99
33.96
31.05
25.70
17.89
8.26
-2.11
-12.08
-20.94
-28.62
-35.65
-43.03
-51.84
-62.87
-76.15
-90.63
-104.00
-113.03
-114.39
-105.69
-86.50
-58.76
-26.24
6.48
35.34
57.71
72.68
80.72
83.04
81.06
76.04
69.13
61.44
54.05
47.91
43.64
41.38
40.78
41.16
41.83
42.35
42.55
42.36
41.65
40.01
36.84
31.60
24.12
14.74
4.33
-6.15
-15.91
-24.65
-32.67
-40.76
-50.00
-61.27
-74.80
-89.61
-103.39
-112.79
-114.40
-105.84
-86.81
-59.36
-27.33
4.77
33.04
55.04
69.94
78.18
80.81
79.09
74.21
67.41
60.01
53.28
48.23
45.32
44.29
44.38
44.66
44.48
43.74
42.78
42.02
41.46
40.59
38.38
33.84
26.50
16.65
5.32
-6.16
-16.61
-25.44
-32.79
-39.43
-46.50
-55.19
-66.30
-79.73
-94.10
-106.74
-114.20
-113.31
-102.26
-81.44
-53.46
-22.34
7.70
33.37
52.88
65.87
72.91
74.96
73.06
68.27
61.79
54.88
48.70
44.07
41.24
39.98
39.71
39.83
39.94
39.86
39.50
38.74
37.21
34.41
29.84
23.28
14.99
5.63
-3.97
-13.10
-21.42
-29.03
-36.45
-44.46
-53.84
-64.95
-77.33
-89.39
-98.51
-101.64
-96.33
-81.68
-58.94
-31.28
-2.81
22.62
42.40
55.57
62.55
64.49
62.75
58.54
52.86
46.59
40.51
35.27
31.30
28.70
27.32
26.77
26.62
26.48
26.06
25.16
23.66
21.38
18.06
13.47
7.48
0.18
-8.06
-16.64
-24.98
-32.71
-39.94
-47.34
-55.83
-66.14
-78.18
-90.56
-100.65
-105.19
-101.40
-88.07
-66.18
-38.67
-9.58
17.16
38.81
54.14
63.26
67.06
66.77
63.61
58.70
53.13
47.85
43.58
40.62
38.92
38.13
37.83
37.67
37.44
36.97
36.07
34.51
31.99
28.23
23.09
16.65
9.13
0.93
-7.46
-15.55
-23.02
-29.84
-36.46
-43.73
-52.53
-63.18
-74.88
-85.49
-91.99
-91.42
-82.06
-64.23
-40.31
-14.02
10.84
31.40
46.39
55.88
60.84
62.40
61.54
58.96
55.21
50.77
46.21
42.05
38.70
36.46
35.38
35.32
35.89
36.55
36.67
35.71
33.30
29.35
24.05
17.80
11.04
4.16
-2.64
-9.43
-16.48
-24.25
-33.20
-43.52
-54.77
-65.67
-74.09
-77.57
-74.05
-62.74
-44.56
-22.05
1.40
22.55
39.13
50.30
56.37
58.34
57.32
54.28
49.94
44.95
39.93
35.46
32.00
29.79
28.81
28.86
29.57
30.54
31.29
31.32
30.16
27.42
22.98
17.01
10.00
2.58
-4.64
-11.30
-17.32
-22.93
-28.63
-35.10
-42.93
-52.26
-62.43
-71.71
-77.62
-77.59
-69.98
-54.83
-34.09
-11.01
10.83
28.67
41.18
48.39
51.27
51.06
48.85
45.43
41.36
37.17
33.33
30.25
28.10
26.83
26.19
25.87
25.62
25.30
24.82
24.00
22.58
20.18
16.57
11.70
5.79
-0.72
-7.36
-13.73
-19.70
-25.44
-31.42
-38.30
-46.55
-56.10
-65.89
-73.98
-77.90
-75.57
-66.10
-50.28
-30.41
-9.54
9.45
24.60
35.13
41.22
43.63
43.26
40.90
37.23
32.84
28.31
24.20
20.96
18.93
18.12
18.30
19.03
19.79
20.15
19.80
18.59
16.49
13.49
9.61
5.00
-0.21
-5.77
-11.49
-17.25
-23.11
-29.30
-36.23
-44.33
-53.72
-63.87
-73.41
-80.20
-81.92
-76.92
-64.90
-47.28
-26.72
-6.44
10.93
23.85
32.10
36.36
37.69
37.06
35.17
32.48
29.32
26.05
23.00
20.52
18.82
17.96
17.81
18.10
18.48
18.61
18.20
17.07
15.13
12.29
8.55
3.96
-1.39
-7.30
-13.49
-19.67
-25.73
-31.79
-38.30
-45.74
-54.20
-62.95
-70.29
-73.93
-71.79
-62.89
-47.93
-29.13
-9.52
8.11
21.96
31.57
37.38
40.23
40.89
39.84
37.44
34.17
30.66
27.51
25.19
23.78
23.00
22.43
21.71
20.70
19.47
18.16
16.74
15.01
12.64
9.34
5.03
-0.07
-5.54
-10.96
-16.08
-20.86
-25.59
-30.70
-36.76
-44.18
-52.98
-62.42
-70.97
-76.52
-76.99
-71.12
-59.04
-42.29
-23.38
-5.01
10.69
22.56
30.39
34.65
36.09
35.48
33.53
30.88
28.11
25.68
23.92
22.93
22.59
22.57
22.51
22.18
21.60
20.99
20.55
20.28
19.81
18.52
15.79
11.32
5.27
-1.83
-9.27
-16.40
-22.80
-28.46
-33.64
-38.93
-45.00
-52.38
-60.97
-69.79
-76.95
-80.16
-77.50
-68.28
-53.40
-35.12
-16.23
0.81
14.53
24.54
31.14
34.80
35.94
34.85
31.99
28.02
23.87
20.40
18.17
17.24
17.20
17.44
17.37
16.71
15.52
14.09
12.74
11.56
10.33
8.57
5.77
1.68
-3.54
-9.37
-15.19
-20.59
-25.54
-30.48
-36.02
-42.75
-50.94
-60.28
-69.79
-77.86
-82.56
-82.15
-75.66
-63.28
-46.52
-27.73
-9.40
6.46
18.84
27.62
33.19
36.07
36.66
35.28
32.34
28.56
24.83
21.96
20.45
20.23
20.80
21.49
21.81
21.66
21.31
21.12
21.19
21.23
20.55
18.40
14.29
8.23
0.80
-7.10
-14.56
-21.03
-26.43
-31.25
-36.27
-42.37
-50.15
-59.61
-69.87
-79.19
-85.27
-85.92
-79.78
-66.91
-48.89
-28.27
-7.88
10.09
24.43
34.94
42.06
46.31
48.11
47.66
45.25
41.40
36.99
33.04
30.41
29.47
29.99
31.26
32.41
32.85
32.45
31.54
30.60
29.92
29.38
28.37
26.11
21.92
15.63
7.65
-1.15
-9.72
-17.24
-23.32
-28.12
-32.27
-36.62
-42.02
-49.06
-57.79
-67.44
-76.38
-82.35
-83.11
-77.12
-64.23
-45.80
-24.38
-2.87
16.25
31.45
42.20
48.76
51.71
51.76
49.62
46.05
41.83
37.72
34.27
31.81
30.39
29.83
29.87
30.22
30.61
30.83
30.67
29.86
28.15
25.26
21.04
15.60
9.26
2.49
-4.25
-10.73
-17.03
-23.55
-30.94
-39.76
-50.14
-61.41
-71.94
-79.35
-81.18
-75.74
-62.81
-43.83
-21.52
0.92
20.74
36.25
46.87
52.90
55.04
54.10
50.88
46.15
40.74
35.45
31.01
27.87
26.17
25.72
26.14
27.02
28.01
28.85
29.31
29.05
27.59
24.49
19.51
12.83
5.02
-3.12
-10.85
-17.81
-24.04
-30.01
-36.43
-43.98
-53.05
-63.38
-73.84
-82.41
-86.62
-84.28
-74.33
-57.36
-35.54
-12.01
10.15
28.61
42.26
50.98
55.29
55.91
53.60
49.13
43.42
37.45
32.22
28.38
26.24
25.65
26.09
27.03
27.97
28.67
29.00
28.87
28.06
26.16
22.73
17.48
10.57
2.50
-5.92
-13.96
-21.24
-27.82
-34.17
-41.02
-49.03
-58.51
-69.10
-79.53
-87.71
-91.11
-87.60
-76.23
-57.72
-34.43
-9.58
13.68
33.11
47.59
57.00
61.75
62.45
59.79
54.67
48.20
41.66
36.17
32.30
30.06
28.93
28.24
27.48
26.55
25.66
25.05
24.75
24.38
23.25
20.66
16.18
9.87
2.23
-5.94
-13.89
-21.10
-27.45
-33.21
-39.03
-45.82
-54.33
-64.77
-76.31
-87.02
-94.15
-94.98
-87.77
-72.49
-50.94
-26.15
-1.50
20.25
37.46
49.55
56.72
59.50
58.60
54.88
49.34
43.16
37.46
33.04
30.20
28.80
28.38
28.47
28.76
29.16
29.75
30.48
31.12
31.11
29.75
26.38
20.68
12.83
3.53
-6.24
-15.50
-23.61
-30.53
-36.80
-43.36
-51.27
-61.17
-72.80
-84.77
-94.58
-99.30
-96.51
-85.17
-66.15
-41.98
-16.07
8.33
28.89
44.47
54.88
60.41
61.60
59.11
53.85
47.08
40.22
34.58
30.90
29.30
29.24
29.90
30.52
30.69
30.43
29.93
29.38
28.62
27.18
24.42
19.86
13.42
5.51
-3.10
-11.56
-19.27
-26.04
-32.16
-38.26
-45.16
-53.58
-63.84
-75.45
-86.94
-95.95
-99.73
-96.05
-84.03
-64.62
-40.41
-14.86
8.73
28.01
41.99
50.69
54.80
55.22
52.79
48.38
42.89
37.25
32.30
28.62
26.38
25.44
25.37
25.75
26.20
26.48
26.38
25.65
23.95
20.93
16.35
10.23
2.90
-5.04
-12.96
-20.36
-27.13
-33.60
-40.54
-48.85
-59.11
-71.06
-83.21
-92.94
-97.11
-93.20
-80.23
-59.37
-33.69
-7.11
16.72
35.46
48.40
56.08
59.64
60.19
58.48
55.04
50.35
45.12
40.15
36.13
33.47
32.12
31.77
31.96
32.22
32.24
31.72
30.36
27.86
24.07
19.04
13.04
6.45
-0.36
-7.22
-14.17
-21.44
-29.40
-38.50
-49.02
-60.80
-72.81
-83.06
-88.85
-87.61
-77.91
-60.11
-36.54
-10.74
13.61
33.74
48.34
57.49
62.09
63.33
62.26
59.64
56.09
52.12
48.17
44.59
41.63
39.41
37.91
37.07
36.70
36.56
36.33
35.55
33.81
30.71
26.04
19.90
12.68
4.98
-2.54
-9.42
-15.57
-21.27
-27.15
-33.99
-42.43
-52.56
-63.60
-73.71
-80.32
-80.91
-73.83
-59.13
-38.68
-15.62
6.68
25.54
39.61
48.77
53.76
55.51
54.88
52.54
49.16
45.44
42.11
39.69
38.34
37.85
37.75
37.56
37.05
36.29
35.49
34.78
33.98
32.57
29.89
25.43
19.10
11.30
2.82
-5.47
-12.87
-19.12
-24.41
-29.43
-35.09
-42.24
-51.21
-61.38
-71.00
-77.52
-78.37
-71.88
-58.03
-38.59
-16.61
4.70
22.78
36.36
45.34
50.35
52.18
51.51
48.87
44.83
40.14
35.68
32.28
30.46
30.28
31.29
32.75
33.95
34.48
34.32
33.78
33.12
32.36
31.02
28.39
23.81
17.08
8.70
-0.32
-8.79
-15.82
-21.19
-25.41
-29.51
-34.67
-41.85
-51.33
-62.41
-73.39
-81.78
-84.97
-81.09
-69.61
-51.73
-29.97
-7.47
12.89
29.17
40.61
47.38
50.20
49.95
47.51
43.71
39.40
35.39
32.31
30.54
30.00
30.32
30.91
31.34
31.40
31.17
30.82
30.38
29.59
27.92
24.80
19.95
13.48
5.98
-1.76
-9.04
-15.49
-21.19
-26.63
-32.55
-39.69
-48.49
-58.70
-69.17
-77.87
-82.35
-80.48
-71.26
-55.38
-35.02
-13.21
7.06
23.78
36.07
44.03
48.24
49.38
48.00
44.70
40.24
35.58
31.70
29.22
28.30
28.56
29.27
29.70
29.43
28.40
26.87
25.20
23.51
21.59
19.00
15.21
9.98
3.49
-3.64
-10.61
-16.73
-21.79
-26.08
-30.27
-35.16
-41.39
-49.19
-58.25
-67.57
-75.53
-80.10
-79.42
-72.36
-59.11
-41.23
-21.26
-1.94
14.61
27.32
36.09
41.45
44.02
44.30
42.67
39.64
35.89
32.32
29.66
28.28
28.02
28.33
28.61
28.42
27.73
26.77
25.90
25.27
24.70
23.64
21.40
17.44
11.63
4.34
-3.64
-11.38
-18.18
-23.77
-28.37
-32.63
-37.36
-43.34
-50.97
-60.12
-69.79
-78.22
-83.21
-82.71
-75.66
-62.45
-44.93
-25.81
-7.73
7.44
18.94
26.95
32.11
35.01
36.05
35.50
33.71
31.22
28.67
26.61
25.33
24.72
24.42
24.05
23.39
22.53
21.72
21.13
20.66
19.81
17.89
14.29
8.89
2.11
-5.22
-12.18
-18.10
-22.87
-26.85
-30.78
-35.44
-41.43
-49.05
-57.97
-67.27
-75.29
-80.04
-79.64
-73.04
-60.52
-43.66
-25.00
-7.15
7.89
19.18
26.73
31.16
33.17
33.31
31.97
29.55
26.57
23.68
21.43
20.10
19.54
19.36
19.13
18.62
17.89
17.23
16.81
16.57
16.15
14.97
12.57
8.73
3.61
-2.34
-8.60
-14.68
-20.32
-25.47
-30.35
-35.39
-41.19
-48.25
-56.64
-65.66
-73.77
-78.81
-78.67
-72.10
-59.26
-41.81
-22.43
-3.90
11.66
23.27
30.99
35.46
37.48
37.70
36.61
34.68
32.45
30.50
29.28
28.94
29.25
29.73
29.84
29.28
28.13
26.76
25.64
25.01
24.62
23.79
21.67
17.64
11.63
4.24
-3.49
-10.57
-16.43
-21.17
-25.49
-30.36
-36.67
-44.88
-54.76
-65.22
-74.42
-80.13
-80.35
-73.96
-61.22
-43.78
-24.16
-4.98
11.74
24.93
34.44
40.62
43.99
45.07
44.35
42.41
39.91
37.44
35.44
34.05
33.14
32.44
31.70
30.85
29.96
29.18
28.60
28.02
27.02
24.98
21.39
16.06
9.29
1.77
-5.64
-12.23
-17.71
-22.33
-26.77
-31.93
-38.59
-47.01
-56.61
-65.90
-72.67
-74.65
-70.21
-59.06
-42.43
-22.76
-2.87
14.82
28.88
38.89
45.18
48.27
48.69
46.90
43.50
39.34
35.41
32.63
31.46
31.77
32.93
34.09
34.56
34.08
32.89
31.48
30.25
29.23
28.00
25.83
22.00
16.26
8.91
0.77
-7.15
-14.01
-19.53
-23.96
-28.03
-32.60
-38.45
-46.02
-55.18
-65.08
-74.08
-80.06
-80.89
-75.17
-62.83
-45.26
-24.97
-4.80
12.95
26.98
37.04
43.51
46.93
47.74
46.27
42.93
38.46
33.89
30.28
28.37
28.30
29.58
31.33
32.68
33.12
32.62
31.54
30.32
29.16
27.85
25.85
22.47
17.26
10.22
1.87
-6.91
-15.17
-22.24
-27.90
-32.47
-36.69
-41.43
-47.52
-55.36
-64.76
-74.71
-83.40
-88.57
-88.13
-80.87
-67.01
-48.19
-27.04
-6.30
11.91
26.44
37.10
44.23
48.26
49.54
48.42
45.34
41.04
36.50
32.67
30.24
29.45
30.01
31.37
32.78
33.68
33.79
33.16
32.03
30.64
28.97
26.73
23.45
18.66
12.20
4.34
-4.25
-12.78
-20.56
-27.29
-33.04
-38.23
-43.49
-49.50
-56.79
-65.53
-75.21
-84.42
-91.07
-92.89
-88.16
-76.44
-58.74
-37.29
-14.85
6.04
23.62
37.04
46.19
51.30
52.84
51.38
47.68
42.70
37.55
33.26
30.52
29.55
30.02
31.24
32.46
33.18
33.33
33.14
32.93
32.77
32.35
31.03
28.09
23.05
15.93
7.23
-2.17
-11.31
-19.41
-26.12
-31.60
-36.43
-41.49
-47.70
-55.69
-65.55
-76.45
-86.65
-93.76
-95.34
-89.78
-76.85
-57.90
-35.45
-12.50
8.42
25.61
38.38
46.75
51.06
51.83
49.67
45.37
39.98
34.66
30.41
27.84
26.97
27.34
28.17
28.78
28.78
28.25
27.49
26.83
26.24
25.34
23.41
19.74
13.99
6.38
-2.32
-11.13
-19.17
-26.07
-32.09
-37.95
-44.53
-52.60
-62.37
-73.33
-84.09
-92.57
-96.36
-93.44
-82.94
-65.56
-43.51
-19.87
2.32
20.83
34.59
43.52
48.14
49.15
47.34
43.53
38.63
33.62
29.33
26.28
24.61
24.14
24.54
25.50
26.75
28.05
29.04
29.30
28.35
25.74
21.30
15.08
7.46
-0.99
-9.61
-17.85
-25.41
-32.35
-39.13
-46.53
-55.33
-65.73
-76.95
-87.04
-93.25
-92.89
-84.36
-67.80
-45.22
-19.88
4.71
25.71
41.56
51.95
57.51
59.22
58.09
54.91
50.33
44.95
39.41
34.36
30.40
27.91
26.92
27.13
27.96
28.76
28.96
28.14
26.11
22.81
18.27
12.67
6.30
-0.48
-7.28
-13.85
-20.32
-27.09
-34.88
-44.37
-55.75
-68.26
-79.93
-87.93
-89.32
-82.12
-66.15
-43.35
-17.26
8.18
29.76
45.76
56.04
61.54
63.47
62.87
60.45
56.72
52.21
47.52
43.26
39.86
37.50
36.13
35.57
35.57
35.82
35.99
35.60
34.19
31.34
26.89
20.98
14.06
6.71
-0.55
-7.50
-14.29
-21.42
-29.62
-39.50
-51.18
-63.86
-75.70
-84.02
-86.04
-79.82
-65.05
-43.35
-17.85
7.78
30.31
47.71
59.36
65.63
67.51
66.05
62.29
57.17
51.64
46.50
42.35
39.38
37.46
36.20
35.20
34.28
33.47
32.89
32.55
32.13
31.01
28.45
23.91
17.32
9.11
0.12
-8.77
-16.86
-23.90
-30.12
-36.25
-43.28
-52.02
-62.60
-73.89
-83.55
-88.54
-86.13
-75.03
-56.03
-31.82
-6.14
17.52
36.80
50.80
59.74
64.37
65.42
63.52
59.29
53.60
47.67
42.74
39.71
38.84
39.61
41.00
41.98
41.90
40.77
39.05
37.25
35.56
33.66
30.80
26.21
19.51
10.97
1.38
-8.23
-16.90
-24.16
-30.00
-34.88
-39.58
-44.96
-51.87
-60.82
-71.54
-82.71
-91.94
-96.27
-93.16
-81.51
-62.25
-38.13
-12.84
10.21
28.83
42.26
50.88
55.44
56.67
55.03
51.01
45.38
39.29
34.01
30.58
29.40
30.15
31.92
33.68
34.65
34.67
34.05
33.32
32.80
32.31
31.16
28.49
23.63
16.48
7.60
-1.98
-11.14
-19.10
-25.63
-31.09
-36.25
-42.01
-49.15
-58.01
-68.27
-78.67
-87.17
-91.25
-88.75
-78.58
-61.32
-39.15
-15.21
7.38
26.33
40.58
50.10
55.42
57.11
55.69
51.72
46.07
39.90
34.53
30.97
29.61
30.10
31.59
33.06
33.78
33.52
32.50
31.22
30.03
28.93
27.44
24.79
20.26
13.62
5.20
-4.00
-12.82
-20.34
-26.28
-31.06
-35.63
-41.02
-48.03
-57.00
-67.59
-78.63
-88.18
-93.81
-93.19
-84.92
-69.19
-47.83
-23.91
-0.68
19.32
34.75
45.45
51.90
54.73
54.47
51.59
46.79
41.08
35.75
31.94
30.27
30.60
32.08
33.57
34.07
33.23
31.33
29.08
27.11
25.62
24.17
21.89
17.92
11.89
4.06
-4.72
-13.37
-21.06
-27.45
-32.72
-37.48
-42.50
-48.54
-56.19
-65.56
-76.08
-86.25
-93.82
-96.31
-91.83
-79.87
-61.58
-39.49
-16.67
4.16
21.23
33.78
41.86
45.86
46.33
43.96
39.65
34.52
29.67
26.00
23.86
23.08
23.09
23.24
23.11
22.64
22.10
21.85
22.00
22.22
21.75
19.73
15.54
9.18
1.29
-7.07
-14.86
-21.46
-26.89
-31.67
-36.66
-42.75
-50.58
-60.21
-70.91
-81.03
-88.27
-90.20
-85.09
-72.69
-54.34
-32.71
-10.86
8.56
23.94
34.79
41.40
44.40
44.47
42.25
38.44
33.90
29.59
26.29
24.45
23.99
24.41
25.01
25.26
24.99
24.37
23.79
23.44
23.16
22.40
20.39
16.55
10.77
3.46
-4.54
-12.39
-19.41
-25.36
-30.45
-35.28
-40.69
-47.57
-56.40
-66.88
-77.59
-86.12
-89.71
-86.14
-74.66
-56.38
-33.91
-10.55
10.74
28.05
40.66
48.77
53.06
54.30
53.22
50.56
47.08
43.54
40.52
38.24
36.62
35.38
34.25
33.12
32.07
31.24
30.59
29.85
28.50
25.99
21.99
16.47
9.73
2.34
-5.09
-12.10
-18.50
-24.52
-30.78
-38.08
-46.94
-57.14
-67.37
-75.37
-78.56
-74.93
-63.88
-46.50
-25.21
-3.02
17.33
34.01
46.23
54.00
57.78
58.24
56.14
52.40
47.96
43.70
40.23
37.72
36.00
34.75
33.67
32.68
31.86
31.36
31.12
30.79
29.82
27.56
23.56
17.82
10.73
3.06
-4.44
-11.20
-17.11
-22.48
-28.03
-34.52
-42.56
-52.19
-62.66
-72.33
-78.89
-80.06
-74.28
-61.40
-42.82
-21.14
0.66
20.08
35.57
46.63
53.42
56.43
56.22
53.42
48.86
43.56
38.64
34.97
33.03
32.68
33.33
34.24
34.74
34.49
33.48
31.98
30.21
28.22
25.74
22.33
17.58
11.39
4.07
-3.69
-11.09
-17.57
-22.95
-27.64
-32.36
-38.00
-45.23
-54.20
-64.25
-73.88
-80.90
-83.00
-78.51
-67.00
-49.64
-28.84
-7.54
11.72
27.33
38.80
46.38
50.58
51.85
50.54
47.15
42.47
37.58
33.58
31.25
30.74
31.55
32.76
33.46
33.09
31.68
29.68
27.68
26.01
24.50
22.56
19.41
14.49
7.84
0.00
-8.11
-15.59
-21.96
-27.26
-32.00
-36.99
-43.03
-50.67
-59.98
-70.32
-80.28
-87.77
-90.49
-86.68
-75.75
-58.70
-37.92
-16.44
2.92
18.35
29.26
36.05
39.54
40.54
39.63
37.23
33.81
30.00
26.54
24.04
22.79
22.64
23.13
23.70
23.97
23.84
23.49
23.11
22.67
21.84
19.99
16.52
11.21
4.32
-3.44
-11.15
-18.06
-23.84
-28.77
-33.54
-39.03
-46.00
-54.77
-64.90
-75.12
-83.44
-87.59
-85.66
-76.82
-61.69
-42.21
-21.11
-1.09
15.86
28.76
37.51
42.51
44.37
43.68
41.09
37.33
33.27
29.72
27.22
25.89
25.48
25.56
25.74
25.85
25.98
26.24
26.58
26.69
25.99
23.90
20.04
14.48
7.73
0.53
-6.42
-12.74
-18.48
-24.06
-30.19
-37.49
-46.27
-56.25
-66.35
-74.79
-79.38
-78.20
-70.22
-55.81
-36.70
-15.53
4.93
22.50
35.98
45.13
50.30
52.14
51.29
48.47
44.44
40.04
36.06
33.03
31.12
30.12
29.64
29.26
28.79
28.20
27.60
27.02
26.24
24.85
22.33
18.31
12.70
5.87
-1.55
-8.80
-15.34
-21.02
-26.13
-31.38
-37.58
-45.33
-54.56
-64.33
-72.75
-77.51
-76.48
-68.60
-54.29
-35.47
-14.92
4.57
20.98
33.38
41.78
46.71
48.78
48.46
46.21
42.60
38.40
34.43
31.32
29.33
28.33
27.96
27.86
27.87
28.00
28.30
28.65
28.67
27.79
25.43
21.27
15.40
8.34
0.88
-6.19
-12.39
-17.69
-22.56
-27.87
-34.50
-43.13
-53.73
-65.37
-76.18
-83.64
-85.33
-79.66
-66.56
-47.65
-25.73
-3.99
14.94
29.55
39.54
45.39
47.88
47.71
45.43
41.65
37.11
32.75
29.40
27.57
27.21
27.82
28.61
28.97
28.63
27.74
26.67
25.70
24.79
23.48
21.12
17.08
11.15
3.64
-4.70
-12.92
-20.29
-26.57
-32.08
-37.62
-44.15
-52.43
-62.59
-73.83
-84.41
-91.91
-93.91
-88.73
-76.13
-57.44
-35.26
-12.63
7.82
24.40
36.52
44.35
48.36
49.08
47.11
43.20
38.35
33.66
29.99
27.76
26.82
26.61
26.53
26.24
25.74
25.27
25.00
24.84
24.37
22.92
19.87
14.92
8.25
0.49
-7.45
-14.70
-20.77
-25.75
-30.25
-35.26
-41.74
-50.26
-60.61
-71.65
-81.32
-87.12
-86.75
-78.93
-63.90
-43.51
-20.74
1.21
19.80
33.68
42.69
47.48
48.96
47.94
45.11
41.09
36.58
32.34
29.07
27.06
26.29
26.34
26.69
26.92
26.86
26.55
26.00
25.11
23.52
20.81
16.66
11.06
4.35
-2.85
-9.89
-16.29
-21.93
-27.15
-32.66
-39.32
-47.83
-58.27
-69.68
-80.07
-86.80
-87.32
-80.13
-65.40
-45.05
-22.15
0.02
18.80
32.74
41.60
46.03
47.02
45.63
42.71
38.91
34.73
30.58
26.87
23.86
21.80
20.79
20.76
21.50
22.59
23.47
23.56
22.31
19.40
14.84
8.93
2.22
-4.72
-11.44
-17.75
-23.70
-29.61
-35.99
-43.44
-52.30
-62.26
-72.03
-79.42
-81.82
-77.23
-65.10
-46.74
-24.91
-2.99
16.21
31.05
41.25
47.39
50.36
50.93
49.63
46.87
43.07
38.76
34.49
30.70
27.70
25.58
24.25
23.47
22.89
22.11
20.80
18.77
15.98
12.55
8.61
4.26
-0.48
-5.68
-11.47
-17.96
-25.34
-33.76
-43.23
-53.23
-62.48
-69.00
-70.53
-65.36
-53.11
-35.05
-13.83
7.38
25.90
40.30
50.46
57.13
61.23
63.27
63.20
60.70
55.57
48.14
39.37
30.53
22.88
17.24
13.78
12.08
11.42
10.99
10.13
8.47
5.91
2.56
-1.39
-5.79
-10.61
-15.96
-22.02
-28.94
-36.82
-45.68
-55.23
-64.75
-72.88
-77.73
-77.28
-70.07
-55.99
-36.46
-14.24
7.47
25.95
39.64
48.29
52.60
53.67
52.49
49.78
45.99
41.51
36.77
32.27
28.52
25.86
24.36
23.79
23.75
23.76
23.42
22.46
20.72
18.16
14.78
10.67
5.98
0.95
-4.25
-9.55
-15.07
-21.14
-28.19
-36.45
-45.65
-54.79
-62.14
-65.55
-63.20
-54.18
-39.03
-19.68
1.11
20.54
36.50
47.95
54.82
57.74
57.52
54.99
50.86
45.81
40.50
35.56
31.50
28.61
26.95
26.34
26.48
27.04
27.73
28.29
28.49
28.02
26.55
23.71
19.33
13.49
6.60
-0.64
-7.56
-13.69
-19.05
-24.10
-29.61
-36.26
-44.21
-52.72
-60.18
-64.43
-63.47
-56.20
-42.92
-25.33
-5.96
12.54
28.14
39.80
47.32
51.02
51.31
48.62
43.46
36.64
29.24
22.45
17.29
14.26
13.26
13.76
15.05
16.56
17.93
18.92
19.29
18.71
16.85
13.51
8.79
3.21
-2.57
-7.89
-12.40
-16.14
-19.54
-23.27
-28.02
-34.33
-42.20
-50.93
-58.97
-64.17
-64.45
-58.49
-46.34
-29.54
-10.66
7.53
22.90
34.36
41.82
45.67
46.41
44.42
40.02
33.73
26.37
19.02
12.76
8.39
6.24
6.20
7.76
10.22
12.88
15.09
16.37
16.37
14.95
12.10
8.02
3.06
-2.36
-7.84
-13.15
-18.33
-23.71
-29.77
-36.93
-45.27
-54.25
-62.63
-68.57
-70.09
-65.73
-55.08
-39.15
-20.11
-0.71
16.57
30.08
39.29
44.48
46.26
45.24
41.81
36.34
29.38
21.77
14.53
8.66
4.81
3.17
3.47
5.15
7.50
9.79
11.36
11.70
10.53
7.84
3.84
-0.99
-6.20
-11.40
-16.45
-21.44
-26.75
-32.86
-40.25
-49.10
-58.95
-68.51
-75.73
-78.31
-74.42
-63.50
-46.56
-25.98
-4.74
14.46
29.88
40.89
47.65
50.74
50.73
48.11
43.38
37.20
30.42
24.01
18.90
15.70
14.60
15.24
16.86
18.42
18.91
17.63
14.37
9.36
3.19
-3.47
-10.08
-16.31
-22.09
-27.49
-32.78
-38.38
-44.81
-52.63
-61.96
-72.17
-81.63
-87.95
-88.67
-82.22
-68.62
-49.59
-28.04
-7.10
10.81
24.51
33.95
39.68
42.35
42.39
40.08
35.80
30.16
24.06
18.47
14.17
11.62
10.85
11.56
13.20
15.07
16.42
16.62
15.24
12.21
7.79
2.49
-3.18
-8.82
-14.31
-19.74
-25.46
-31.99
-39.96
-49.75
-61.16
-72.99
-82.99
-88.34
-86.57
-76.60
-59.28
-37.23
-13.90
7.46
24.73
37.12
44.80
48.42
48.67
46.17
41.57
35.67
29.38
23.56
18.81
15.51
13.72
13.35
14.15
15.71
17.41
18.54
18.45
16.74
13.39
8.71
3.17
-2.82
-9.08
-15.63
-22.62
-30.30
-38.94
-48.86
-60.13
-72.25
-83.75
-92.26
-94.99
-89.78
-76.01
-55.03
-29.92
-4.42
18.25
36.09
48.52
55.96
59.30
59.43
57.16
53.31
48.70
44.18
40.39
37.70
36.14
35.46
35.33
35.42
35.54
35.61
35.57
35.18
33.97
31.32
26.72
20.00
11.58
2.30
-6.86
-15.17
-22.46
-29.13
-36.07
-44.28
-54.39
-66.27
-78.71
-89.39
-95.42
-94.19
-84.34
-66.42
-42.83
-17.10
7.22
27.56
42.72
52.74
58.39
60.58
60.12
57.77
54.25
50.39
46.91
44.27
42.57
41.58
40.90
40.24
39.49
38.71
37.97
37.11
35.70
33.15
28.97
22.99
15.51
7.18
-1.25
-9.19
-16.41
-23.09
-29.71
-36.94
-45.45
-55.58
-66.96
-78.24
-87.05
-90.55
-86.44
-73.86
-54.00
-29.83
-5.14
16.65
33.49
44.89
51.62
54.90
55.84
55.18
53.43
51.02
48.42
46.04
44.10
42.60
41.33
40.07
38.73
37.42
36.30
35.42
34.53
33.07
30.34
25.74
19.13
10.89
1.86
-6.93
-14.70
-21.16
-26.66
-32.03
-38.37
-46.59
-56.98
-68.85
-80.36
-88.88
-91.59
-86.50
-73.21
-53.20
-29.46
-5.51
15.62
32.15
43.62
50.51
53.71
54.06
52.30
49.17
45.53
42.28
40.10
39.25
39.43
40.01
40.33
40.00
39.01
37.56
35.85
33.85
31.27
27.73
22.93
16.89
9.96
2.67
-4.41
-10.99
-17.02
-22.79
-28.82
-35.78
-44.20
-54.19
-65.08
-75.25
-82.35
-83.99
-78.53
-65.83
-47.43
-26.09
-4.91
13.64
28.20
38.60
45.39
49.32
51.02
50.90
49.43
47.13
44.60
42.38
40.74
39.66
38.85
38.03
37.07
36.01
34.96
33.92
32.65
30.65
27.40
22.54
16.15
8.70
0.90
-6.58
-13.34
-19.40
-25.21
-31.51
-39.12
-48.48
-59.31
-70.36
-79.45
-84.00
-81.85
-72.11
-55.57
-34.61
-12.43
7.93
24.39
36.14
43.41
46.98
47.72
46.37
43.57
39.89
36.02
32.55
29.91
28.24
27.36
26.95
26.68
26.37
25.96
25.39
24.45
22.78
19.97
15.70
9.99
3.17
-4.14
-11.33
-17.94
-23.83
-29.26
-34.85
-41.37
-49.45
-59.16
-69.63
-78.99
-84.71
-84.42
-76.80
-62.18
-42.54
-20.86
-0.12
17.50
30.99
40.28
45.83
48.24
48.05
45.84
42.30
38.26
34.52
31.65
29.86
29.03
28.79
28.75
28.64
28.37
27.98
27.53
26.88
25.66
23.36
19.46
13.82
6.73
-1.06
-8.63
-15.30
-20.85
-25.62
-30.35
-35.92
-43.02
-51.85
-61.78
-71.28
-78.13
-79.97
-75.12
-63.28
-45.83
-25.40
-5.05
12.76
26.66
36.47
42.73
46.13
47.21
46.29
43.76
40.20
36.42
33.22
31.17
30.37
30.47
30.84
30.93
30.43
29.45
28.33
27.42
26.76
25.94
24.28
21.06
15.93
9.08
1.18
-6.82
-14.08
-20.09
-24.85
-28.79
-32.65
-37.25
-43.28
-51.07
-60.23
-69.52
-76.87
-79.85
-76.49
-66.04
-49.43
-29.01
-7.89
11.13
26.28
37.09
44.00
47.81
49.10
48.18
45.30
40.93
36.04
31.79
29.19
28.66
29.85
31.80
33.40
33.93
33.26
31.92
30.66
29.99
29.88
29.69
28.45
25.27
19.82
12.39
3.87
-4.69
-12.34
-18.58
-23.43
-27.25
-30.64
-34.22
-38.57
-44.19
-51.24
-59.32
-67.22
-72.99
-74.46
-69.92
-58.89
-42.39
-22.66
-2.49
15.66
30.21
40.52
46.71
49.18
48.47
45.14
39.94
33.86
28.02
23.46
20.79
20.07
20.84
22.33
23.79
24.76
25.14
25.03
24.54
23.56
21.75
18.70
14.18
8.33
1.68
-5.06
-11.24
-16.55
-21.08
-25.28
-29.75
-35.09
-41.72
-49.57
-57.95
-65.47
-70.28
-70.56
-65.12
-53.93
-38.22
-20.09
-1.94
14.24
27.21
36.55
42.34
44.87
44.47
41.52
36.60
30.55
24.37
19.00
15.04
12.67
11.64
11.55
12.04
12.93
14.16
15.58
16.79
17.17
16.05
13.04
8.21
2.07
-4.65
-11.24
-17.30
-22.83
-28.15
-33.78
-40.27
-47.96
-56.83
-66.21
-74.70
-80.32
-81.07
-75.49
-63.37
-45.88
-25.34
-4.46
14.37
29.59
40.55
47.25
50.00
49.27
45.61
39.84
32.97
26.10
20.17
15.73
12.94
11.60
11.35
11.85
12.82
14.02
15.16
15.87
15.69
14.22
11.22
6.71
1.01
-5.36
-11.87
-18.13
-24.08
-30.04
-36.60
-44.48
-54.11
-65.27
-76.86
-86.87
-92.77
-92.29
-84.17
-68.72
-47.82
-24.35
-1.36
18.74
34.62
45.88
52.76
55.71
55.24
51.90
46.46
39.91
33.32
27.58
23.23
20.42
18.95
18.57
18.96
19.88
21.03
21.96
22.12
20.89
17.84
12.86
6.27
-1.29
-9.06
-16.46
-23.24
-29.65
-36.32
-44.14
-53.79
-65.32
-77.73
-88.89
-95.98
-96.27
-88.12
-71.69
-49.01
-23.39
1.64
23.24
39.80
50.96
57.15
59.17
57.88
54.15
48.88
42.96
37.22
32.23
28.31
25.48
23.62
22.56
22.19
22.39
23.01
23.70
23.99
23.25
20.96
16.85
11.04
4.01
-3.58
-11.11
-18.24
-25.03
-31.95
-39.75
-49.14
-60.42
-73.02
-85.26
-94.57
-98.05
-93.46
-80.08
-59.12
-33.43
-6.69
17.68
37.35
51.33
59.76
63.43
63.31
60.28
55.14
48.72
41.92
35.66
30.65
27.29
25.55
25.12
25.52
26.35
27.26
27.95
28.02
26.95
24.30
19.83
13.68
6.41
-1.26
-8.73
-15.76
-22.53
-29.62
-37.74
-47.48
-58.92
-71.29
-82.82
-90.94
-92.91
-86.77
-72.15
-50.55
-25.01
0.79
23.64
41.49
53.61
60.37
62.70
61.71
58.50
54.05
49.22
44.66
40.77
37.70
35.43
33.87
32.89
32.37
32.13
31.92
31.39
30.19
27.94
24.39
19.41
13.08
5.78
-2.00
-9.68
-16.91
-23.69
-30.45
-37.97
-46.95
-57.64
-69.30
-80.15
-87.63
-89.13
-82.90
-68.76
-48.24
-24.24
-0.13
21.20
37.90
49.34
55.86
58.27
57.51
54.45
49.92
44.72
39.61
35.25
32.00
29.97
28.94
28.61
28.63
28.71
28.63
28.18
27.06
24.96
21.59
16.84
10.82
3.87
-3.56
-11.01
-18.21
-25.18
-32.31
-40.21
-49.53
-60.35
-71.84
-82.09
-88.42
-88.26
-80.08
-64.09
-42.30
-17.94
5.55
25.47
40.39
50.09
55.20
56.61
55.21
51.72
46.81
41.18
35.53
30.54
26.72
24.31
23.27
23.31
23.94
24.60
24.76
24.02
22.18
19.22
15.27
10.55
5.26
-0.49
-6.63
-13.17
-20.19
-27.89
-36.58
-46.55
-57.69
-69.01
-78.51
-83.54
-81.61
-71.47
-53.79
-31.11
-7.05
14.92
32.43
44.66
52.00
55.43
55.94
54.20
50.69
45.86
40.33
34.85
30.18
26.88
25.16
24.85
25.42
26.14
26.28
25.30
22.97
19.39
14.92
10.00
4.96
-0.05
-5.13
-10.54
-16.59
-23.64
-32.06
-42.04
-53.29
-64.76
-74.46
-79.84
-78.54
-69.31
-52.69
-30.94
-7.40
14.57
32.58
45.51
53.45
57.14
57.52
55.45
51.70
46.98
42.00
37.35
33.43
30.44
28.36
27.07
26.43
26.27
26.39
26.39
25.80
24.12
21.04
16.52
10.86
4.52
-2.03
-8.43
-14.58
-20.58
-26.75
-33.65
-41.79
-51.31
-61.54
-70.78
-76.51
-76.26
-68.53
-53.55
-33.28
-10.87
10.50
28.49
41.97
50.88
55.68
57.02
55.53
51.88
46.93
41.64
36.84
33.10
30.52
28.89
27.85
27.11
26.59
26.30
26.22
26.16
25.66
24.14
21.05
16.19
9.76
2.35
-5.28
-12.46
-18.86
-24.59
-30.14
-36.26
-43.64
-52.64
-62.88
-72.99
-80.82
-83.84
-80.03
-68.65
-50.64
-28.50
-5.46
15.48
32.32
44.27
51.52
54.73
54.64
51.96
47.45
42.04
36.72
32.41
29.56
28.13
27.58
27.24
26.62
25.62
24.45
23.42
22.63
21.81
20.38
17.71
13.41
7.51
0.50
-6.84
-13.73
-19.69
-24.66
-29.07
-33.71
-39.48
-47.08
-56.55
-66.99
-76.50
-82.52
-82.68
-75.58
-61.48
-42.28
-20.89
-0.34
17.15
30.49
39.62
45.00
47.20
46.70
43.97
39.66
34.64
29.88
26.13
23.77
22.68
22.44
22.58
22.83
23.11
23.49
23.92
24.04
23.26
20.94
16.69
10.65
3.43
-4.10
-11.20
-17.53
-23.21
-28.70
-34.58
-41.39
-49.41
-58.57
-68.19
-76.84
-82.51
-83.05
-76.96
-64.09
-45.86
-24.94
-4.35
13.39
26.89
35.88
40.89
42.72
42.10
39.63
35.85
31.34
26.73
22.58
19.28
16.97
15.59
14.95
14.86
15.14
15.67
16.25
16.47
15.86
13.84
10.10
4.72
-1.79
-8.64
-15.11
-20.73
-25.56
-30.10
-35.12
-41.43
-49.52
-59.17
-69.23
-77.67
-82.02
-80.18
-71.16
-55.60
-35.68
-14.33
5.58
22.08
34.25
42.08
45.97
46.48
44.18
39.78
34.25
28.65
23.98
20.79
19.16
18.67
18.72
18.83
18.85
18.93
19.30
19.98
20.61
20.50
18.87
15.19
9.49
2.31
-5.45
-12.98
-19.74
-25.64
-30.96
-36.27
-42.26
-49.58
-58.49
-68.49
-78.09
-85.03
-86.85
-81.83
-69.69
-51.84
-30.84
-9.57
9.63
25.40
37.31
45.48
50.17
51.66
50.33
46.80
41.98
36.87
32.34
28.93
26.75
25.64
25.26
25.34
25.71
26.25
26.82
27.08
26.59
24.82
21.45
16.44
10.16
3.22
-3.70
-10.08
-15.72
-20.74
-25.61
-31.03
-37.74
-46.24
-56.37
-67.01
-76.08
-80.97
-79.41
-70.29
-54.23
-33.42
-10.97
10.09
27.65
40.78
49.54
54.49
56.26
55.33
52.20
47.52
42.14
36.99
32.77
29.76
27.85
26.69
25.91
25.27
24.69
24.14
23.55
22.72
21.33
18.99
15.38
10.39
4.19
-2.74
-9.78
-16.41
-22.52
-28.55
-35.30
-43.59
-53.55
-64.28
-73.73
-79.23
-78.37
-69.93
-54.36
-33.70
-10.93
10.95
29.69
44.04
53.73
59.03
60.47
58.64
54.26
48.23
41.60
35.38
30.32
26.68
24.36
23.01
22.28
21.96
21.97
22.17
22.28
21.81
20.21
17.11
12.48
6.64
0.12
-6.56
-13.01
-19.15
-25.16
-31.49
-38.73
-47.42
-57.63
-68.57
-78.50
-84.95
-85.45
-78.42
-63.82
-43.28
-19.62
3.95
24.79
41.20
52.59
59.15
61.44
60.17
56.08
50.05
43.04
36.13
30.18
25.70
22.76
21.04
20.16
19.81
19.91
20.41
21.16
21.70
21.30
19.30
15.31
9.49
2.45
-5.03
-12.28
-18.93
-25.05
-31.00
-37.34
-44.74
-53.73
-64.40
-75.99
-86.68
-93.87
-94.89
-87.98
-73.09
-52.00
-27.81
-3.85
17.20
33.89
45.86
53.45
57.12
57.31
54.55
49.55
43.35
37.12
31.87
28.20
26.18
25.47
25.57
26.03
26.61
27.18
27.64
27.71
26.89
24.59
20.28
13.78
5.38
-4.16
-13.86
-22.82
-30.55
-37.20
-43.49
-50.54
-59.40
-70.52
-83.24
-95.63
-104.80
-107.71
-102.20
-87.78
-65.92
-39.59
-12.31
12.78
33.60
49.21
59.48
64.75
65.48
62.34
56.25
48.47
40.42
33.34
27.96
24.46
22.49
21.52
21.08
20.96
21.11
21.48
21.85
21.66
20.19
16.85
11.40
4.16
-4.07
-12.37
-20.00
-26.70
-32.86
-39.31
-47.16
-57.19
-69.46
-82.90
-95.24
-103.46
-104.62
-96.85
-80.04
-56.04
-28.13
-0.04
24.95
44.75
58.51
66.39
69.10
67.62
62.98
56.32
48.75
41.38
35.04
30.24
27.10
25.39
24.73
24.79
25.31
26.15
27.08
27.68
27.29
25.22
20.98
14.54
6.45
-2.44
-11.20
-19.26
-26.59
-33.69
-41.41
-50.69
-62.13
-75.61
-89.91
-102.64
-110.74
-111.20
-102.25
-83.99
-58.69
-30.01
-1.96
22.34
41.20
54.36
62.48
66.36
66.68
63.95
58.75
51.89
44.44
37.47
31.74
27.61
25.00
23.63
23.18
23.42
24.06
24.72
24.85
23.77
20.97
16.19
9.62
1.82
-6.47
-14.53
-21.95
-28.76
-35.53
-43.24
-52.77
-64.34
-76.89
-88.06
-94.66
-93.74
-83.79
-65.32
-40.83
-13.90
11.96
34.15
51.36
63.33
70.35
72.90
71.56
67.02
60.25
52.41
44.69
38.08
33.21
30.30
29.23
29.64
31.03
32.78
34.16
34.40
32.85
29.12
23.29
15.85
7.58
-0.74
-8.60
-15.92
-23.10
-30.89
-40.12
-51.34
-64.27
-77.46
-88.29
-93.55
-90.46
-77.77
-56.38
-29.23
-0.35
26.33
48.03
63.53
72.89
77.00
76.93
73.66
68.09
61.08
53.48
46.15
39.87
35.24
32.58
31.84
32.59
34.06
35.31
35.48
34.01
30.74
25.92
20.01
13.47
6.67
-0.23
-7.22
-14.46
-22.27
-31.15
-41.57
-53.67
-66.74
-78.87
-87.22
-88.71
-81.11
-64.10
-39.61
-11.30
16.59
40.48
58.32
69.64
75.08
75.74
72.71
67.02
59.73
52.03
45.05
39.61
36.01
34.07
33.29
33.21
33.49
33.99
34.51
34.69
33.94
31.61
27.25
20.83
12.81
3.98
-4.79
-12.92
-20.21
-27.00
-34.05
-42.33
-52.55
-64.75
-77.83
-89.46
-96.55
-96.09
-86.31
-67.40
-41.70
-12.97
14.71
38.10
55.37
66.18
71.16
71.42
68.09
62.27
55.04
47.50
40.61
35.12
31.36
29.28
28.51
28.54
28.93
29.37
29.69
29.70
29.11
27.43
24.13
18.85
11.68
3.13
-5.90
-14.49
-22.03
-28.49
-34.41
-40.85
-48.91
-59.27
-71.59
-84.28
-94.57
-99.23
-95.64
-82.74
-61.58
-35.05
-7.01
18.89
40.07
55.36
64.73
68.82
68.50
64.64
58.19
50.32
42.28
35.25
30.04
26.85
25.36
24.89
24.78
24.65
24.45
24.29
24.14
23.68
22.21
19.03
13.74
6.45
-2.13
-10.99
-19.27
-26.55
-33.02
-39.42
-46.73
-55.79
-66.81
-78.93
-90.19
-97.82
-98.97
-91.69
-75.76
-52.92
-26.40
-0.01
23.00
40.62
52.26
58.41
60.05
58.25
53.98
48.09
41.41
34.78
28.92
24.34
21.24
19.52
18.82
18.70
18.73
18.63
18.19
17.16
15.28
12.24
7.86
2.20
-4.38
-11.33
-18.12
-24.38
-30.18
-35.97
-42.48
-50.47
-60.25
-71.24
-81.78
-89.29
-90.98
-84.85
-70.51
-49.51
-24.93
-0.43
20.91
37.25
48.14
54.09
55.97
54.64
50.78
45.07
38.30
31.36
25.17
20.43
17.46
16.18
16.20
17.02
18.10
19.06
19.60
19.45
18.31
15.89
11.94
6.44
-0.31
-7.72
-15.08
-21.84
-27.89
-33.65
-39.98
-47.81
-57.58
-68.68
-79.31
-86.70
-88.06
-81.48
-66.82
-45.86
-21.75
1.98
22.42
37.98
48.29
53.87
55.56
54.19
50.53
45.33
39.42
33.59
28.47
24.46
21.69
20.10
19.53
19.77
20.54
21.44
21.99
21.71
20.22
17.35
13.14
7.85
1.81
-4.63
-11.23
-17.95
-24.91
-32.48
-41.12
-51.05
-61.82
-72.05
-79.52
-81.64
-76.46
-63.38
-43.70
-20.14
3.88
25.30
42.18
53.86
60.65
63.37
62.83
59.81
55.02
49.23
43.27
37.88
33.56
30.52
28.64
27.69
27.35
27.32
27.33
27.00
25.93
23.69
19.97
14.73
8.24
1.01
-6.37
-13.43
-19.96
-26.10
-32.36
-39.46
-48.06
-58.32
-69.46
-79.65
-86.26
-86.68
-79.27
-64.09
-43.02
-19.18
4.06
24.03
39.27
49.47
55.06
56.83
55.50
51.83
46.59
40.65
34.89
30.04
26.49
24.27
23.11
22.59
22.41
22.38
22.45
22.58
22.57
21.98
20.22
16.79
11.47
4.53
-3.41
-11.57
-19.31
-26.38
-32.97
-39.69
-47.24
-56.16
-66.49
-77.36
-86.99
-92.91
-92.67
-84.71
-69.09
-47.63
-23.39
0.25
20.54
36.01
46.37
52.12
54.00
52.73
49.00
43.61
37.57
31.92
27.52
24.73
23.48
23.26
23.48
23.72
23.78
23.66
23.42
22.89
21.69
19.30
15.31
9.65
2.70
-4.83
-12.21
-18.90
-24.87
-30.53
-36.60
-43.90
-52.90
-63.45
-74.50
-84.08
-89.71
-89.02
-80.68
-64.92
-43.64
-19.86
3.12
22.70
37.42
47.01
52.02
53.33
51.77
48.11
43.07
37.37
31.79
26.95
23.31
20.99
19.86
19.61
19.92
20.50
21.12
21.54
21.42
20.28
17.68
13.31
7.21
-0.19
-8.19
-16.08
-23.34
-29.95
-36.31
-43.20
-51.35
-61.10
-71.88
-82.06
-89.19
-90.64
-84.52
-70.51
-50.11
-26.26
-2.42
18.45
34.59
45.53
51.75
54.13
53.53
50.70
46.29
41.05
35.74
31.04
27.38
24.89
23.43
22.72
22.56
22.86
23.58
24.55
25.41
25.54
24.22
20.92
15.57
8.56
0.73
-7.04
-14.16
-20.54
-26.69
-33.41
-41.57
-51.63
-63.25
-75.11
-84.98
-90.24
-88.62
-79.02
-62.03
-39.85
-15.61
7.48
27.03
41.77
51.49
56.64
57.93
56.11
51.97
46.35
40.19
34.41
29.71
26.50
24.81
24.38
24.81
25.69
26.69
27.53
27.94
27.56
25.98
22.79
17.85
11.36
3.85
-3.95
-11.40
-18.19
-24.41
-30.54
-37.31
-45.43
-55.22
-66.18
-76.82
-84.80
-87.56
-83.14
-71.03
-52.46
-30.05
-6.98
13.91
30.80
42.95
50.49
54.01
54.22
51.89
47.83
42.85
37.75
33.18
29.54
26.99
25.43
24.68
24.49
24.66
25.01
25.34
25.36
24.70
22.92
19.63
14.67
8.25
0.86
-6.77
-14.05
-20.66
-26.79
-33.05
-40.28
-49.12
-59.48
-70.26
-79.34
-84.08
-82.19
-72.54
-55.69
-33.78
-9.91
12.78
31.89
46.14
55.27
59.75
60.30
57.73
52.89
46.69
40.05
33.86
28.76
25.12
22.96
22.09
22.19
22.92
23.96
24.95
25.49
25.09
23.27
19.70
14.37
7.60
-0.00
-7.73
-15.04
-21.69
-27.86
-34.14
-41.32
-50.07
-60.49
-71.71
-81.79
-88.08
-87.99
-79.94
-64.06
-42.28
-17.76
6.09
26.53
42.03
52.30
57.82
59.37
57.72
53.60
47.77
41.13
34.65
29.20
25.26
22.90
21.81
21.54
21.74
22.18
22.77
23.27
23.23
22.01
19.03
14.05
7.34
-0.43
-8.44
-16.04
-22.98
-29.42
-35.87
-43.01
-51.44
-61.39
-72.32
-82.70
-90.13
-91.93
-86.13
-72.21
-51.49
-26.85
-1.82
20.48
38.04
50.18
57.20
59.91
59.18
55.81
50.59
44.39
38.17
32.80
28.89
26.58
25.58
25.36
25.36
25.28
25.07
24.79
24.34
23.37
21.33
17.64
12.08
4.92
-3.11
-11.12
-18.34
-24.51
-29.88
-35.22
-41.47
-49.46
-59.36
-70.38
-80.67
-87.64
-88.69
-82.08
-67.56
-46.70
-22.36
2.12
23.86
41.01
52.91
59.76
62.24
61.11
57.19
51.34
44.51
37.70
31.78
27.25
24.18
22.22
20.86
19.67
18.37
16.91
15.25
13.23
10.49
6.61
1.34
-5.29
-12.83
-20.58
-27.86
-34.27
-39.82
-44.99
-50.55
-57.32
-65.73
-75.37
-84.81
-91.66
-93.27
-87.64
-74.20
-54.25
-30.53
-6.44
15.08
32.17
44.25
51.59
54.84
54.63
51.57
46.39
40.09
33.80
28.53
24.85
22.83
22.09
22.12
22.53
23.09
23.64
23.92
23.52
21.96
18.87
14.23
8.34
1.73
-5.08
-11.74
-18.15
-24.48
-31.04
-38.30
-46.77
-56.71
-67.79
-78.75
-87.43
-91.21
-87.89
-76.49
-57.81
-34.33
-9.41
13.65
32.47
46.01
54.38
58.37
58.92
56.93
53.14
48.26
43.04
38.20
34.33
31.71
30.32
29.87
30.05
30.57
31.20
31.71
31.70
30.68
28.15
23.82
17.75
10.39
2.40
-5.53
-12.94
-19.70
-26.02
-32.43
-39.62
-48.19
-58.27
-69.12
-79.01
-85.42
-85.80
-78.44
-63.26
-41.94
-17.50
6.66
27.69
43.89
54.82
60.88
62.92
61.80
58.35
53.36
47.67
42.16
37.56
34.36
32.62
32.07
32.19
32.47
32.56
32.31
31.67
30.54
28.67
25.67
21.22
15.22
7.96
0.08
-7.72
-14.93
-21.44
-27.62
-34.23
-42.16
-51.93
-63.18
-74.46
-83.24
-86.64
-82.38
-69.75
-49.99
-26.04
-1.55
20.22
37.24
48.88
55.59
58.34
58.12
55.80
52.12
47.83
43.63
40.08
37.53
36.04
35.44
35.40
35.57
35.58
35.13
33.91
31.60
27.99
22.99
16.70
9.46
1.79
-5.77
-12.80
-19.21
-25.30
-31.73
-39.22
-48.24
-58.53
-68.84
-77.05
-80.62
-77.42
-66.53
-48.71
-26.29
-2.51
19.43
37.18
49.62
56.86
59.64
58.97
55.68
50.42
43.79
36.53
29.50
23.59
19.49
17.46
17.30
18.43
20.10
21.61
22.40
22.05
20.28
16.99
12.21
6.17
-0.74
-8.00
-15.17
-21.95
-28.42
-35.07
-42.61
-51.66
-62.10
-72.74
-81.31
-85.02
-81.52
-69.84
-50.92
-27.31
-2.49
20.29
38.71
51.71
59.26
62.06
60.99
57.01
51.09
44.19
37.26
31.16
26.46
23.44
22.03
21.85
22.37
23.03
23.31
22.82
21.35
18.81
15.25
10.70
5.23
-1.02
-7.87
-15.05
-22.30
-29.54
-37.04
-45.35
-54.97
-65.91
-77.10
-86.35
-90.85
-88.07
-76.85
-58.00
-34.15
-8.89
14.28
32.95
46.14
54.06
57.61
57.75
55.27
50.84
45.12
38.91
33.05
28.23
24.80
22.72
21.66
21.18
20.96
20.80
20.51
19.81
18.34
15.72
11.73
6.52
0.45
-5.97
-12.38
-18.64
-24.98
-31.81
-39.70
-49.11
-59.99
-71.46
-81.63
-87.89
-87.66
-79.38
-63.20
-41.22
-16.76
6.59
26.09
40.31
49.14
53.32
53.90
51.92
48.26
43.69
38.93
34.54
30.94
28.35
26.80
26.19
26.34
26.97
27.73
28.24
28.06
26.80
24.12
19.87
14.07
6.97
-0.97
-9.22
-17.25
-24.73
-31.64
-38.39
-45.70
-54.28
-64.33
-75.00
-84.30
-89.47
-87.97
-78.44
-61.49
-39.53
-16.08
5.45
22.71
34.77
42.00
45.33
45.79
44.20
41.14
37.19
32.99
29.14
26.10
24.08
23.00
22.61
22.60
22.70
22.71
22.43
21.59
19.86
16.96
12.72
7.22
0.78
-6.12
-13.06
-19.74
-26.14
-32.46
-39.24
-46.99
-56.04
-66.03
-75.66
-82.78
-84.92
-80.15
-67.89
-49.32
-27.07
-4.36
15.90
31.90
43.00
49.52
52.18
51.77
48.99
44.56
39.29
34.01
29.49
26.16
24.11
23.03
22.45
21.96
21.37
20.67
19.90
18.95
17.47
14.92
10.82
5.06
-2.03
-9.78
-17.42
-24.45
-30.70
-36.45
-42.28
-48.87
-56.72
-65.78
-75.22
-83.25
-87.49
-85.64
-76.40
-60.06
-38.66
-15.33
6.72
25.10
38.68
47.46
52.13
53.50
52.31
49.22
44.94
40.33
36.21
33.23
31.60
31.09
31.13
31.16
30.84
