1625647786.00
64.000000
-0.00
-0.00
-0.00
-0.00
-0.00
-0.00
-0.00
-0.00
-0.00
-0.00
0.00
0.01
0.01
-0.00
-0.03
-0.05
-0.05
0.00
0.13
0.36
0.66
1.01
1.37
1.72
2.06
2.40
2.79
3.24
3.80
4.42
5.06
5.66
6.20
6.68
7.15
7.68
8.31
9.14
10.09
11.04
11.88
12.56
13.14
13.76
14.65
15.96
17.91
20.32
22.90
25.38
27.58
29.57
31.68
34.32
37.81
42.54
48.15
54.10
59.83
64.97
69.58
74.14
79.34
85.71
93.76
103.00
112.62
121.73
129.77
136.75
143.30
150.75
157.77
166.64
177.95
191.79
206.97
220.57
228.25
225.36
208.53
176.87
132.76
80.05
23.07
-34.95
-92.44
-149.16
-205.22
-260.35
-313.71
-363.84
-409.83
-450.96
-486.65
-516.00
-537.59
-549.64
-550.41
-538.80
-514.63
-479.11
-434.36
-383.02
-327.70
-270.61
-213.44
-157.46
-103.71
-53.11
-6.69
34.65
70.27
99.94
123.87
142.65
156.99
167.53
174.78
179.00
180.41
179.27
175.99
171.11
165.20
158.70
151.83
144.58
136.81
128.42
119.51
110.39
101.51
93.25
85.77
78.90
72.24
65.30
57.84
49.94
42.03
34.69
28.35
23.16
18.88
15.02
11.09
6.70
1.54
-4.51
-11.26
-17.95
-23.07
-24.67
-21.08
-11.76
2.07
17.70
31.84
41.91
46.86
47.33
44.93
41.33
37.55
33.89
30.31
26.77
23.59
21.14
19.61
18.80
18.19
17.07
14.92
11.76
8.31
5.70
4.99
6.54
9.78
13.35
15.82
16.36
15.15
13.14
11.48
10.80
10.99
11.38
11.26
10.31
8.70
6.87
5.16
3.63
2.10
0.40
-1.43
-3.19
-4.52
-5.12
-4.95
-4.17
-3.13
-2.18
-1.57
-1.35
-1.40
-1.53
-1.59
-1.55
-1.50
-1.62
-2.01
-2.66
-3.39
-3.93
-4.01
-3.52
-2.51
-1.22
0.09
1.17
1.93
2.45
2.96
3.68
4.79
6.26
7.88
9.36
10.34
10.54
9.83
8.21
5.91
3.29
0.89
-0.88
-1.75
-1.70
-1.01
-0.14
0.44
0.43
-0.20
-1.31
-2.65
-4.00
-5.27
-6.42
-7.43
-8.31
-8.99
-9.42
-9.57
-9.44
-9.06
-8.52
-7.89
-7.26
-6.71
-6.22
-5.75
-5.31
-4.93
-4.69
-4.66
-4.88
-5.28
-5.74
-6.08
-6.22
-6.18
-6.04
-5.93
-5.90
-5.97
-6.12
-6.32
-6.53
-6.76
-6.98
-7.17
-7.27
-7.23
-7.07
-6.87
-6.79
-7.04
-7.80
-9.07
-10.68
-12.25
-13.23
-13.13
-11.60
-8.60
-4.37
0.67
6.04
11.16
15.54
18.90
21.25
22.74
23.59
23.97
23.96
23.62
23.02
22.26
21.45
20.61
19.68
18.54
17.20
15.81
14.66
14.00
13.98
14.47
15.13
15.54
15.38
14.52
13.10
11.33
9.42
7.52
5.68
3.89
2.13
0.37
-1.44
-3.36
-5.48
-7.81
-10.31
-12.85
-15.26
-17.37
-19.11
-20.44
-21.44
-22.26
-23.14
-24.36
-26.19
-28.76
-31.95
-35.37
-38.40
-40.35
-40.60
-38.79
-34.93
-29.35
-22.61
-15.39
-8.32
-1.88
3.64
8.19
11.83
14.72
17.07
18.98
20.56
21.81
22.72
23.31
23.62
23.72
23.68
23.54
23.32
23.06
22.80
22.59
22.42
22.23
21.87
21.20
20.12
18.64
16.87
14.98
13.11
11.34
9.64
7.93
6.16
4.33
2.51
0.75
-0.93
-2.60
-4.39
-6.41
-8.71
-11.22
-13.79
-16.21
-18.32
-20.04
-21.43
-22.66
-24.02
-25.79
-28.21
-31.34
-34.94
-38.52
-41.39
-42.82
-42.30
-39.65
-35.09
-29.18
-22.62
-16.08
-10.07
-4.83
-0.39
3.37
6.57
9.30
11.57
13.33
14.55
15.28
15.69
15.96
16.25
16.61
16.99
17.30
17.52
17.72
18.01
18.49
19.07
19.57
19.75
19.43
18.63
17.52
16.36
15.32
14.45
13.62
12.67
11.51
10.16
8.75
7.41
6.19
4.96
3.58
1.88
-0.20
-2.54
-4.99
-7.38
-9.55
-11.47
-13.13
-14.59
-15.97
-17.48
-19.38
-21.90
-25.11
-28.82
-32.53
-35.53
-37.12
-36.79
-34.40
-30.18
-24.68
-18.55
-12.39
-6.60
-1.38
3.20
7.14
10.41
12.94
14.66
15.57
15.82
15.62
15.31
15.16
15.32
15.80
16.46
17.13
17.72
18.24
18.76
19.34
19.96
20.51
20.79
20.62
19.91
18.67
17.02
15.14
13.17
11.23
9.36
7.55
5.75
3.94
2.10
0.23
-1.66
-3.57
-5.49
-7.41
-9.26
-10.97
-12.48
-13.82
-15.07
-16.40
-18.03
-20.14
-22.85
-26.15
-29.88
-33.64
-36.89
-38.98
-39.34
-37.66
-34.00
-28.80
-22.73
-16.48
-10.57
-5.26
-0.57
3.56
7.22
10.39
12.99
14.93
16.17
16.82
17.04
17.03
16.94
16.85
16.79
16.75
16.78
16.95
17.37
18.03
18.88
19.73
20.37
20.63
20.40
19.69
18.58
17.17
15.57
13.86
12.07
10.23
8.40
6.68
5.17
3.94
2.96
2.09
1.15
-0.03
-1.54
-3.35
-5.37
-7.51
-9.70
-11.89
-14.04
-16.11
-18.04
-19.91
-21.86
-24.13
-26.87
-30.05
-33.33
-36.10
-37.66
-37.41
-35.10
-30.90
-25.35
-19.18
-13.05
-7.44
-2.51
1.77
5.51
8.81
11.68
14.08
15.99
17.44
18.50
19.25
19.73
19.95
19.94
19.76
19.53
19.39
19.46
19.75
20.20
20.70
21.10
21.30
21.22
20.77
19.97
18.83
17.47
16.00
14.54
13.10
11.65
10.09
8.34
6.41
4.38
2.37
0.52
-1.08
-2.45
-3.68
-4.94
-6.45
-8.32
-10.58
-13.10
-15.63
-17.94
-19.87
-21.46
-22.93
-24.63
-26.90
-29.89
-33.52
-37.40
-40.92
-43.37
-44.11
-42.77
-39.36
-34.27
-28.13
-21.64
-15.32
-9.43
-4.03
0.99
5.69
10.01
13.84
17.01
19.43
21.09
22.07
22.44
22.30
21.77
20.98
20.17
19.59
19.44
19.82
20.69
21.84
23.02
23.92
24.32
24.11
23.28
21.97
20.37
18.68
17.06
15.54
14.07
12.53
10.89
9.17
7.54
6.12
4.97
3.96
2.86
1.46
-0.33
-2.41
-4.56
-6.56
-8.33
-9.96
-11.62
-13.47
-15.61
-18.04
-20.77
-23.79
-27.09
-30.51
-33.69
-36.08
-37.10
-36.28
-33.46
-28.86
-22.97
-16.41
-9.78
-3.51
2.11
6.95
10.97
14.20
16.70
18.50
19.68
20.26
20.28
19.82
19.01
18.03
17.11
16.49
16.31
16.61
17.22
17.89
18.34
18.39
18.01
17.33
16.54
15.78
15.05
14.21
13.08
11.55
9.61
7.36
4.91
2.35
-0.25
-2.83
-5.27
-7.45
-9.27
-10.78
-12.16
-13.65
-15.42
-17.49
-19.69
-21.81
-23.65
-25.23
-26.77
-28.64
-31.20
-34.60
-38.66
-42.82
-46.28
-48.18
-47.94
-45.35
-40.66
-34.40
-27.21
-19.65
-12.11
-4.86
1.90
7.99
13.22
17.49
20.74
23.06
24.58
25.51
26.02
26.28
26.38
26.36
26.25
26.11
26.04
26.13
26.45
26.98
27.53
27.88
27.84
27.33
26.40
25.19
23.78
22.18
20.34
18.15
15.59
12.78
9.90
7.15
4.68
2.50
0.54
-1.35
-3.34
-5.55
-8.02
-10.74
-13.60
-16.43
-19.05
-21.38
-23.47
-25.55
-27.98
-31.06
-34.86
-39.04
-42.87
-45.43
-45.87
-43.75
-39.14
-32.59
-24.88
-16.80
-8.94
-1.69
4.78
10.38
15.08
18.86
21.76
23.88
25.35
26.32
26.93
27.27
27.40
27.33
27.10
26.73
26.29
25.87
25.58
25.44
25.38
25.29
25.03
24.55
23.84
22.94
21.88
20.63
19.10
17.21
14.97
12.48
9.95
7.55
5.42
3.53
1.78
-0.01
-2.04
-4.40
-7.12
-10.11
-13.21
-16.25
-19.06
-21.59
-23.89
-26.17
-28.70
-31.72
-35.26
-39.05
-42.51
-44.89
-45.46
-43.77
-39.79
-33.88
-26.70
-19.00
-11.44
-4.50
1.60
6.79
11.16
14.76
17.67
19.87
21.38
22.25
22.58
22.51
22.21
21.79
21.37
21.03
20.81
20.73
20.77
20.84
20.88
20.80
20.55
20.10
19.41
18.47
17.28
15.87
14.30
12.63
10.86
8.95
6.89
4.65
2.32
-0.01
-2.25
-4.36
-6.36
-8.27
-10.11
-11.89
-13.65
-15.47
-17.49
-19.89
-22.79
-26.15
-29.73
-33.07
-35.55
-36.60
-35.80
-33.10
-28.75
-23.23
-17.12
-10.89
-4.88
0.69
5.64
9.84
13.14
15.47
16.88
17.51
17.56
17.29
16.88
16.49
16.18
15.95
15.75
15.52
15.27
15.06
15.01
15.22
15.66
16.21
16.62
16.65
16.10
14.89
13.07
10.78
8.23
5.64
3.20
1.02
-0.88
-2.63
-4.40
-6.39
-8.69
-11.27
-13.96
-16.56
-18.87
-20.83
-22.55
-24.28
-26.35
-29.05
-32.48
-36.52
-40.68
-44.24
-46.38
-46.44
-44.07
-39.39
-32.90
-25.30
-17.36
-9.70
-2.74
3.29
8.34
12.48
15.80
18.42
20.40
21.78
22.57
22.80
22.57
22.04
21.39
20.79
20.33
20.06
19.95
19.94
19.99
20.08
20.16
20.12
19.82
19.09
17.82
16.06
13.97
11.83
9.84
8.08
6.50
4.91
3.14
1.07
-1.34
-4.03
-6.88
-9.76
-12.51
-14.97
-17.08
-18.85
-20.43
-22.04
-23.97
-26.48
-29.66
-33.40
-37.24
-40.46
-42.21
-41.78
-38.88
-33.72
-26.96
-19.50
-12.13
-5.37
0.55
5.65
10.01
13.71
16.78
19.25
21.16
22.54
23.44
23.90
23.97
23.67
23.06
22.19
21.23
20.36
19.79
19.66
19.99
20.61
21.24
21.57
21.38
20.60
19.26
17.48
15.36
13.04
10.66
8.38
6.32
4.52
2.87
1.16
-0.78
-3.07
-5.61
-8.18
-10.53
-12.52
-14.15
-15.62
-17.26
-19.40
-22.26
-25.85
-29.91
-34.00
-37.48
-39.72
-40.20
-38.62
-34.95
-29.49
-22.71
-15.26
-7.73
-0.62
5.74
11.20
15.68
19.21
21.81
23.54
24.51
24.92
24.98
24.91
24.83
24.73
24.56
24.26
23.84
23.38
22.96
22.60
22.23
21.73
20.97
19.87
18.44
16.74
14.86
12.88
10.86
8.86
6.90
4.97
3.00
0.91
-1.38
-3.88
-6.51
-9.16
-11.75
-14.23
-16.64
-19.00
-21.35
-23.72
-26.16
-28.78
-31.65
-34.78
-37.92
-40.58
-42.10
-41.87
-39.57
-35.27
-29.43
-22.74
-15.82
-9.12
-2.85
2.94
8.22
12.90
16.82
19.81
21.78
22.80
23.10
23.01
22.85
22.84
23.04
23.34
23.56
23.56
23.28
22.75
22.09
21.36
20.60
19.82
19.03
18.25
17.47
16.66
15.68
14.40
12.72
10.66
8.33
5.90
3.47
1.02
-1.55
-4.35
-7.37
-10.46
-13.36
-15.83
-17.80
-19.42
-21.04
-23.04
-25.72
-29.14
-33.11
-37.23
-40.95
-43.68
-44.88
-44.13
-41.21
-36.20
-29.54
-21.87
-13.95
-6.41
0.35
6.18
11.11
15.22
18.57
21.16
22.98
24.06
24.55
24.69
24.73
24.86
25.18
25.64
26.11
26.51
26.76
26.87
26.87
26.77
26.54
26.11
25.41
24.39
23.04
21.42
19.58
17.56
15.42
13.16
10.81
8.41
5.97
3.53
1.11
-1.28
-3.65
-5.99
-8.29
-10.48
-12.48
-14.23
-15.72
-17.04
-18.38
-19.97
-22.08
-24.84
-28.24
-31.97
-35.52
-38.19
-39.33
-38.47
-35.48
-30.63
-24.42
-17.51
-10.51
-3.87
2.15
7.45
11.97
15.69
18.58
20.59
21.78
22.25
22.18
21.79
21.27
20.76
20.35
20.08
19.97
19.97
20.03
20.02
19.90
19.63
19.23
18.72
18.07
17.22
16.07
14.62
12.91
11.03
9.05
7.03
4.95
2.81
0.64
-1.52
-3.63
-5.71
-7.78
-9.88
-11.98
-14.02
-15.99
-17.93
-20.00
-22.37
-25.18
-28.47
-32.09
-35.71
-38.81
-40.76
-41.02
-39.23
-35.38
-29.85
-23.23
-16.13
-9.02
-2.16
4.35
10.39
15.78
20.25
23.58
25.74
26.90
27.36
27.37
27.09
26.51
25.60
24.39
23.05
21.88
21.16
21.04
21.37
21.87
22.13
21.84
20.88
19.34
17.41
15.33
13.27
11.34
9.58
7.99
6.54
5.15
3.73
2.14
0.30
-1.79
-4.08
-6.45
-8.77
-10.95
-12.92
-14.67
-16.20
-17.59
-18.97
-20.52
-22.48
-25.00
-28.12
-31.70
-35.35
-38.51
-40.55
-40.94
-39.37
-35.90
-30.88
-24.85
-18.40
-12.01
-6.02
-0.63
4.05
7.97
11.11
13.48
15.20
16.41
17.29
17.90
18.29
18.41
18.29
18.00
17.66
17.45
17.43
17.60
17.85
18.04
18.05
17.81
17.31
16.57
15.61
14.42
12.98
11.29
9.38
7.30
5.16
3.11
1.28
-0.26
-1.55
-2.70
-3.90
-5.30
-6.97
-8.87
-10.89
-12.87
-14.66
-16.21
-17.52
-18.74
-20.11
-21.88
-24.30
-27.40
-30.95
-34.42
-37.07
-38.22
-37.42
-34.63
-30.19
-24.69
-18.76
-12.95
-7.63
-2.97
0.96
4.18
6.76
8.78
10.31
11.39
12.05
12.26
12.02
11.39
10.51
9.55
8.72
8.15
7.87
7.83
7.93
8.07
8.20
8.28
8.30
8.19
7.94
7.54
7.12
6.84
6.86
7.23
7.80
8.31
8.45
8.03
7.08
5.80
4.43
3.14
1.94
0.69
-0.78
-2.59
-4.72
-7.12
-9.69
-12.40
-15.20
-18.03
-20.63
-22.62
-23.52
-22.92
-20.67
-16.90
-12.01
-6.54
-0.95
4.50
9.72
14.78
19.72
24.48
28.86
32.62
35.59
37.79
39.41
40.72
41.90
42.92
43.58
43.60
42.79
41.22
39.21
37.17
35.38
33.86
32.38
30.56
28.13
25.01
21.37
17.41
13.24
8.80
3.82
-2.01
-9.01
-17.40
-27.42
-39.23
-52.92
-68.30
-84.80
-101.41
-116.69
-129.11
-137.33
-140.54
-138.68
-132.42
-122.95
-111.57
-99.37
-86.95
-74.49
-61.91
-49.18
-36.51
-24.42
-13.57
-4.53
2.46
7.65
11.72
15.64
20.37
26.57
34.39
43.44
52.90
61.89
69.72
76.12
81.24
85.47
89.18
92.58
95.56
97.59
97.68
94.47
86.62
73.34
55.01
33.27
10.65
-10.42
-28.48
-43.58
-56.83
-69.56
-82.38
-94.83
-105.72
-113.91
-118.98
-121.37
-121.96
-121.38
-119.56
-115.77
-109.07
-98.86
-85.28
-69.23
-52.06
-35.01
-18.83
-3.62
10.95
25.30
39.42
52.84
64.68
74.17
80.94
85.25
87.78
89.32
90.42
91.29
91.83
91.82
91.13
89.82
88.07
86.18
84.45
83.08
82.10
81.27
80.14
78.14
74.81
69.94
63.67
56.39
48.66
40.98
33.73
27.15
21.30
16.04
11.07
5.95
0.28
-6.19
-13.43
-21.13
-28.90
-36.38
-43.43
-50.00
-56.00
-61.12
-64.77
-66.24
-65.02
-61.01
-54.64
-46.66
-37.88
-28.94
-20.20
-11.85
-4.05
2.98
8.97
13.76
17.37
19.96
21.79
23.03
23.73
23.88
23.50
22.69
21.65
20.60
19.66
18.85
18.12
17.41
16.67
15.90
15.07
14.10
12.90
11.39
9.57
7.50
5.30
3.05
0.76
-1.58
-4.03
-6.56
-9.12
-11.62
-14.03
-16.43
-18.97
-21.85
-25.15
-28.74
-32.23
-35.02
-36.42
-35.89
-33.16
-28.31
-21.78
-14.21
-6.27
1.46
8.56
14.74
19.83
23.71
26.35
27.83
28.32
28.08
27.35
26.29
24.94
23.35
21.55
19.71
18.01
16.60
15.53
14.67
13.77
12.57
10.90
8.74
6.26
3.71
1.30
-0.88
-2.95
-5.13
-7.64
-10.56
-13.79
-17.09
-20.19
-22.93
-25.29
-27.38
-29.40
-31.59
-34.22
-37.44
-41.20
-45.14
-48.57
-50.61
-50.50
-47.83
-42.68
-35.57
-27.24
-18.39
-9.60
-1.29
6.24
12.79
18.27
22.65
26.00
28.44
30.05
30.87
30.95
30.39
29.33
27.95
26.43
24.88
23.36
21.88
20.46
19.12
17.83
16.52
15.04
13.24
11.03
8.44
5.65
2.95
0.58
-1.37
-3.00
-4.61
-6.50
-8.83
-11.56
-14.43
-17.15
-19.49
-21.47
-23.31
-25.36
-27.97
-31.32
-35.30
-39.44
-43.06
-45.28
-45.35
-42.88
-37.91
-30.97
-22.80
-14.19
-5.73
2.20
9.36
15.55
20.58
24.38
27.05
28.86
30.16
31.21
32.06
32.57
32.53
31.85
30.62
29.09
27.54
26.22
25.21
24.48
23.89
23.26
22.40
21.15
19.43
17.27
14.84
12.36
10.02
7.94
6.10
4.36
2.50
0.29
-2.40
-5.55
-9.02
-12.57
-15.98
-19.07
-21.83
-24.35
-26.80
-29.47
-32.56
-36.17
-40.09
-43.71
-46.18
-46.60
-44.36
-39.39
-32.17
-23.56
-14.45
-5.56
2.68
10.04
16.38
21.55
25.39
27.86
29.09
29.37
29.06
28.48
27.79
27.02
26.09
24.97
23.71
22.51
21.62
21.23
21.35
21.81
22.32
22.60
22.48
21.92
20.95
19.58
17.87
15.83
13.51
10.97
8.21
5.19
1.88
-1.70
-5.45
-9.18
-12.66
-15.80
-18.57
-21.12
-23.64
-26.33
-29.42
-33.07
-37.30
-41.88
-46.25
-49.58
-51.02
-49.93
-46.16
-40.09
-32.46
-24.14
-15.91
-8.29
-1.52
4.33
9.30
13.46
16.83
19.40
21.13
22.00
22.10
21.64
20.92
20.21
19.65
19.26
18.95
18.65
18.37
18.15
18.02
17.93
17.70
17.12
16.03
14.41
12.43
10.33
8.31
6.42
4.55
2.46
-0.06
-3.11
-6.62
-10.34
-14.00
-17.35
-20.29
-22.83
-25.15
-27.53
-30.27
-33.59
-37.46
-41.52
-45.07
-47.28
-47.32
-44.73
-39.48
-31.98
-22.98
-13.31
-3.77
5.04
12.71
19.05
23.99
27.56
29.89
31.17
31.62
31.50
31.05
30.41
29.60
28.55
27.18
25.52
23.69
21.87
20.21
18.76
17.45
16.21
14.94
13.60
12.14
10.54
8.77
6.82
4.71
2.45
0.05
-2.52
-5.28
-8.20
-11.17
-14.01
-16.63
-19.06
-21.50
-24.31
-27.81
-32.12
-37.05
-42.04
-46.25
-48.77
-48.83
-46.11
-40.76
-33.39
-24.87
-16.03
-7.49
0.44
7.63
14.00
19.41
23.67
26.62
28.21
28.59
28.04
26.89
25.42
23.82
22.21
20.65
19.22
17.98
16.97
16.14
15.38
14.55
13.53
12.30
10.90
9.41
7.87
6.22
4.38
2.26
-0.12
-2.70
-5.36
-8.05
-10.77
-13.62
-16.65
-19.90
-23.38
-27.09
-31.05
-35.24
-39.42
-43.08
-45.44
-45.64
-43.11
-37.80
-30.20
-21.25
-11.94
-3.09
4.84
11.68
17.41
22.00
25.38
27.48
28.35
28.18
27.28
26.02
24.72
23.57
22.65
21.91
21.31
20.79
20.29
19.81
19.29
18.69
17.99
17.19
16.27
15.19
13.82
12.01
9.65
6.81
3.69
0.62
-2.12
-4.42
-6.34
-8.10
-10.00
-12.33
-15.33
-19.10
-23.48
-27.97
-31.83
-34.21
-34.46
-32.34
-28.15
-22.58
-16.46
-10.51
-5.15
-0.49
3.54
7.08
10.24
13.02
15.31
16.98
17.90
18.01
17.39
16.26
14.97
13.86
13.23
13.15
13.57
14.27
14.99
15.56
15.89
15.97
15.82
15.39
14.59
13.34
11.62
9.48
7.08
4.55
2.01
-0.50
-3.03
-5.67
-8.56
-11.82
-15.50
-19.59
-23.98
-28.42
-32.51
-35.72
-37.39
-36.96
-34.10
-28.87
-21.82
-13.76
-5.57
2.07
8.83
14.62
19.49
23.43
26.36
28.15
28.81
28.47
27.44
26.07
24.66
23.42
22.46
21.77
21.30
20.97
20.69
20.36
19.95
19.41
18.67
17.64
16.18
14.20
11.72
8.89
5.90
2.95
0.09
-2.69
-5.51
-8.43
-11.44
-14.48
-17.49
-20.49
-23.53
-26.65
-29.78
-32.61
-34.67
-35.37
-34.23
-31.01
-25.86
-19.27
-11.93
-4.55
2.32
8.36
13.42
17.44
20.38
22.22
23.03
23.03
22.53
21.90
21.36
20.99
20.71
20.38
19.93
19.39
18.83
18.32
17.87
17.39
16.77
15.90
14.73
13.31
11.76
10.17
8.56
6.85
4.85
2.38
-0.62
-4.04
-7.59
-10.92
-13.77
-16.10
-18.09
-20.06
-22.33
-25.09
-28.33
-31.77
-34.99
-37.39
-38.38
-37.51
-34.62
-29.94
-23.97
-17.41
-10.88
-4.78
0.79
5.85
10.44
14.49
17.81
20.27
21.86
22.73
23.11
23.19
23.04
22.62
21.95
21.10
20.28
19.64
19.21
18.86
18.34
17.54
16.47
15.31
14.24
13.27
12.29
11.07
9.50
7.64
5.69
3.83
2.11
0.43
-1.43
-3.57
-5.97
-8.46
-10.79
-12.78
-14.35
-15.56
-16.53
-17.50
-18.68
-20.32
-22.54
-25.28
-28.26
-30.98
-32.86
-33.37
-32.18
-29.21
-24.72
-19.13
-13.00
-6.82
-0.93
4.47
9.27
13.39
16.71
19.11
20.53
21.07
20.96
20.50
19.99
19.56
19.24
18.95
18.61
18.24
17.91
17.69
17.58
17.49
17.25
16.72
15.87
14.76
13.53
12.30
11.10
9.88
8.50
6.83
4.82
2.48
-0.08
-2.75
-5.39
-7.91
-10.27
-12.43
-14.40
-16.15
-17.66
-18.93
-20.02
-21.13
-22.52
-24.45
-27.06
-30.21
-33.46
-36.16
-37.63
-37.39
-35.25
-31.41
-26.25
-20.28
-13.96
-7.71
-1.85
3.34
7.67
11.06
13.58
15.39
16.66
17.55
18.14
18.47
18.55
18.42
18.14
17.79
17.50
17.34
17.34
17.50
17.74
17.98
18.16
18.22
18.12
17.81
17.25
16.43
15.40
14.24
13.04
11.86
10.68
9.48
8.21
6.89
5.55
4.24
2.96
1.66
0.26
-1.31
-3.12
-5.19
-7.54
-10.15
-12.98
-15.94
-18.97
-22.08
-25.37
-29.03
-33.20
-37.84
-42.66
-47.10
-50.51
-52.30
-52.13
-49.92
-45.86
-40.33
-33.75
-26.62
-19.38
-12.41
-6.03
-0.37
4.51
8.62
11.98
14.57
16.41
17.59
18.31
18.82
19.36
20.04
20.87
21.72
22.49
23.11
23.58
23.95
24.19
24.23
24.00
23.46
22.63
21.63
20.57
19.48
18.35
17.07
15.52
13.68
11.60
9.42
7.29
5.37
3.71
2.30
1.07
-0.12
-1.41
-2.88
-4.58
-6.43
-8.33
-10.12
-11.71
-13.11
-14.42
-15.83
-17.56
-19.83
-22.70
-26.07
-29.64
-32.88
-35.18
-36.02
-35.08
-32.38
-28.25
-23.16
-17.64
-12.14
-7.04
-2.62
0.93
3.51
5.20
6.20
6.82
7.35
7.98
8.75
9.61
10.48
11.30
12.11
12.95
13.90
14.98
16.13
17.25
18.12
18.57
18.45
17.74
16.58
15.20
13.89
12.87
12.19
11.72
11.23
10.47
9.29
7.74
6.01
4.33
2.90
1.75
0.82
-0.04
-0.98
-2.08
-3.37
-4.81
-6.34
-7.92
-9.58
-11.39
-13.51
-16.19
-19.74
-24.46
-30.48
-37.60
-45.26
-52.50
-58.23
-61.52
-61.85
-59.29
-54.37
-47.90
-40.62
-33.08
-25.55
-18.22
-11.25
-4.89
0.61
5.07
8.53
11.22
13.45
15.45
17.29
18.91
20.20
21.13
21.84
22.57
23.56
24.90
26.44
27.90
28.94
29.37
29.19
28.55
27.65
26.62
25.49
24.23
22.83
21.29
19.64
17.90
16.01
13.92
11.64
9.23
6.81
4.45
2.15
-0.14
-2.53
-5.07
-7.74
-10.45
-13.07
-15.53
-17.79
-19.96
-22.20
-24.74
-27.76
-31.17
-34.64
-37.63
-39.49
-39.72
-38.09
-34.65
-29.70
-23.63
-16.88
-9.89
-3.04
3.32
8.92
13.60
17.30
20.07
22.04
23.36
24.18
24.62
24.72
24.47
23.85
22.91
21.78
20.67
19.75
19.13
18.81
18.72
18.79
18.93
19.06
19.06
18.85
18.36
17.61
16.66
15.57
14.37
13.05
11.58
10.01
8.47
7.12
6.00
5.04
4.00
2.66
0.86
-1.34
-3.78
-6.21
-8.47
-10.52
-12.44
-14.38
-16.48
-18.85
-21.57
-24.67
-28.06
-31.45
-34.30
-35.90
-35.60
-33.05
-28.39
-22.18
-15.24
-8.36
-2.04
3.47
8.14
11.93
14.78
16.60
17.33
17.15
16.34
15.27
14.25
13.46
12.95
12.68
12.60
12.71
13.02
13.53
14.17
14.85
15.43
15.80
15.90
15.69
15.17
14.31
13.07
11.45
9.49
7.33
5.09
2.93
0.91
-0.98
-2.83
-4.73
-6.81
-9.15
-11.79
-14.74
-17.87
-21.02
-23.99
-26.64
-29.02
-31.34
-33.90
-36.94
-40.43
-44.01
-47.07
-48.90
-48.91
-46.75
-42.39
-36.12
-28.48
-20.15
-11.82
-4.10
2.65
8.25
12.68
16.01
18.33
19.80
20.61
21.02
21.27
21.53
21.84
22.12
22.29
22.32
22.26
22.19
22.19
22.27
22.35
22.37
22.28
22.08
21.74
21.19
20.30
18.99
17.26
15.20
13.01
10.84
8.75
6.70
4.56
2.19
-0.45
-3.32
-6.27
-9.16
-11.91
-14.49
-16.91
-19.28
-21.73
-24.43
-27.53
-31.09
-34.94
-38.66
-41.60
-43.01
-42.32
-39.27
-33.99
-26.96
-18.84
-10.25
-1.75
6.24
13.46
19.73
24.98
29.26
32.63
35.20
37.05
38.24
38.86
39.04
38.94
38.66
38.18
37.40
36.17
34.46
32.35
30.09
27.96
26.13
24.64
23.37
22.10
20.63
18.84
16.73
14.41
11.98
9.46
6.78
3.81
0.47
-3.24
-7.17
-11.11
-14.84
-18.27
-21.43
-24.43
-27.44
-30.58
-33.91
-37.46
-41.25
-45.22
-49.19
-52.80
-55.44
-56.38
-54.96
-50.84
-44.18
-35.67
-26.31
-17.09
-8.71
-1.52
4.44
9.23
12.90
15.42
16.80
17.13
16.66
15.68
14.51
13.41
12.54
11.99
11.79
11.84
12.02
12.24
12.45
12.67
12.90
12.98
12.61
11.52
9.55
6.90
4.00
1.35
-0.76
-2.36
-3.73
-5.23
-7.02
-9.04
-11.09
-12.93
-14.47
-15.73
-16.80
-17.79
-18.86
-20.22
-22.12
-24.83
-28.44
-32.73
-37.11
-40.70
-42.54
-41.88
-38.40
-32.32
-24.33
-15.33
-6.22
2.36
10.10
16.91
22.79
27.68
31.48
34.11
35.62
36.24
36.29
36.13
35.97
35.86
35.68
35.24
34.42
33.24
31.90
30.67
29.80
29.33
29.04
28.57
27.54
25.77
23.32
20.45
17.45
14.51
11.71
8.98
6.26
3.53
0.75
-2.05
-4.93
-7.89
-10.90
-13.88
-16.72
-19.35
-21.81
-24.29
-27.03
-30.21
-33.85
-37.67
-41.08
-43.27
-43.43
-41.02
-36.02
-28.88
-20.45
-11.61
-3.04
4.87
11.95
18.11
23.21
27.05
29.53
30.69
30.76
30.17
29.32
28.52
27.91
27.49
27.17
26.85
26.47
26.02
25.54
25.07
24.63
24.21
23.77
23.21
22.44
21.37
19.96
18.23
16.23
14.11
11.93
9.68
7.25
4.43
1.10
-2.73
-6.84
-10.85
-14.36
-17.10
-19.04
-20.40
-21.57
-23.02
-25.14
-28.16
-31.99
-36.27
-40.33
-43.36
-44.59
-43.51
-40.01
-34.39
-27.29
-19.49
-11.73
-4.55
1.76
7.12
11.53
15.08
17.80
19.72
20.91
21.44
21.47
21.12
20.50
19.74
18.93
18.18
17.61
17.29
17.23
17.41
17.70
17.97
18.08
17.90
17.34
16.35
14.94
13.17
11.14
8.98
6.79
4.60
2.40
0.12
-2.37
-5.12
-8.15
-11.33
-14.45
-17.24
-19.53
-21.33
-22.86
-24.55
-26.85
-30.10
-34.32
-39.17
-43.93
-47.66
-49.44
-48.60
-44.94
-38.78
-30.83
-22.03
-13.22
-5.03
2.24
8.48
13.71
17.98
21.29
23.65
25.15
25.93
26.19
26.15
25.98
25.77
25.53
25.23
24.87
24.46
24.09
23.83
23.73
23.73
23.73
23.55
23.07
22.24
21.06
19.57
17.75
15.61
13.20
10.64
8.14
5.89
3.98
2.30
0.63
-1.27
-3.50
-6.05
-8.81
-11.64
-14.41
-17.10
-19.68
-22.17
-24.64
-27.26
-30.27
-33.84
-37.97
-42.33
-46.24
-48.82
-49.24
-47.00
-42.06
-34.94
-26.48
-17.68
-9.35
-2.03
4.15
9.27
13.53
17.08
20.01
22.32
23.98
25.02
25.52
25.62
25.49
25.27
25.07
24.91
24.78
24.68
24.63
24.68
24.84
25.06
25.22
25.15
24.70
23.79
22.43
20.75
18.87
16.94
15.05
13.23
11.43
9.57
7.55
5.36
3.08
0.85
-1.25
-3.29
-5.44
-7.90
-10.75
-13.88
-16.98
-19.76
-22.06
-23.95
-25.69
-27.61
-29.98
-32.97
-36.50
-40.27
-43.72
-46.08
-46.61
-44.77
-40.49
-34.14
-26.47
-18.31
-10.31
-2.88
3.83
9.74
14.73
18.62
21.29
22.78
23.26
23.06
22.49
21.80
21.13
20.49
19.90
19.40
19.08
19.05
19.36
19.97
20.71
21.30
21.48
21.07
20.10
18.72
17.13
15.46
13.71
11.81
9.71
7.44
5.17
3.07
1.22
-0.43
-2.04
-3.76
-5.67
-7.70
-9.71
-11.58
-13.27
-14.86
-16.49
-18.34
-20.55
-23.23
-26.43
-30.11
-34.09
-37.97
-41.11
-42.80
-42.40
-39.60
-34.52
-27.73
-20.05
-12.29
-5.07
1.27
6.65
11.10
14.64
17.28
18.98
19.80
19.89
19.48
18.85
18.26
17.85
17.69
17.74
17.95
18.21
18.44
18.56
18.54
18.34
17.99
17.50
16.84
15.99
14.84
13.36
11.55
9.52
7.42
5.37
3.44
1.64
-0.09
-1.81
-3.54
-5.32
-7.23
-9.35
-11.72
-14.31
-16.97
-19.50
-21.74
-23.64
-25.36
-27.16
-29.39
-32.27
-35.85
-39.88
-43.83
-46.93
-48.38
-47.48
-43.93
-37.93
-30.14
-21.48
-12.88
-5.00
1.87
7.72
12.70
16.91
20.34
22.94
24.70
25.72
26.16
26.24
26.08
25.76
25.33
24.86
24.50
24.36
24.55
25.02
25.62
26.11
26.29
26.03
25.31
24.18
22.73
21.06
19.21
17.18
14.92
12.45
9.80
7.08
4.44
1.98
-0.28
-2.38
-4.45
-6.60
-8.89
-11.31
-13.79
-16.24
-18.61
-20.91
-23.24
-25.76
-28.66
-32.13
-36.16
-40.59
-44.93
-48.47
-50.41
-50.06
-47.06
-41.49
-33.93
-25.23
-16.32
-7.94
-0.57
5.64
10.72
14.79
17.91
20.17
21.66
22.50
22.88
22.99
22.95
22.86
22.71
22.51
22.25
22.01
21.89
21.96
22.26
22.67
22.99
22.99
22.48
21.40
19.81
17.86
15.76
13.63
11.59
9.66
7.85
6.13
4.40
2.51
0.28
-2.39
-5.53
-8.99
-12.50
-15.79
-18.63
-20.94
-22.83
-24.54
-26.40
-28.78
-31.90
-35.74
-39.93
-43.75
-46.36
-46.98
-45.16
-40.90
-34.63
-27.02
-18.78
-10.50
-2.62
4.56
10.83
16.01
20.02
22.90
24.80
25.95
26.60
26.94
27.06
26.97
26.65
26.16
25.59
25.08
24.79
24.78
25.00
25.30
25.48
25.41
24.98
24.19
23.06
21.67
20.03
18.15
16.03
13.71
11.26
8.78
6.34
3.94
1.53
-0.99
-3.68
-6.53
-9.43
-12.22
-14.74
-16.93
-18.81
-20.50
-22.19
-24.12
-26.55
-29.68
-33.55
-37.92
-42.24
-45.71
-47.46
-46.80
-43.45
-37.60
-29.87
-21.11
-12.14
-3.62
4.06
10.73
16.36
20.92
24.39
26.76
28.11
28.62
28.55
28.19
27.74
27.28
26.84
26.46
26.19
26.10
26.23
26.52
26.80
26.89
26.63
25.95
24.89
23.55
22.02
20.37
18.58
16.64
14.59
12.44
10.29
8.17
6.11
4.05
1.92
-0.32
-2.66
-5.00
-7.26
-9.37
-11.36
-13.33
-15.37
-17.53
-19.82
-22.26
-24.96
-28.06
-31.66
-35.62
-39.49
-42.46
-43.65
-42.41
-38.61
-32.64
-25.28
-17.37
-9.61
-2.41
4.07
9.72
14.45
18.15
20.76
22.36
23.11
23.27
23.04
22.58
21.98
21.35
20.80
20.48
20.40
20.52
20.69
20.77
20.67
20.42
20.07
19.65
19.12
18.40
17.42
16.15
14.64
12.96
11.13
9.17
7.10
4.95
2.78
0.62
-1.56
-3.87
-6.37
-9.06
-11.81
-14.42
-16.71
-18.62
-20.22
-21.74
-23.46
-25.66
-28.50
-31.94
-35.72
-39.30
-41.96
-43.01
-41.93
-38.60
-33.33
-26.70
-19.44
-12.15
-5.24
1.11
6.85
11.94
16.28
19.76
22.27
23.83
24.54
24.63
24.33
23.83
23.25
22.69
22.19
21.79
21.52
21.32
21.16
20.97
20.72
20.39
20.02
19.58
19.03
18.31
17.31
15.99
14.31
12.34
10.17
7.92
5.69
3.58
1.64
-0.13
-1.75
-3.31
-4.92
-6.64
-8.51
-10.50
-12.52
-14.44
-16.21
-17.84
-19.49
-21.41
-23.86
-26.99
-30.65
-34.38
-37.49
-39.26
-39.11
-36.88
-32.76
-27.23
-20.88
-14.27
-7.84
-1.88
3.37
7.80
11.37
14.07
15.99
17.19
17.80
17.95
17.80
17.52
17.22
16.96
16.71
16.45
16.17
15.95
15.88
16.02
16.33
16.67
16.85
16.70
16.15
15.23
14.06
12.78
11.49
10.23
9.00
7.77
6.51
5.20
3.86
2.50
1.14
-0.22
-1.63
-3.17
-4.89
-6.79
-8.80
-10.77
-12.57
-14.08
-15.36
-16.59
-18.03
-19.94
-22.43
-25.41
-28.54
-31.30
-33.13
-33.56
-32.31
-29.37
-25.00
-19.72
-14.07
-8.63
-3.78
0.32
3.66
6.39
8.61
10.39
11.65
12.35
12.50
12.24
11.81
11.45
11.32
11.42
11.67
11.93
12.14
12.26
12.35
12.41
12.43
12.32
11.97
11.34
10.43
9.28
7.98
6.58
5.11
3.59
2.03
0.50
-0.94
-2.28
-3.59
-4.97
-6.55
-8.35
-10.30
-12.22
-13.97
-15.50
-16.88
-18.28
-19.88
-21.81
-24.12
-26.78
-29.67
-32.54
-35.01
-36.63
-36.93
-35.59
-32.52
-27.95
-22.32
-16.14
-9.94
-4.11
1.12
5.61
9.30
12.18
14.28
15.68
16.49
16.91
17.16
17.37
17.59
17.79
17.82
17.61
17.16
16.56
15.98
15.57
15.36
15.30
15.25
15.09
14.74
14.21
13.54
12.79
11.98
11.15
10.30
9.46
8.65
7.85
7.03
6.17
5.24
4.29
3.37
2.49
1.57
0.46
-1.03
-2.98
-5.34
-7.88
-10.31
-12.44
-14.25
-15.94
-17.77
-19.99
-22.74
-25.95
-29.37
-32.64
-35.31
-36.93
-37.11
-35.64
-32.51
-27.97
-22.44
-16.44
-10.43
-4.79
0.28
4.70
8.50
11.74
14.51
16.86
18.85
20.47
21.71
22.55
23.02
23.20
23.19
23.10
23.00
22.91
22.84
22.80
22.82
22.93
23.12
23.35
23.47
23.31
22.71
21.62
20.09
18.32
16.55
14.97
13.63
12.46
11.27
9.94
8.42
6.81
5.26
3.89
2.73
1.70
0.73
-0.28
-1.38
-2.60
-4.00
-5.64
-7.55
-9.66
-11.82
-13.85
-15.65
-17.21
-18.63
-20.06
-21.70
-23.64
-25.90
-28.29
-30.42
-31.75
-31.75
-30.03
-26.57
-21.70
-16.05
-10.27
-4.91
-0.31
3.38
6.04
7.56
7.83
6.88
4.97
2.54
0.13
-1.83
-3.15
-3.90
-4.24
-4.33
-4.19
-3.73
-2.90
-1.71
-0.32
1.10
2.47
3.80
5.16
6.56
7.92
9.02
9.67
9.80
9.51
8.99
8.42
7.92
7.52
7.16
6.82
6.44
6.03
5.55
4.97
4.24
3.30
2.09
0.60
-1.17
-3.15
-5.29
-7.50
-9.67
-11.74
-13.69
-15.54
-17.40
-19.38
-21.61
-24.14
-26.97
-29.89
-32.56
-34.47
-35.11
-34.08
-31.26
-26.88
-21.44
-15.60
-9.91
-4.71
-0.08
4.10
7.95
11.51
14.71
17.46
19.69
21.40
22.64
23.43
23.80
23.76
23.41
22.90
22.41
22.06
21.91
21.92
22.00
22.08
22.10
22.02
21.77
21.29
20.52
19.51
18.34
17.13
15.93
14.73
13.49
12.18
10.86
9.60
8.45
7.38
6.29
5.07
3.69
2.17
0.61
-0.96
-2.56
-4.26
-6.13
-8.16
-10.29
-12.43
-14.50
-16.49
-18.42
-20.29
-22.11
-23.91
-25.79
-27.90
-30.35
-33.17
-36.16
-38.91
-40.84
-41.36
-40.05
-36.79
-31.86
-25.82
-19.35
-13.04
-7.23
-2.05
2.55
6.61
10.17
13.19
15.65
17.54
18.90
19.76
20.17
20.15
19.84
19.38
18.98
18.82
18.96
19.41
20.03
20.67
21.16
21.36
21.19
20.65
19.78
18.73
17.61
16.50
15.40
14.27
13.01
11.57
9.93
8.10
6.18
4.29
2.57
1.12
-0.02
-0.94
-1.81
-2.86
-4.28
-6.12
-8.33
-10.75
-13.20
-15.53
-17.73
-19.82
-21.92
-24.16
-26.71
-29.68
-33.07
-36.69
-40.10
-42.70
-43.85
-43.10
-40.30
-35.67
-29.71
-23.02
-16.19
-9.64
-3.66
1.60
6.02
9.54
12.11
13.76
14.60
14.84
14.76
14.62
14.66
15.00
15.65
16.56
17.64
18.83
20.08
21.39
22.75
24.14
25.49
26.67
27.50
27.85
27.68
27.07
26.20
25.24
24.29
23.37
22.38
21.20
19.75
18.01
15.98
13.69
11.21
8.65
6.17
3.88
1.82
-0.09
-2.03
-4.13
-6.44
-8.80
-11.01
-12.88
-14.39
-15.76
-17.34
-19.46
-22.32
-25.89
-29.92
-33.96
-37.49
-39.95
-40.79
-39.59
-36.15
-30.63
-23.50
-15.51
-7.45
0.03
6.54
12.03
16.62
20.42
23.48
25.77
27.31
28.16
28.47
28.41
28.13
27.71
27.23
26.78
26.47
26.39
26.55
26.90
27.29
27.53
27.45
26.87
25.68
23.81
21.30
18.31
15.10
11.94
9.07
6.61
4.60
2.97
1.57
0.26
-1.15
-2.75
-4.56
-6.47
-8.34
-10.01
-11.43
-12.61
-13.64
-14.67
-15.90
-17.59
-20.01
-23.36
-27.54
-32.10
-36.21
-38.90
-39.41
-37.47
-33.40
-27.92
-21.89
-15.96
-10.45
-5.42
-0.92
2.90
5.77
7.43
7.80
7.10
5.75
4.24
2.89
1.89
1.23
0.83
0.64
0.63
0.80
1.18
1.75
2.46
3.25
4.04
4.73
5.28
5.71
6.04
6.32
6.47
6.33
5.73
4.52
2.70
0.37
-2.32
-5.25
-8.38
-11.72
-15.21
-18.73
-22.08
-25.09
-27.78
-30.36
-33.16
-36.57
-40.75
-45.63
-50.76
-55.44
-58.84
-60.22
-59.08
-55.27
-49.03
-40.87
-31.49
-21.58
-11.77
-2.56
5.70
12.76
18.49
22.86
25.95
27.98
29.19
29.83
30.05
29.90
29.37
28.49
27.41
26.37
25.65
25.40
25.60
26.01
26.32
26.20
25.51
24.21
22.41
20.24
17.86
15.35
12.77
10.11
7.27
4.14
0.65
-3.19
-7.22
-11.22
-14.96
-18.31
-21.28
-24.00
-26.72
-29.78
-33.50
-38.04
-43.21
-48.41
-52.62
-54.71
-53.79
-49.56
-42.41
-33.24
-23.17
-13.15
-3.82
4.52
11.74
17.81
22.69
26.42
29.10
30.95
32.26
33.26
34.10
34.81
35.28
35.45
35.32
35.01
34.75
34.77
35.14
35.76
36.33
36.52
36.07
34.92
33.11
30.76
27.95
24.63
20.80
16.42
11.62
6.61
1.62
-3.14
-7.60
-11.87
-16.18
-20.80
-25.95
-31.68
-37.69
-43.38
-47.89
-50.33
-50.02
-46.70
-40.65
-32.53
-23.21
-13.53
-4.13
4.64
12.59
19.66
25.81
30.93
34.92
37.69
39.22
39.63
39.18
38.23
37.13
36.13
35.34
34.72
34.13
33.41
32.44
31.12
29.42
27.32
24.84
21.99
18.80
15.35
11.75
8.16
4.73
1.57
-1.28
-3.88
-6.39
-8.94
-11.66
-14.61
-17.85
-21.37
-25.17
-29.12
-32.97
-36.24
-38.32
-38.64
-36.81
-32.82
-27.04
-20.12
-12.80
-5.67
0.89
6.71
11.78
16.08
19.53
22.04
23.58
24.20
24.11
23.58
22.82
22.00
21.23
20.55
20.01
19.61
19.32
19.04
18.67
18.13
17.36
16.35
15.09
13.57
11.80
9.79
7.59
5.25
2.80
0.25
-2.37
-4.99
-7.47
-9.69
-11.59
-13.30
-15.07
-17.23
-19.97
-23.33
-27.05
-30.65
-33.48
-34.99
-34.76
-32.66
-28.86
-23.75
-17.83
-11.62
-5.58
-0.07
4.68
8.52
11.43
13.49
14.82
15.55
15.80
15.70
15.38
14.99
14.64
14.42
14.31
14.26
14.21
14.16
14.14
14.18
14.23
14.15
13.74
12.84
11.42
9.58
7.53
5.49
3.62
1.91
0.26
-1.50
-3.49
-5.75
-8.18
-10.59
-12.82
-14.75
-16.42
-17.99
-19.75
-21.98
-24.87
-28.40
-32.25
-35.85
-38.47
-39.42
-38.31
-35.13
-30.28
-24.41
-18.18
-12.08
-6.39
-1.20
3.43
7.44
10.73
13.27
15.15
16.52
17.57
18.38
18.97
19.29
19.32
19.11
18.78
18.49
18.30
18.23
18.21
18.14
17.92
17.46
16.74
15.79
14.62
13.33
11.97
10.59
9.21
7.86
6.55
5.29
4.08
2.87
1.54
-0.02
-1.85
-3.94
-6.16
-8.39
-10.54
-12.59
-14.57
-16.53
-18.54
-20.66
-22.96
-25.55
-28.43
-31.45
-34.24
-36.31
-37.09
-36.21
-33.57
-29.46
-24.35
-18.82
-13.34
-8.17
-3.38
1.03
5.05
8.64
11.66
14.03
15.75
16.91
17.70
18.28
18.78
19.21
19.56
19.80
19.91
19.92
19.88
19.82
19.71
19.50
19.14
18.63
18.01
17.33
16.61
15.82
14.87
13.70
12.29
10.69
8.97
7.21
5.43
3.64
1.83
0.06
-1.63
-3.20
-4.69
-6.15
-7.68
-9.33
-11.09
-12.90
-14.69
-16.39
-17.98
-19.48
-20.95
-22.53
-24.38
-26.68
-29.48
-32.69
-35.94
-38.67
-40.24
-40.10
-37.99
-34.03
-28.66
-22.53
-16.28
-10.40
-5.14
-0.58
3.30
6.53
9.14
11.13
12.53
13.43
13.95
14.27
14.50
14.71
14.83
14.80
14.57
14.23
13.99
14.10
14.69
15.65
16.66
17.32
17.36
16.72
15.59
14.27
12.96
11.73
10.49
9.17
7.72
6.24
4.82
3.53
2.37
1.24
0.02
-1.35
-2.90
-4.57
-6.30
-8.06
-9.85
-11.68
-13.57
-15.49
-17.40
-19.23
-21.00
-22.80
-24.83
-27.27
-30.13
-33.22
-36.07
-38.05
-38.64
-37.47
-34.53
-30.05
-24.49
-18.30
-11.94
-5.76
-0.06
4.94
9.08
12.31
14.71
16.46
17.76
18.73
19.42
19.81
19.85
19.60
19.20
18.84
18.69
18.87
19.37
20.16
21.11
22.09
22.89
23.33
23.20
22.44
21.11
19.41
17.62
15.94
14.50
13.25
12.08
10.82
9.32
7.54
5.55
3.50
1.58
-0.12
-1.59
-2.95
-4.37
-5.92
-7.66
-9.52
-11.46
-13.50
-15.65
-17.93
-20.32
-22.70
-25.01
-27.28
-29.69
-32.46
-35.71
-39.26
-42.58
-44.93
-45.61
-44.17
-40.64
-35.40
-29.08
-22.26
-15.37
-8.66
-2.25
3.71
9.00
13.38
16.70
18.97
20.39
21.32
22.03
22.67
23.21
23.54
23.56
23.35
23.06
22.92
23.06
23.50
24.11
24.72
25.13
25.16
24.72
23.81
22.51
21.03
19.58
18.33
17.27
16.24
14.99
13.34
11.26
8.94
6.66
4.69
3.15
1.96
0.90
-0.32
-1.90
-3.91
-6.26
-8.80
-11.36
-13.82
-16.17
-18.39
-20.52
-22.64
-24.88
-27.45
-30.55
-34.24
-38.32
-42.25
-45.27
-46.59
-45.67
-42.42
-37.19
-30.60
-23.33
-15.93
-8.73
-1.90
4.37
9.88
14.41
17.81
20.10
21.44
22.10
22.30
22.22
21.95
21.54
21.07
20.65
20.43
20.49
20.87
21.48
22.16
22.74
23.05
23.04
22.73
22.23
21.61
20.86
19.94
18.72
17.17
15.33
13.33
11.32
9.36
7.46
5.52
3.44
1.18
-1.26
-3.82
-6.38
-8.88
-11.27
-13.53
-15.63
-17.56
-19.34
-21.03
-22.81
-24.86
-27.32
-30.16
-33.05
-35.43
-36.61
-35.99
-33.23
-28.38
-21.86
-14.31
-6.46
1.06
7.73
13.24
17.40
20.19
21.67
22.01
21.42
20.16
18.43
16.40
14.23
12.11
10.26
8.94
8.36
8.56
9.39
10.54
11.68
12.54
13.04
13.18
13.03
12.60
11.81
10.61
8.98
7.03
4.98
3.00
1.16
-0.63
-2.60
-4.95
-7.79
-11.00
-14.35
-17.51
-20.31
-22.66
-24.66
-26.47
-28.28
-30.29
-32.73
-35.84
-39.70
-44.16
-48.73
-52.61
-54.86
-54.70
-51.74
-46.05
-38.18
-28.94
-19.23
-9.79
-1.15
6.43
12.92
18.35
22.78
26.22
28.70
30.25
31.04
31.28
31.19
30.95
30.67
30.41
30.23
30.20
30.37
30.73
31.19
31.60
31.77
31.58
30.88
29.64
27.83
25.57
22.99
20.26
17.54
14.90
12.37
9.92
7.50
5.04
2.45
-0.41
-3.56
-7.00
-10.57
-14.06
-17.24
-20.00
-22.35
-24.51
-26.76
-29.43
-32.75
-36.78
-41.33
-45.86
-49.63
-51.82
-51.71
-48.96
-43.65
-36.26
-27.48
-18.09
-8.79
-0.13
7.55
14.10
19.53
23.96
27.55
30.39
32.55
34.02
34.80
34.94
34.59
33.94
33.24
32.64
32.22
31.98
31.84
31.71
31.53
31.26
30.84
30.22
29.24
27.80
25.87
23.54
21.02
18.57
16.35
14.38
12.52
10.58
8.39
5.90
3.10
0.09
-3.08
-6.31
-9.54
-12.62
-15.38
-17.70
-19.53
-21.02
-22.49
-24.38
-27.11
-30.96
-35.86
-41.38
-46.67
-50.69
-52.48
-51.40
-47.36
-40.79
-32.50
-23.40
-14.33
-5.86
1.70
8.26
13.84
18.49
22.25
25.10
27.03
28.08
28.38
28.16
27.65
27.00
26.31
25.61
24.95
24.46
24.29
24.53
25.08
25.66
25.95
25.75
25.01
23.86
22.50
21.01
19.36
17.44
15.20
12.70
10.15
7.79
5.76
4.07
2.53
0.90
-1.05
-3.40
-6.10
-8.98
-11.84
-14.51
-16.88
-18.96
-20.82
-22.62
-24.59
-27.00
-30.03
-33.76
-37.95
-42.07
-45.36
-46.97
-46.26
-42.96
-37.30
-29.87
-21.49
-13.00
-5.03
2.04
8.09
13.17
17.40
20.86
23.58
25.53
26.71
27.20
27.18
26.92
26.61
26.40
26.27
26.19
26.09
25.98
25.90
25.87
25.87
25.81
25.58
25.05
24.17
22.95
21.46
19.81
18.15
16.56
15.05
13.55
11.92
10.02
7.81
5.36
2.84
0.42
-1.78
-3.73
-5.50
-7.17
-8.85
-10.60
-12.47
-14.48
-16.61
-18.81
-21.03
-23.23
-25.44
-27.75
-30.35
-33.39
-36.90
-40.68
-44.24
-46.89
-47.91
-46.75
-43.22
-37.58
-30.41
-22.47
-14.44
-6.84
0.10
6.27
11.65
16.18
19.72
22.17
23.53
23.98
23.88
23.66
23.68
24.07
24.69
25.32
25.73
25.86
25.85
25.88
26.06
26.32
26.42
26.13
25.31
24.02
22.49
20.94
19.50
18.14
16.76
15.21
13.46
11.52
9.48
7.43
5.47
3.65
2.00
0.49
-0.93
-2.39
-3.98
-5.81
-7.92
-10.30
-12.87
-15.53
-18.14
-20.57
-22.77
-24.78
-26.74
-28.89
-31.46
-34.53
-38.03
-41.59
-44.67
-46.61
-46.83
-44.98
-41.04
-35.33
-28.40
-20.90
-13.40
-6.36
-0.05
5.37
9.84
13.34
15.94
17.73
18.84
19.39
19.48
19.22
18.71
18.08
17.47
17.04
16.88
17.00
17.36
17.82
18.25
18.56
18.67
18.52
18.07
17.30
16.18
14.80
13.25
11.67
10.18
8.79
7.43
5.99
4.37
2.62
0.82
-0.89
-2.49
-4.02
-5.63
-7.42
-9.41
-11.50
-13.56
-15.44
-17.13
-18.70
-20.34
-22.25
-24.62
-27.52
-30.91
-34.54
-38.01
-40.77
-42.22
-41.83
-39.35
-34.86
-28.80
-21.84
-14.69
-7.95
-1.94
3.24
7.63
11.26
14.11
16.13
17.34
17.84
17.87
17.69
17.51
17.46
17.54
17.75
18.06
18.48
19.04
19.73
20.46
21.16
21.66
21.84
21.54
20.72
19.40
17.78
16.10
14.67
13.60
12.80
12.02
10.89
9.20
6.96
4.44
1.97
-0.17
-1.94
-3.51
-5.12
-6.95
-9.01
-11.19
-13.35
-15.44
-17.53
-19.73
-22.16
-24.83
-27.74
-30.87
-34.25
-37.88
-41.62
-45.15
-47.87
-49.11
-48.30
-45.16
-39.84
-32.86
-24.98
-16.91
-9.20
-2.09
4.38
10.25
15.51
20.05
23.69
26.31
27.93
28.72
28.95
28.88
28.63
28.23
27.65
26.89
26.11
25.52
25.35
25.69
26.41
27.21
27.70
27.62
26.86
25.57
24.05
22.55
21.20
19.97
18.69
17.19
15.40
13.36
11.22
9.13
7.15
5.29
3.47
1.62
-0.34
-2.44
-4.73
-7.22
-9.87
-12.61
-15.31
-17.81
-20.03
-22.00
-23.85
-25.83
-28.22
-31.22
-34.86
-38.89
-42.74
-45.63
-46.71
-45.43
-41.67
-35.84
-28.73
-21.21
-14.00
-7.48
-1.74
3.27
7.66
11.43
14.50
16.82
18.38
19.28
19.72
19.95
20.15
20.42
20.72
20.96
21.06
21.03
20.94
20.93
21.07
21.30
21.48
21.38
20.87
19.94
18.73
17.45
16.28
15.28
14.37
13.36
12.13
10.59
8.83
6.97
5.13
3.37
1.68
0.03
-1.59
-3.16
-4.66
-6.15
-7.73
-9.56
-11.71
-14.12
-16.64
-19.07
-21.30
-23.38
-25.51
-27.97
-30.93
-34.36
-37.91
-40.98
-42.83
-42.78
-40.50
-36.09
-30.07
-23.23
-16.32
-9.87
-4.10
1.03
5.61
9.69
13.25
16.17
18.40
19.97
20.94
21.47
21.69
21.71
21.63
21.51
21.41
21.37
21.43
21.65
22.02
22.50
22.95
23.23
23.20
22.81
22.12
21.26
20.37
19.52
18.71
17.82
16.71
15.28
13.49
11.43
9.19
6.91
4.69
2.60
0.70
-0.95
-2.31
-3.41
-4.34
-5.32
-6.56
-8.21
-10.27
-12.58
-14.91
-17.08
-19.04
-20.83
-22.58
-24.41
-26.46
-28.88
-31.80
-35.25
-39.02
-42.54
-44.97
-45.45
-43.44
-38.95
-32.54
-25.14
-17.70
-10.90
-5.00
0.02
4.34
8.12
11.43
14.23
16.52
18.29
19.62
20.60
21.31
21.79
22.03
22.05
21.94
21.83
21.85
22.06
22.43
22.80
23.02
22.99
22.69
22.18
21.51
20.66
19.59
18.27
16.77
15.23
13.84
12.72
11.80
10.92
9.81
8.28
6.34
4.13
1.92
-0.08
-1.81
-3.38
-4.96
-6.73
-8.70
-10.81
-12.95
-15.05
-17.13
-19.25
-21.42
-23.60
-25.72
-27.75
-29.77
-31.95
-34.40
-37.06
-39.53
-41.19
-41.40
-39.77
-36.25
-31.20
-25.15
-18.65
-12.12
-5.91
-0.23
4.67
8.64
11.60
13.61
14.86
15.62
16.09
16.45
16.75
17.03
17.27
17.50
17.70
17.89
18.12
18.42
18.79
19.22
19.59
19.77
19.67
19.23
18.45
17.41
16.20
14.92
13.63
12.37
11.12
9.84
8.42
6.85
5.11
3.27
1.42
-0.38
-2.11
-3.80
-5.54
-7.37
-9.32
-11.36
-13.47
-15.57
-17.62
-19.59
-21.51
-23.42
-25.43
-27.70
-30.44
-33.77
-37.69
-41.93
-45.91
-48.90
-50.10
-49.01
-45.49
-39.90
-32.92
-25.35
-17.87
-10.94
-4.71
0.81
5.69
9.99
13.71
16.80
19.26
21.13
22.50
23.51
24.25
24.78
25.11
25.26
25.33
25.49
25.90
26.66
27.68
28.72
29.47
29.68
29.20
28.06
26.40
24.39
22.21
20.05
18.03
16.25
14.73
13.38
12.04
10.56
8.83
6.93
4.98
3.15
1.52
0.04
-1.46
-3.14
-5.12
-7.39
-9.83
-12.32
-14.76
-17.10
-19.39
-21.70
-24.19
-27.04
-30.43
-34.40
-38.78
-43.05
-46.50
-48.35
-48.02
-45.36
-40.62
-34.38
-27.26
-19.83
-12.47
-5.44
1.06
6.81
11.63
15.41
18.19
20.11
21.38
22.20
22.71
22.99
23.09
23.06
22.95
22.78
22.62
22.54
22.67
23.08
23.76
24.57
25.23
25.47
25.12
24.19
22.81
21.17
19.40
17.56
15.67
13.71
11.70
9.64
7.54
5.44
3.38
1.43
-0.41
-2.23
-4.21
-6.53
-9.26
-12.26
-15.25
-17.93
-20.16
-22.04
-23.86
-26.01
-28.78
-32.34
-36.59
-41.19
-45.54
-48.84
-50.23
-49.04
-45.01
-38.41
-30.00
-20.77
-11.66
-3.34
3.89
9.98
15.02
19.11
22.27
24.48
25.80
26.34
26.33
26.06
25.74
25.54
25.53
25.70
26.01
26.40
26.82
27.24
27.62
27.87
27.90
27.61
26.92
25.81
24.34
22.65
20.88
19.11
17.35
15.50
13.47
11.18
8.66
6.05
3.52
1.22
-0.78
-2.53
-4.19
-5.96
-8.03
-10.47
-13.20
-16.01
-18.68
-21.05
-23.14
-25.20
-27.58
-30.68
-34.69
-39.51
-44.69
-49.47
-52.94
-54.26
-52.83
-48.50
-41.61
-32.87
-23.24
-13.66
-4.85
2.79
9.12
14.23
18.32
21.56
24.13
26.13
27.63
28.67
29.23
29.32
29.00
28.41
27.76
27.31
27.24
27.64
28.44
29.46
30.37
30.86
30.71
29.79
28.20
26.16
23.94
21.81
19.89
18.17
16.51
14.70
12.61
10.20
7.57
4.90
2.38
0.12
-1.92
-3.91
-6.08
-8.62
-11.55
-14.70
-17.81
-20.62
-23.05
-25.22
-27.39
-29.92
-33.06
-36.90
-41.26
-45.70
-49.58
-52.14
-52.67
-50.69
-46.13
-39.32
-30.96
-21.90
-12.96
-4.69
2.56
8.71
13.80
17.87
20.96
23.12
24.42
24.98
24.99
24.63
24.09
23.46
22.81
22.19
21.67
21.36
21.38
21.76
22.44
23.26
23.97
24.31
24.08
23.23
21.81
19.97
17.89
15.70
13.46
11.17
8.79
6.25
3.58
0.83
-1.89
-4.54
-7.11
-9.66
-12.23
-14.79
-17.25
-19.47
-21.40
-23.13
-24.94
-27.23
-30.34
-34.38
-39.12
-43.91
-47.83
-49.89
-49.36
-45.93
-39.83
-31.73
-22.56
-13.25
-4.55
3.04
9.32
14.32
18.22
21.22
23.50
25.15
26.18
26.61
26.52
26.10
25.54
25.07
24.81
24.82
25.10
25.60
26.26
26.94
27.50
27.73
27.47
26.66
25.33
23.60
21.63
19.54
17.45
15.36
13.29
11.20
9.05
6.85
4.63
2.45
0.35
-1.67
-3.68
-5.77
-8.03
-10.50
-13.11
-15.76
-18.32
-20.77
-23.18
-25.73
-28.64
-32.07
-36.05
-40.38
-44.65
-48.25
-50.47
-50.65
-48.38
-43.60
-36.66
-28.27
-19.31
-10.55
-2.56
4.41
10.37
15.37
19.52
22.85
25.38
27.12
28.18
28.70
28.85
28.73
28.44
28.05
27.65
27.34
27.19
27.22
27.34
27.43
27.34
26.95
26.21
25.11
23.71
22.09
20.36
18.56
16.69
14.70
12.48
10.02
7.34
4.61
1.99
-0.36
-2.39
-4.17
-5.86
-7.64
-9.68
-12.02
-14.58
-17.19
-19.60
-21.68
-23.38
-24.88
-26.47
-28.50
-31.29
-34.86
-38.99
-43.08
-46.36
-47.98
-47.33
-44.13
-38.58
-31.27
-22.99
-14.53
-6.55
0.53
6.47
11.16
14.56
16.80
18.11
18.82
19.28
19.75
20.34
20.99
21.63
22.18
22.67
23.18
23.79
24.52
25.32
26.08
26.69
27.06
27.10
26.74
25.92
24.61
22.88
20.86
18.70
16.57
14.53
12.57
10.63
8.63
6.56
4.47
2.41
0.47
-1.36
-3.13
-4.98
-7.03
-9.36
-11.94
-14.69
-17.44
-20.09
-22.55
-24.83
-27.03
-29.33
-31.98
-35.21
-39.12
-43.58
-48.13
-51.97
-54.17
-53.92
-50.81
-45.00
-37.15
-28.23
-19.19
-10.75
-3.25
3.26
8.91
13.84
18.12
21.74
24.65
26.81
28.29
29.24
29.87
30.33
30.72
31.01
31.13
31.03
30.74
30.34
29.98
29.73
29.54
29.32
28.93
28.27
27.34
26.22
24.96
23.56
21.99
20.15
18.02
15.61
13.07
10.61
8.41
6.56
5.02
3.62
2.23
0.75
-0.79
-2.31
-3.75
-5.13
-6.61
-8.35
-10.48
-12.98
-15.71
-18.44
-20.95
-23.17
-25.14
-27.03
-29.07
-31.47
-34.38
-37.79
-41.50
-45.12
-48.06
-49.63
-49.23
-46.52
-41.50
-34.59
-26.48
-17.97
-9.74
-2.21
4.41
10.13
15.00
19.05
22.25
24.58
26.05
26.83
27.15
27.30
27.49
27.82
28.21
28.51
28.56
28.31
27.82
27.28
26.84
26.57
26.43
26.25
25.84
25.10
24.03
22.73
21.31
19.82
18.23
16.47
14.52
12.45
10.45
8.70
7.30
6.18
5.15
4.01
2.62
1.01
-0.71
-2.39
-3.95
-5.41
-6.83
-8.30
-9.89
-11.63
-13.49
-15.45
-17.44
-19.39
-21.27
-23.09
-24.94
-27.00
-29.47
-32.48
-36.01
-39.77
-43.24
-45.67
-46.33
-44.71
-40.74
-34.84
-27.79
-20.39
-13.27
-6.70
-0.67
4.89
9.98
14.40
17.93
20.46
22.14
23.29
24.28
25.33
26.45
27.42
28.01
28.08
27.66
26.94
26.14
25.43
24.84
24.30
23.69
22.94
22.02
20.96
19.83
18.66
17.48
16.26
14.91
13.34
11.48
9.36
7.11
4.92
2.97
1.32
-0.08
-1.42
-2.86
-4.46
-6.12
-7.65
-8.93
-9.95
-10.89
-12.00
-13.51
-15.50
-17.93
-20.59
-23.25
-25.71
-27.83
-29.63
-31.21
-32.80
-34.68
-37.11
-40.23
-43.90
-47.71
-50.98
-52.94
-52.97
-50.73
-46.29
-40.09
-32.80
-25.14
-17.69
-10.81
-4.63
0.84
5.64
9.75
13.11
15.70
17.56
18.82
19.65
20.24
20.69
21.04
21.33
21.62
22.05
22.71
23.66
24.79
25.92
26.79
27.22
27.17
26.72
26.01
25.20
24.35
23.44
22.41
21.20
19.73
18.03
16.12
14.10
12.09
10.20
8.49
6.95
5.50
4.00
2.37
0.61
-1.17
-2.86
-4.41
-5.89
-7.43
-9.14
-11.04
-13.03
-14.95
-16.72
-18.37
-20.01
-21.82
-23.90
-26.34
-29.08
-32.09
-35.23
-38.29
-40.91
-42.61
-42.86
-41.30
-37.85
-32.77
-26.60
-20.02
-13.62
-7.81
-2.76
1.54
5.16
8.16
10.58
12.47
13.88
14.91
15.65
16.17
16.49
16.62
16.57
16.41
16.29
16.36
16.73
17.42
18.32
19.22
19.90
20.16
19.92
19.19
18.08
16.74
15.32
13.93
12.66
11.50
10.39
9.22
7.87
6.24
4.33
2.22
0.08
-1.88
-3.58
-5.02
-6.35
-7.81
-9.58
-11.79
-14.35
-17.11
-19.84
-22.37
-24.68
-26.83
-29.00
-31.38
-34.12
-37.22
-40.50
-43.58
-45.90
-46.88
-46.04
-43.18
-38.38
-32.04
-24.75
-17.18
-9.91
-3.36
2.25
6.93
10.79
13.98
16.59
18.63
20.06
20.90
21.27
21.42
21.59
21.96
22.53
23.21
23.87
24.44
24.92
25.34
25.71
26.03
26.23
26.24
25.98
25.42
24.54
23.38
21.99
20.42
18.70
16.81
14.70
12.40
9.96
7.55
5.30
3.32
1.60
0.09
-1.38
-2.90
-4.64
-6.67
-9.04
-11.61
-14.19
-16.52
-18.44
-20.05
-21.63
-23.61
-26.30
-29.86
-34.17
-38.97
-43.89
-48.47
-52.12
-54.19
-54.06
-51.34
-46.06
-38.73
-30.16
-21.26
-12.79
-5.15
1.54
7.32
12.29
16.45
19.82
22.42
24.35
25.75
26.80
27.60
28.18
28.52
28.65
28.62
28.58
28.65
28.90
29.34
29.84
30.27
30.44
30.22
29.52
28.37
26.85
25.12
23.38
21.75
20.28
18.94
17.62
16.22
14.58
12.59
10.18
7.38
4.34
1.30
-1.54
-4.08
-6.40
-8.69
-11.11
-13.67
-16.23
-18.55
-20.47
-22.00
-23.42
-25.06
-27.24
-30.14
-33.72
-37.82
-42.10
-46.03
-48.94
-50.08
-48.79
-44.76
-38.20
-29.82
-20.61
-11.55
-3.30
3.82
9.89
15.05
19.41
22.96
25.64
27.39
28.23
28.27
27.71
26.80
25.78
24.88
24.26
24.03
24.16
24.61
25.30
26.17
27.15
28.07
28.72
28.87
28.35
27.18
25.57
23.81
22.15
20.73
19.51
18.39
17.26
16.04
14.69
13.18
11.51
9.71
7.87
6.10
4.47
2.93
1.34
-0.53
-2.82
-5.57
-8.64
-11.79
-14.77
-17.46
-19.93
-22.40
-25.18
-28.54
-32.58
-37.14
-41.72
-45.59
-47.87
-47.78
-44.84
-38.98
-30.69
-20.89
-10.75
-1.48
6.02
11.30
14.45
15.99
16.61
16.92
17.21
17.46
17.50
17.18
16.57
15.95
15.62
15.74
16.27
16.94
17.53
17.93
18.29
18.83
19.73
20.90
22.02
22.70
22.66
21.88
20.65
19.36
18.33
17.63
17.06
16.31
15.14
13.46
11.36
8.99
6.48
3.90
1.28
-1.29
-3.68
-5.80
-7.64
-9.36
-11.20
-13.40
-16.02
-18.96
-22.00
-24.94
-27.71
-30.44
-33.35
-36.73
-40.82
-45.69
-51.14
-56.69
-61.56
-64.82
-65.60
-63.35
-58.01
-50.12
-40.66
-30.79
-21.52
-13.49
-6.89
-1.60
2.65
6.15
9.07
11.53
13.64
15.57
17.47
19.50
21.70
23.99
26.19
28.17
29.79
31.00
31.79
32.15
32.08
31.61
30.77
29.69
28.50
27.32
26.22
25.19
24.17
23.08
21.90
20.63
19.30
17.89
16.36
14.64
12.72
10.62
8.44
6.23
4.04
1.81
-0.57
-3.20
-6.10
-9.25
-12.55
-15.91
-19.25
-22.51
-25.67
-28.76
-31.84
-35.06
-38.54
-42.35
-46.30
-50.00
-52.79
-53.96
-52.93
-49.43
-43.61
-35.94
-27.09
-17.76
-8.56
0.04
7.71
14.25
19.55
23.58
26.33
27.94
28.56
28.44
27.84
27.03
26.23
25.59
25.18
25.04
25.16
25.51
26.05
26.73
27.44
28.03
28.37
28.33
27.86
26.95
25.65
24.09
22.36
20.57
18.78
17.04
15.33
13.65
11.95
10.21
8.38
6.44
4.40
2.35
0.36
-1.49
-3.22
-4.93
-6.75
-8.79
-11.10
-13.60
-16.18
-18.69
-21.03
-23.18
-25.26
-27.49
-30.16
-33.55
-37.71
-42.31
-46.65
-49.76
-50.73
-48.99
-44.52
-37.85
-29.83
-21.33
-13.05
-5.37
1.52
7.58
12.78
17.08
20.49
23.07
24.98
26.34
27.25
27.73
27.75
27.33
26.59
25.72
25.00
24.61
24.65
25.05
25.67
26.29
26.67
26.62
26.03
24.90
23.33
21.54
19.77
18.21
16.87
15.66
14.33
12.66
10.51
7.94
5.16
2.52
0.32
-1.25
-2.21
-2.80
-3.34
-4.15
-5.42
-7.18
-9.30
-11.59
-13.82
-15.86
-17.68
-19.39
-21.23
-23.46
-26.24
-29.46
-32.65
-35.03
-35.67
-33.78
-28.98
-21.49
-12.15
-2.21
6.96
14.29
19.27
22.00
23.00
22.99
22.55
22.06
21.63
21.27
20.94
20.67
20.50
20.46
20.56
20.76
21.02
21.35
21.75
22.22
22.70
23.00
22.87
22.03
20.27
17.61
14.26
10.65
7.20
4.27
1.94
0.12
-1.46
-3.08
-4.90
-6.94
-9.09
-11.19
-13.06
-14.61
-15.84
-16.87
-17.90
-19.16
-20.84
-23.00
-25.56
-28.28
-30.92
-33.31
-35.46
-37.56
-39.93
-42.91
-46.63
-50.94
-55.36
-59.09
-61.20
-60.93
-57.86
-52.11
-44.26
-35.12
-25.49
-15.98
-6.95
1.38
8.87
15.35
20.71
24.92
28.08
30.37
31.98
33.00
33.46
33.34
32.70
31.73
30.68
29.81
29.30
29.18
29.35
29.64
29.91
30.06
30.00
29.64
28.90
27.73
26.18
24.41
22.61
20.92
19.35
17.80
16.13
14.27
12.23
10.08
7.91
5.76
3.65
1.58
-0.45
-2.47
-4.55
-6.77
-9.18
-11.77
-14.39
-16.90
-19.23
-21.48
-23.85
-26.54
-29.67
-33.22
-37.05
-40.94
-44.60
-47.64
-49.52
-49.66
-47.61
-43.24
-36.89
-29.25
-21.14
-13.30
-6.14
0.22
5.88
10.92
15.32
18.97
21.78
23.76
25.04
25.82
26.29
26.54
26.62
26.55
26.39
26.27
26.32
26.63
27.16
27.78
28.27
28.44
28.19
27.52
26.53
25.36
24.11
22.86
21.62
20.33
18.91
17.29
15.41
13.33
11.20
9.23
7.56
6.22
5.08
3.91
2.49
0.76
-1.19
-3.18
-5.09
-6.98
-8.99
-11.26
-13.85
-16.61
-19.31
-21.77
-23.92
-25.91
-27.94
-30.22
-32.81
-35.65
-38.61
-41.50
-44.14
-46.26
-47.47
-47.32
-45.42
-41.58
-36.00
-29.22
-21.97
-14.95
-8.63
-3.15
1.57
5.74
9.47
12.76
15.52
17.67
19.23
20.37
21.35
22.42
23.66
24.96
26.10
26.88
27.24
27.28
27.22
27.22
27.27
27.26
26.98
26.34
25.34
24.13
22.88
21.68
20.56
19.49
18.40
17.27
16.07
14.76
13.30
11.65
9.81
7.89
6.02
4.31
2.80
1.42
0.02
-1.55
-3.41
-5.56
-7.90
-10.27
-12.51
-14.53
-16.33
-18.02
-19.81
-21.89
-24.38
-27.27
-30.37
-33.48
-36.42
-39.16
-41.85
-44.72
-47.98
-51.76
-55.98
-60.35
-64.36
-67.32
-68.53
-67.48
-64.04
-58.55
-51.68
-44.13
-36.38
-28.55
-20.46
-11.88
-2.74
6.82
16.46
25.83
34.58
42.38
48.83
53.55
56.25
56.91
55.88
53.74
51.17
48.70
46.58
44.81
43.23
41.68
40.03
38.22
36.24
34.12
31.88
29.56
27.20
24.85
22.55
20.29
18.05
15.82
13.61
11.45
9.37
7.40
5.58
3.93
2.43
1.07
-0.22
-1.56
-3.09
-4.90
-6.98
-9.14
-11.14
-12.82
-14.16
-15.36
-16.71
-18.44
-20.62
-23.09
-25.59
-27.84
-29.72
-31.24
-32.60
-34.12
-36.12
-38.85
-42.35
-46.33
-50.16
-53.02
-54.08
-52.80
-49.09
-43.29
-36.06
-28.16
-20.27
-12.84
-6.10
-0.10
5.18
9.75
13.65
16.84
19.34
21.16
22.37
23.08
23.42
23.57
23.66
23.81
24.06
24.46
25.03
25.76
26.66
27.62
28.49
29.05
29.13
28.69
27.83
26.77
25.73
24.83
24.01
23.08
21.88
20.39
18.72
17.09
15.70
14.60
13.69
12.81
11.82
10.70
9.49
8.24
6.94
5.52
3.92
2.15
0.32
-1.44
-3.07
-4.64
-6.31
-8.23
-10.48
-12.99
-15.60
-18.12
-20.42
-22.47
-24.34
-26.26
-28.59
-31.70
-35.89
-41.19
-47.19
-53.08
-57.81
-60.41
-60.25
-57.21
-51.67
-44.33
-36.00
-27.41
-19.13
-11.54
-4.89
0.71
5.30
8.97
11.92
14.26
16.09
17.43
18.29
18.77
19.04
19.30
19.71
20.36
21.22
22.25
23.41
24.69
26.03
27.33
28.40
29.05
29.16
28.79
28.10
27.27
26.45
25.63
24.69
23.53
22.08
20.41
18.65
16.95
15.41
14.07
12.86
11.72
10.55
9.25
7.73
5.87
3.62
1.05
-1.64
-4.19
-6.41
-8.29
-9.98
-11.75
-13.81
-16.21
-18.83
-21.46
-23.99
-26.40
-28.85
-31.55
-34.71
-38.48
-42.86
-47.62
-52.24
-55.93
-57.79
-57.11
-53.57
-47.34
-39.05
-29.55
-19.72
-10.27
-1.69
5.75
11.96
17.01
21.03
24.19
26.59
28.29
29.28
29.62
29.43
28.96
28.45
28.10
28.00
28.20
28.68
29.40
30.30
31.23
32.03
32.47
32.39
31.73
30.53
28.92
27.09
25.21
23.41
21.75
20.18
18.56
16.78
14.76
12.57
10.32
8.19
6.26
4.54
2.97
1.47
0.02
-1.41
-2.86
-4.42
-6.17
-8.20
-10.49
-12.97
-15.47
-17.90
-20.20
-22.41
-24.63
-27.02
-29.71
-32.83
-36.48
-40.64
-45.11
-49.44
-52.94
-54.84
-54.42
-51.30
-45.55
-37.72
-28.63
-19.19
-10.11
-1.88
5.27
11.29
16.22
20.14
23.20
25.51
27.16
28.19
28.59
28.43
27.79
26.88
25.90
25.09
24.60
24.53
24.90
25.63
26.64
27.74
28.70
29.29
29.30
28.62
27.29
25.46
23.41
21.40
19.61
18.05
16.58
14.99
13.08
10.78
8.16
5.35
2.53
-0.15
-2.62
-4.86
-6.89
-8.79
-10.69
-12.73
-15.04
-17.67
-20.54
-23.49
-26.34
-28.99
-31.44
-33.86
-36.50
-39.65
-43.40
-47.56
-51.57
-54.61
-55.81
-54.51
-50.50
-44.05
-35.83
-26.69
-17.40
-8.57
-0.56
6.39
12.16
16.69
20.01
22.22
23.52
24.17
24.42
24.51
24.59
24.70
24.82
24.92
24.96
25.02
25.22
25.67
26.40
27.24
27.95
28.21
27.83
26.79
25.25
23.46
21.66
19.94
18.27
16.55
14.63
12.40
9.84
7.03
4.16
1.40
-1.10
-3.37
-5.55
-7.87
-10.48
-13.38
-16.45
-19.49
-22.36
-25.05
-27.64
-30.25
-33.04
-36.18
-39.86
-44.27
-49.38
-54.78
-59.65
-62.94
-63.68
-61.32
-55.94
-48.14
-38.85
-28.98
-19.23
-10.10
-1.86
5.32
11.34
16.18
19.95
22.82
25.00
26.65
27.86
28.67
29.10
29.23
29.17
29.11
29.25
29.71
30.54
31.66
32.91
34.06
34.88
35.23
35.03
34.26
32.97
31.26
29.26
27.12
24.97
22.92
20.99
19.12
17.20
15.11
12.79
10.30
7.74
5.25
2.86
0.51
-1.95
-4.65
-7.62
-10.77
-13.96
-17.05
-20.02
-22.98
-26.05
-29.44
-33.33
-37.82
-42.90
-48.22
-53.12
-56.67
-57.97
-56.40
-51.90
-45.02
-36.66
-27.77
-19.07
-10.91
-3.36
3.57
9.81
15.18
19.49
22.63
24.72
25.96
26.65
27.01
27.16
27.17
27.07
26.94
26.92
27.09
27.50
28.10
28.72
29.15
29.19
28.70
27.70
26.36
24.90
23.57
22.44
21.36
20.10
18.40
16.16
13.46
10.52
7.61
4.93
2.57
0.54
-1.23
-2.80
-4.30
-5.88
-7.66
-9.74
-12.06
-14.48
-16.85
-19.05
-21.11
-23.22
-25.66
-28.72
-32.59
-37.19
-42.12
-46.66
-49.88
-50.90
-49.12
-44.43
-37.30
-28.60
-19.29
-10.21
-1.87
5.56
12.07
17.69
22.39
26.08
28.67
30.21
30.88
30.96
30.77
30.58
30.53
30.70
31.04
31.45
31.82
32.07
32.21
32.26
32.24
32.14
31.90
31.45
30.77
29.86
28.79
27.62
26.37
24.96
23.31
21.35
19.13
16.78
14.45
12.17
9.80
7.04
3.57
-0.79
-5.94
-11.56
-17.15
-22.31
-26.80
-30.59
-33.78
-36.45
-38.61
-40.26
-41.43
-42.32
-43.31
-44.81
-47.15
-50.36
-54.05
-57.51
-59.83
-60.14
-57.88
-52.99
-45.88
-37.33
-28.22
-19.32
-11.09
-3.70
2.91
8.83
14.16
18.87
22.89
26.10
28.47
30.01
30.89
31.32
31.52
31.65
31.76
31.83
31.83
31.77
31.73
31.79
31.93
31.99
31.71
30.83
29.24
27.01
24.39
21.75
19.43
17.64
16.38
15.42
14.41
13.04
11.14
8.78
6.19
3.68
1.43
-0.57
-2.49
-4.50
-6.71
-9.07
-11.46
-13.75
-15.97
-18.23
-20.66
-23.31
-26.14
-29.09
-32.19
-35.49
-39.08
-42.88
-46.52
-49.36
-50.64
-49.69
-46.25
-40.46
-32.88
-24.25
-15.30
-6.61
1.41
8.48
14.43
19.18
22.75
25.25
26.87
27.80
28.19
28.17
27.86
27.41
26.99
26.77
26.79
27.05
27.44
27.88
28.28
28.57
28.68
28.53
28.07
27.27
26.17
24.79
23.17
21.33
19.28
17.08
14.84
12.66
10.60
8.64
6.74
4.82
2.87
0.91
-1.02
-2.91
-4.77
-6.65
-8.65
-10.86
-13.36
-16.15
-19.07
-21.87
-24.29
-26.21
-27.73
-29.20
-31.04
-33.59
-37.03
-41.22
-45.75
-49.97
-53.04
-54.13
-52.60
-48.27
-41.47
-33.01
-23.86
-14.94
-6.81
0.29
6.38
11.58
15.98
19.61
22.51
24.70
26.24
27.23
27.79
28.03
28.08
28.02
27.89
27.70
27.48
27.35
27.45
27.87
28.59
29.35
29.83
29.71
28.86
27.34
25.39
23.29
21.25
19.38
17.68
16.12
14.62
13.12
11.54
9.83
8.01
6.11
4.18
2.27
0.40
-1.41
-3.16
-4.84
-6.50
-8.25
-10.24
-12.59
-15.31
-18.23
-21.14
-23.83
-26.21
-28.35
-30.45
-32.73
-35.40
-38.52
-41.97
-45.39
-48.21
-49.75
-49.37
-46.70
-41.68
-34.69
-26.41
-17.68
-9.28
-1.75
4.68
9.99
14.30
17.71
20.31
22.15
23.37
24.15
24.71
25.14
25.41
25.41
25.07
24.49
23.96
23.78
24.11
24.84
25.67
26.24
26.35
25.96
25.20
24.24
23.14
21.88
20.41
18.68
16.74
14.73
12.79
11.06
9.58
8.27
6.99
5.60
4.01
2.26
0.47
-1.26
-2.88
-4.45
-6.12
-8.03
-10.26
-12.84
-15.72
-18.78
-21.91
-25.00
-27.93
-30.63
-33.04
-35.23
-37.36
-39.72
-42.63
-46.32
-50.68
-55.18
-58.94
-60.96
-60.45
-57.13
-51.31
-43.68
-35.02
-25.97
-16.91
-8.07
0.29
7.86
14.29
19.41
23.27
26.14
28.33
30.04
31.29
31.95
31.97
31.42
30.61
29.90
29.59
29.80
30.43
31.26
32.11
32.82
33.35
33.66
33.70
33.39
32.69
31.59
30.17
28.48
26.56
24.40
22.02
19.50
16.97
14.60
12.46
10.49
8.52
6.41
4.12
1.76
-0.55
-2.75
-4.99
-7.54
-10.66
-14.45
-18.81
-23.39
-27.85
-31.88
-35.32
-38.19
-40.59
-42.69
-44.73
-47.01
-49.75
-52.99
-56.38
-59.21
-60.57
-59.56
-55.69
-49.02
-40.15
-29.99
-19.50
-9.44
-0.25
7.96
15.19
21.48
26.78
30.96
33.88
35.49
35.85
35.16
33.65
31.61
29.23
26.69
24.21
22.07
20.58
19.97
20.31
21.44
22.98
24.49
25.60
26.13
26.07
25.54
24.65
23.47
21.95
20.03
17.68
14.95
11.92
8.77
5.60
2.53
-0.35
-3.01
-5.45
-7.70
-9.78
-11.72
-13.51
-15.15
-16.66
-18.08
-19.54
-21.14
-23.00
-25.16
-27.54
-29.98
-32.35
-34.59
-36.82
-39.31
-42.40
-46.28
-50.81
-55.48
-59.35
-61.43
-60.89
-57.36
-51.07
-42.67
-33.04
-22.99
-13.13
-3.85
4.57
11.95
18.10
22.97
26.62
29.27
31.18
32.55
33.52
34.13
34.41
34.41
34.24
34.04
33.95
34.09
34.54
35.26
36.13
36.95
37.50
37.62
37.27
36.50
35.42
34.10
32.54
30.68
28.49
26.00
23.34
20.69
18.20
15.93
13.82
11.76
9.64
7.46
5.27
3.18
1.23
-0.65
-2.62
-4.86
-7.51
-10.60
-14.01
-17.55
-21.01
-24.20
-27.08
-29.67
-32.13
-34.66
-37.48
-40.80
-44.73
-49.22
-53.92
-58.19
-61.17
-61.94
-59.83
-54.67
-46.83
-37.17
-26.74
-16.48
-7.07
1.19
8.22
14.05
18.73
22.34
24.98
26.86
28.19
29.14
29.77
30.09
30.04
29.70
29.27
29.07
29.38
30.32
31.74
33.29
34.55
35.22
35.17
34.49
33.31
31.81
30.06
28.14
26.11
24.03
21.95
19.84
17.61
15.14
12.35
9.25
6.02
2.90
0.11
-2.19
-4.04
-5.62
-7.19
-9.02
-11.25
-13.87
-16.73
-19.61
-22.37
-24.96
-27.47
-30.06
-32.89
-36.17
-40.03
-44.56
-49.63
-54.79
-59.25
-61.96
-61.96
-58.64
-52.04
-42.83
-32.10
-21.00
-10.45
-0.99
7.17
14.04
19.72
24.27
27.74
30.19
31.73
32.52
32.74
32.59
32.26
31.89
31.59
31.45
31.49
31.72
32.10
32.61
33.17
33.64
33.82
33.51
32.62
31.19
29.44
27.59
25.81
24.13
22.43
20.55
18.43
16.10
13.70
11.35
9.09
6.88
4.65
2.38
0.14
-1.98
-3.93
-5.82
-7.82
-10.14
-12.84
-15.85
-18.93
-21.83
-24.39
-26.64
-28.78
-31.09
-33.81
-37.10
-41.01
-45.47
-50.28
-55.09
-59.26
-61.96
-62.34
-59.75
-54.04
-45.60
-35.34
-24.37
-13.67
-3.92
4.60
11.85
17.89
22.74
26.35
28.74
30.02
30.42
30.28
29.89
29.47
29.13
28.91
28.83
28.94
29.25
29.71
30.19
30.47
30.33
29.65
28.45
26.86
25.02
23.05
21.02
18.94
16.87
14.82
12.82
10.81
8.67
6.31
3.71
1.01
-1.57
-3.77
-5.47
-6.75
-7.87
-9.12
-10.74
-12.83
-15.28
-17.92
-20.53
-23.01
-25.32
-27.60
-30.02
-32.82
-36.20
-40.27
-44.96
-49.95
-54.64
-58.14
-59.53
-58.04
-53.37
-45.81
-36.12
-25.36
-14.57
-4.50
4.44
12.16
18.70
24.12
28.40
31.48
33.32
34.02
33.85
33.20
32.44
31.87
31.57
31.48
31.51
31.54
31.57
31.61
31.70
31.78
31.74
31.42
30.66
29.40
27.64
25.52
23.22
20.94
18.77
16.73
14.72
12.61
10.31
7.85
5.32
2.84
0.52
-1.58
-3.53
-5.40
-7.36
-9.55
-12.06
-14.93
-18.07
-21.33
-24.54
-27.56
-30.36
-33.02
-35.69
-38.64
-42.13
-46.35
-51.25
-56.39
-60.97
-63.95
-64.39
-61.75
-56.02
-47.77
-37.86
-27.24
-16.72
-6.87
1.99
9.71
16.24
21.62
25.89
29.09
31.26
32.42
32.70
32.27
31.41
30.32
29.14
27.91
26.65
25.42
24.36
23.61
23.23
23.17
23.28
23.45
23.67
24.10
24.91
26.16
27.71
29.21
30.25
30.49
29.81
28.33
26.32
24.06
21.74
19.45
17.13
14.69
12.03
9.09
5.85
2.30
-1.55
-5.66
-9.92
-14.15
-18.12
-21.67
-24.76
-27.54
-30.31
-33.43
-37.21
-41.74
-46.80
-51.79
-55.83
-57.94
-57.32
-53.64
-47.16
-38.63
-29.03
-19.29
-10.07
-1.76
5.45
11.40
15.94
19.00
20.68
21.28
21.25
21.00
20.76
20.62
20.50
20.32
20.08
19.86
19.79
19.96
20.39
21.01
21.66
22.15
22.26
21.81
20.72
19.03
16.90
14.60
12.34
10.24
8.28
6.34
4.30
2.12
-0.11
-2.31
-4.40
-6.43
-8.47
-10.65
-12.99
-15.49
-18.06
-20.60
-23.03
-25.27
-27.30
-29.20
-31.14
-33.40
-36.27
-39.99
-44.62
-49.88
-55.15
-59.53
-61.99
-61.72
-58.30
-51.92
-43.31
-33.49
-23.40
-13.71
-4.73
3.46
10.86
17.36
22.83
27.16
30.39
32.73
34.41
35.66
36.54
37.07
37.24
37.11
36.86
36.73
36.87
37.34
38.04
38.72
39.13
39.06
38.41
37.22
35.62
33.80
31.92
30.11
28.37
26.67
24.89
22.90
20.61
17.99
15.19
12.44
9.96
7.91
6.28
4.94
3.68
2.30
0.62
-1.45
-3.99
-6.96
-10.20
-13.47
-16.52
-19.16
-21.45
-23.67
-26.27
-29.66
-34.08
-39.41
-45.19
-50.60
-54.70
-56.57
-55.63
-51.74
-45.28
-36.96
-27.60
-17.98
-8.62
0.10
7.95
14.74
20.35
24.69
27.82
29.88
31.10
31.73
32.01
32.13
32.18
32.15
31.95
31.57
31.08
30.71
30.72
31.23
32.15
33.15
33.81
33.80
32.99
31.45
29.33
26.76
23.81
20.55
17.08
13.59
10.26
7.21
4.46
1.93
-0.45
-2.77
-5.06
-7.34
-9.67
-12.08
-14.58
-17.14
-19.64
-21.95
-23.97
-25.67
-27.14
-28.56
-30.19
-32.31
-35.13
-38.73
-42.91
-47.12
-50.52
-52.18
-51.32
-47.60
-41.24
-32.95
-23.66
-14.31
-5.53
2.31
9.08
14.72
19.14
22.31
24.23
25.09
25.19
24.86
24.39
23.97
23.65
23.44
23.35
23.40
23.58
23.92
24.36
24.87
25.35
25.72
25.81
25.45
24.49
22.91
20.81
18.45
16.06
13.83
11.73
9.65
7.42
4.95
2.24
-0.56
-3.30
-5.84
-8.16
-10.32
-12.45
-14.74
-17.28
-20.06
-22.93
-25.71
-28.22
-30.42
-32.47
-34.67
-37.36
-40.80
-45.04
-49.78
-54.46
-58.24
-60.29
-59.94
-56.91
-51.33
-43.72
-34.76
-25.18
-15.59
-6.48
1.78
8.91
14.78
19.34
22.65
24.84
26.10
26.62
26.65
26.40
26.05
25.69
25.33
24.97
24.69
24.70
25.18
26.24
27.75
29.41
30.85
31.78
32.11
31.92
31.32
30.43
29.26
27.76
25.82
23.38
20.45
17.18
13.78
10.55
7.71
5.33
3.32
1.44
-0.60
-3.02
-5.94
-9.34
-13.13
-17.09
-20.97
-24.51
-27.51
-29.96
-32.06
-34.19
-36.80
-40.24
-44.60
-49.58
-54.49
-58.35
-60.16
-59.18
-55.17
-48.51
-40.03
-30.79
-21.71
-13.37
-6.00
0.47
6.18
11.28
15.83
19.86
23.35
26.26
28.56
30.23
31.31
31.90
32.15
32.19
32.19
32.30
32.63
33.23
34.03
34.90
35.57
35.84
35.55
34.74
33.53
32.07
30.43
28.59
26.48
24.02
21.21
18.11
14.82
11.43
7.93
4.31
0.48
-3.60
-7.86
-12.14
-16.22
-19.82
-22.80
-25.13
-27.00
-28.75
-30.78
-33.47
-37.12
-41.83
-47.45
-53.44
-58.96
-62.96
-64.49
-62.96
-58.35
-51.16
-42.27
-32.59
-22.92
-13.73
-5.30
2.25
8.83
14.39
18.90
22.37
24.89
26.55
27.52
27.99
28.14
28.12
28.11
28.22
28.56
29.22
30.23
31.52
32.89
34.09
34.86
35.06
34.61
33.58
32.01
30.00
27.61
24.94
22.14
19.34
16.65
14.11
11.69
9.33
7.01
4.72
2.48
0.30
-1.89
-4.19
-6.71
-9.55
-12.68
-16.01
-19.30
-22.34
-25.02
-27.40
-29.75
-32.45
-35.85
-40.13
-45.21
-50.64
-55.67
-59.37
-60.80
-59.35
-54.87
-47.77
-38.92
-29.27
-19.64
-10.49
-2.00
5.75
12.68
18.59
23.27
26.59
28.57
29.37
29.27
28.58
27.64
26.80
26.36
26.50
27.25
28.46
29.87
31.23
32.33
33.03
33.24
32.90
32.00
30.62
28.89
26.95
24.90
22.77
20.55
18.22
15.81
13.39
11.00
8.67
6.41
4.21
2.10
0.07
-1.93
-4.02
-6.36
-9.02
-11.98
-15.05
-17.98
-20.55
-22.71
-24.61
-26.51
-28.71
-31.47
-34.87
-38.80
-42.96
-46.84
-49.79
-51.12
-50.27
-46.94
-41.17
-33.38
-24.26
-14.66
-5.36
3.04
10.18
15.95
20.35
23.44
25.28
25.94
25.63
24.64
23.40
22.30
21.62
21.40
21.50
21.72
21.90
22.04
22.26
22.71
23.40
24.22
24.85
24.96
24.31
22.91
20.99
18.91
17.00
15.36
13.89
12.28
10.27
7.74
4.84
1.85
-0.90
-3.18
-4.95
-6.31
-7.49
-8.77
-10.35
-12.34
-14.71
-17.28
-19.83
-22.15
-24.20
-26.17
-28.41
-31.33
-35.14
-39.64
-44.10
-47.41
-48.33
-45.86
-39.53
-29.65
-17.24
-3.85
8.78
19.11
26.12
29.55
29.85
28.00
25.19
22.38
20.15
18.59
17.51
16.64
15.84
15.19
14.85
15.02
15.81
17.10
18.63
20.03
20.92
21.05
20.35
18.97
17.19
15.29
13.43
11.68
10.00
8.41
7.00
5.96
5.42
5.32
5.37
5.14
4.25
2.56
0.26
-2.24
-4.52
-6.33
-7.69
-8.85
-10.11
-11.65
-13.50
-15.53
-17.57
-19.55
-21.53
-23.67
-26.20
-29.33
-33.32
-38.38
-44.67
-52.13
-60.34
-68.43
-75.16
-79.24
-79.69
-76.19
-69.11
-59.38
-48.12
-36.35
-24.78
-13.89
-4.00
4.67
11.93
17.71
22.11
25.34
27.69
29.43
30.74
31.75
32.57
33.30
34.04
34.87
35.81
36.82
37.82
38.71
39.37
39.74
39.77
39.44
38.74
37.66
36.15
34.23
31.94
29.39
26.76
24.25
22.01
20.15
18.63
17.30
15.96
14.36
12.34
9.85
7.00
3.98
1.00
-1.80
-4.40
-6.86
-9.30
-11.85
-14.57
-17.47
-20.51
-23.58
-26.61
-29.60
-32.67
-36.06
-40.02
-44.70
-49.90
-55.05
-59.24
-61.44
-60.86
-57.16
-50.54
-41.71
-31.61
-21.18
-11.16
-2.02
5.95
12.61
17.86
21.65
24.03
25.22
25.56
25.40
25.01
24.50
23.88
23.13
22.33
21.66
21.41
21.76
22.73
24.11
25.57
26.74
27.39
27.42
26.85
25.82
24.49
23.03
21.56
20.12
18.64
16.97
15.01
12.77
10.42
8.22
6.35
4.83
3.55
2.30
0.97
-0.44
-1.82
-3.06
-4.19
-5.40
-6.93
-8.95
-11.47
-14.30
-17.18
-19.86
-22.28
-24.56
-26.91
-29.59
-32.75
-36.48
-40.76
-45.47
-50.34
-54.83
-58.17
-59.48
-58.02
-53.52
-46.22
-36.90
-26.54
-16.08
-6.17
2.80
10.65
17.28
22.64
26.71
29.61
31.55
32.81
33.63
34.20
34.59
34.80
34.85
34.79
34.75
34.90
35.36
36.18
37.25
38.35
39.22
39.59
39.26
38.17
36.33
33.92
31.22
28.55
26.20
24.27
22.68
21.13
19.29
16.92
13.92
10.39
6.55
2.64
-1.15
-4.64
-7.74
-10.41
-12.70
-14.72
-16.63
-18.58
-20.69
-22.96
-25.35
-27.78
-30.16
-32.48
-34.80
-37.31
-40.26
-43.87
-48.22
-53.01
-57.56
-60.86
-61.85
-59.76
-54.38
-46.13
-35.92
-24.88
-13.98
-3.92
4.92
12.35
18.29
22.70
25.62
27.26
27.89
27.88
27.57
27.18
26.84
26.58
26.38
26.20
26.05
26.00
26.18
26.73
27.69
28.91
30.10
30.84
30.84
29.99
28.44
26.50
24.46
22.52
20.70
18.93
17.07
15.06
12.88
10.55
8.13
5.64
3.12
0.62
-1.81
-4.12
-6.28
-8.33
-10.35
-12.43
-14.68
-17.14
-19.79
-22.56
-25.36
-28.05
-30.56
-32.94
-35.31
-37.95
-41.16
-45.15
-49.91
-55.09
-59.95
-63.55
-64.93
-63.42
-58.84
-51.51
-42.17
-31.70
-20.97
-10.61
-1.05
7.44
14.66
20.47
24.82
27.81
29.66
30.64
31.05
31.10
30.93
30.65
30.38
30.24
30.35
30.75
31.41
32.21
32.98
33.59
33.90
33.84
33.39
32.54
31.34
29.85
28.14
26.32
24.41
22.45
20.41
18.25
15.93
13.41
10.68
7.79
4.82
1.92
-0.81
-3.30
-5.60
-7.87
-10.31
-13.10
-16.31
-19.80
-23.33
-26.59
-29.37
-31.67
-33.71
-35.83
-38.45
-41.86
-46.13
-51.03
-55.93
-59.96
-62.12
-61.56
-57.88
-51.32
-42.61
-32.79
-22.81
-13.29
-4.56
3.28
10.10
15.75
20.03
22.90
24.47
25.06
25.01
24.63
24.12
23.62
23.19
22.89
22.77
22.90
23.28
23.91
24.75
25.65
26.45
26.94
26.92
26.30
25.06
23.30
21.18
18.95
16.83
15.01
13.53
12.22
10.83
9.08
6.83
4.23
1.59
-0.74
-2.56
-3.94
-5.17
-6.57
-8.39
-10.68
-13.37
-16.30
-19.37
-22.46
-25.51
-28.49
-31.43
-34.48
-37.94
-42.04
-46.79
-51.71
-55.93
-58.29
-57.81
-53.99
-47.00
-37.57
-26.71
-15.41
-4.43
5.74
14.85
22.74
29.31
34.48
38.22
40.57
41.69
41.82
41.24
40.24
39.05
37.82
36.63
35.50
34.49
33.69
33.19
33.05
33.21
33.48
33.54
33.14
32.11
30.48
28.38
26.01
23.51
20.95
18.27
15.38
12.12
8.39
4.15
-0.55
-5.48
-10.30
-14.69
-18.43
-21.53
-24.22
-26.88
-29.78
-33.03
-36.52
-39.97
-43.09
-45.75
-47.98
-50.04
-52.30
-55.18
-58.98
-63.76
-69.18
-74.45
-78.43
-79.86
-77.70
-71.50
-61.51
-48.70
-34.46
-20.21
-7.11
4.22
13.56
21.01
26.71
30.81
33.42
34.73
35.01
34.66
34.08
33.55
33.26
33.22
33.42
33.82
34.39
35.08
35.85
36.64
37.37
37.97
38.33
38.27
37.66
36.38
34.50
32.18
29.69
27.21
24.79
22.28
19.48
16.27
12.68
8.95
5.37
2.16
-0.65
-3.22
-5.83
-8.79
-12.24
-16.11
-20.11
-23.87
-27.07
-29.59
-31.60
-33.55
-35.99
-39.44
-44.17
-50.07
-56.49
-62.40
-66.48
-67.56
-64.86
-58.30
-48.48
-36.46
-23.44
-10.49
1.65
12.56
22.05
30.04
36.53
41.60
45.41
48.15
49.98
51.00
51.22
50.68
49.54
48.09
46.76
45.97
45.98
46.79
48.11
49.44
50.26
50.22
49.19
47.33
44.90
42.20
39.43
36.67
33.92
31.13
28.26
25.22
21.94
18.38
14.60
10.76
7.06
3.71
0.73
-2.03
-4.86
-8.05
-11.75
-15.87
-20.14
-24.22
-27.85
-30.95
-33.71
-36.46
-39.64
-43.63
-48.56
-54.17
-59.72
-64.13
-66.19
-64.95
-60.00
-51.63
-40.72
-28.45
-15.99
-4.27
6.17
15.08
22.36
28.01
32.01
34.43
35.40
35.20
34.17
32.63
30.88
29.06
27.22
25.40
23.65
22.08
20.82
19.94
19.34
18.70
17.56
15.46
12.17
7.83
2.94
-1.81
-5.81
-8.84
-11.10
-13.07
-15.24
-17.86
-20.90
-24.10
-27.18
-30.00
-32.51
-34.66
-36.38
-37.51
-37.95
-37.74
-37.14
-36.49
-36.17
-36.40
-37.28
-38.83
-41.12
-44.30
-48.61
-54.19
-60.86
-67.97
-74.37
-78.61
-79.35
-75.81
-68.01
-56.84
-43.65
-29.88
-16.60
-4.41
6.55
16.33
24.95
32.35
38.39
42.94
46.05
47.88
48.76
49.01
48.85
48.43
47.76
46.87
45.79
44.68
43.78
43.29
43.30
43.73
44.32
44.72
44.63
43.84
42.33
40.26
37.93
35.62
33.50
31.52
29.47
27.09
24.26
21.06
17.75
14.63
11.91
9.60
7.56
5.53
3.30
0.74
-2.21
-5.49
-8.99
-12.53
-15.92
-19.04
-21.89
-24.63
-27.57
-31.01
-35.15
-39.93
-44.98
-49.58
-52.83
-53.80
-51.87
-46.91
-39.34
-30.00
-19.88
-9.83
-0.42
8.07
15.51
21.80
26.85
30.59
33.09
34.56
35.30
35.59
35.63
35.52
35.32
35.07
34.84
34.69
34.68
34.88
35.33
36.05
36.99
38.02
38.95
39.55
39.65
39.19
38.23
36.88
35.27
33.53
31.78
30.13
28.64
27.34
26.14
24.83
23.14
20.88
17.96
14.46
10.59
6.55
2.50
-1.47
-5.26
-8.78
-11.85
-14.38
-16.34
-17.89
-19.32
-20.94
-22.90
-25.13
-27.35
-29.19
-30.34
-30.59
-29.86
-28.12
-25.42
-21.84
-17.57
-12.87
-8.06
-3.39
0.98
4.96
8.54
11.66
14.24
16.18
17.49
18.26
18.64
18.78
18.68
18.23
17.25
15.65
13.50
11.06
8.66
6.60
5.00
3.89
3.14
2.63
2.33
2.24
2.38
2.70
3.05
3.28
3.22
2.82
2.11
1.19
0.13
-1.00
-2.15
-3.30
-4.44
-5.54
-6.66
-7.90
-9.42
-11.33
-13.70
-16.41
-19.28
-22.02
-24.42
-26.40
-28.01
-29.43
-30.90
-32.68
-35.02
-38.08
-41.86
-46.09
-50.19
-53.31
-54.58
-53.33
-49.41
-43.22
-35.61
-27.56
-19.90
-13.15
-7.52
-3.02
0.38
2.79
4.35
5.34
6.14
7.11
8.45
10.15
11.99
13.68
15.02
15.97
16.65
17.27
18.02
19.01
20.25
21.61
22.93
24.01
24.65
24.71
24.18
23.07
21.51
19.67
17.69
15.72
13.86
12.14
10.59
9.20
7.90
6.65
5.34
3.90
2.24
0.32
-1.84
-4.15
-6.48
-8.71
-10.78
-12.69
-14.53
-16.46
-18.65
-21.28
-24.45
-28.05
-31.77
-35.02
-37.09
-37.36
-35.45
-31.39
-25.64
-18.86
-11.79
-5.03
1.03
6.22
10.50
13.91
16.49
18.27
19.28
19.57
19.27
18.56
17.70
16.92
16.37
16.13
16.15
16.38
16.73
17.14
17.53
17.82
17.92
17.73
17.20
16.32
15.13
13.65
11.95
10.10
8.15
6.15
4.12
2.03
-0.15
-2.41
-4.71
-6.99
-9.22
-11.45
-13.74
-16.13
-18.61
-21.03
-23.22
-25.10
-26.69
-28.22
-29.98
-32.29
-35.35
-39.13
-43.38
-47.54
-50.88
-52.62
-52.12
-49.10
-43.65
-36.28
-27.73
-18.78
-10.10
-2.17
4.79
10.67
15.52
19.41
22.47
24.81
26.55
27.78
28.58
29.02
29.18
29.16
29.06
29.02
29.11
29.37
29.72
30.03
30.16
30.01
29.55
28.81
27.84
26.67
25.32
23.77
22.01
20.04
17.87
15.50
12.97
10.32
7.64
5.04
2.64
0.44
-1.64
-3.77
-6.09
-8.65
-11.35
-14.01
-16.44
-18.62
-20.67
-22.86
-25.49
-28.74
-32.53
-36.49
-40.05
-42.51
-43.25
-41.86
-38.28
-32.77
-25.92
-18.48
-11.16
-4.50
1.23
6.03
10.04
13.45
16.33
18.64
20.29
21.21
21.50
21.35
21.02
20.73
20.57
20.53
20.56
20.65
20.84
21.20
21.72
22.26
22.58
22.41
21.58
20.11
18.17
16.07
14.07
12.31
10.70
9.02
6.98
4.39
1.26
-2.18
-5.59
-8.64
-11.17
-13.24
-15.05
-16.90
-19.04
-21.66
-24.80
-28.36
-32.05
-35.39
-37.76
-38.55
-37.34
-34.04
-28.97
-22.73
-16.03
-9.45
-3.36
2.12
7.05
11.47
15.39
18.74
21.41
23.33
24.51
25.04
25.03
24.61
23.92
23.12
22.36
21.78
21.45
21.35
21.36
21.31
21.09
20.63
19.99
19.24
18.46
17.66
16.79
15.79
14.59
13.16
11.51
9.70
7.77
5.82
3.92
2.10
0.34
-1.41
-3.24
-5.25
-7.42
-9.69
-11.93
-14.01
-15.89
-17.61
-19.32
-21.23
-23.48
-26.16
-29.16
-32.17
-34.68
-36.13
-36.06
-34.24
-30.78
-26.11
-20.74
-15.21
-9.87
-4.94
-0.54
3.22
6.26
8.56
10.21
11.40
12.35
13.23
14.07
14.78
15.20
15.23
14.85
14.17
13.36
12.62
12.11
11.94
12.08
12.46
12.91
13.25
13.33
13.07
12.44
11.45
10.18
8.75
7.34
6.11
5.11
4.31
3.55
2.66
1.51
0.11
-1.48
-3.18
-4.95
-6.80
-8.69
-10.54
-12.22
-13.62
-14.75
-15.75
-16.87
-18.35
-20.38
-22.98
-26.03
-29.27
-32.28
-34.55
-35.61
-35.12
-32.96
-29.34
-24.62
-19.31
-13.87
-8.65
-3.92
0.19
3.64
6.46
8.71
10.50
11.88
12.88
13.50
13.77
13.75
13.54
13.30
13.12
13.09
13.24
13.59
14.10
14.71
15.31
15.81
16.12
16.17
15.97
15.51
14.84
13.97
12.93
11.74
10.46
9.17
7.95
6.83
5.83
4.88
3.90
2.82
1.62
0.33
-0.99
-2.24
-3.37
-4.42
-5.48
-6.72
-8.28
-10.24
-12.53
-14.95
-17.23
-19.15
-20.66
-21.89
-23.12
-24.65
-26.71
-29.39
-32.63
-36.24
-39.91
-43.17
-45.46
-46.24
-45.13
-42.06
-37.34
-31.49
-25.17
-18.89
-13.00
-7.66
-2.91
1.25
4.84
7.89
10.44
12.50
14.06
15.13
15.77
16.14
16.39
16.67
17.05
17.51
17.99
18.47
18.95
19.44
19.90
20.23
20.34
20.15
19.71
19.10
18.42
17.72
16.96
16.09
15.04
13.82
12.44
10.96
9.43
7.89
6.33
4.76
3.18
1.61
0.09
-1.36
-2.79
-4.27
-5.90
-7.75
-9.80
-11.98
-14.20
-16.37
-18.44
-20.40
-22.25
-24.04
-25.87
-27.94
-30.50
-33.72
-37.59
-41.84
-45.91
-49.12
-50.79
-50.44
-47.88
-43.23
-36.90
-29.47
-21.61
-13.90
-6.79
-0.53
4.86
9.44
13.29
16.42
18.80
20.35
21.13
21.27
21.05
20.78
20.69
20.89
21.38
22.12
23.05
24.08
25.13
26.05
26.70
26.98
26.85
26.40
25.75
25.01
24.22
23.39
22.51
21.59
20.65
19.69
18.62
17.27
15.53
13.42
11.08
8.79
6.79
5.11
3.62
2.06
0.23
-1.92
-4.24
-6.56
-8.78
-10.95
-13.23
-15.72
-18.42
-21.18
-23.82
-26.29
-28.72
-31.41
-34.66
-38.65
-43.25
-48.03
-52.26
-55.08
-55.77
-53.87
-49.35
-42.59
-34.26
-25.14
-15.94
-7.21
0.68
7.54
13.29
17.94
21.53
24.18
26.00
27.14
27.74
27.93
27.82
27.49
27.05
26.59
26.20
26.03
26.17
26.68
27.50
28.44
29.23
29.56
29.24
28.26
26.79
25.10
23.48
22.10
20.96
19.94
18.84
17.52
15.87
13.85
11.46
8.76
5.91
3.13
0.68
-1.30
-2.91
-4.39
-6.09
-8.27
-10.97
-14.03
-17.17
-20.14
-22.83
-25.34
-27.87
-30.69
-34.01
-37.89
-42.12
-46.24
-49.57
-51.37
-51.03
-48.19
-42.87
-35.41
-26.44
-16.71
-6.97
2.16
10.24
17.03
22.49
26.67
29.68
31.65
32.71
33.02
32.77
32.15
31.31
30.39
29.50
28.76
28.30
28.20
28.49
29.06
29.75
30.37
30.76
30.81
30.48
29.73
28.58
27.07
25.25
23.23
21.07
18.82
16.49
14.04
11.46
8.76
6.04
3.39
0.94
-1.25
-3.23
-5.12
-7.13
-9.43
-12.13
-15.21
-18.49
-21.74
-24.74
-27.41
-29.82
-32.24
-35.03
-38.49
-42.74
-47.57
-52.42
-56.45
-58.71
-58.43
-55.25
-49.28
-41.10
-31.49
-21.31
-11.21
-1.69
6.94
14.45
20.63
25.31
28.51
30.34
31.14
31.27
31.09
30.77
30.34
29.72
28.85
27.81
26.79
26.08
25.88
26.29
27.13
28.08
28.74
28.79
28.09
26.68
24.78
22.67
20.55
18.55
16.63
14.70
12.62
10.30
7.73
5.02
2.28
-0.40
-3.00
-5.62
-8.34
-11.18
-14.09
-16.89
-19.44
-21.67
-23.66
-25.62
-27.84
-30.63
-34.21
-38.64
-43.75
-49.00
-53.55
-56.36
-56.52
-53.46
-47.25
-38.48
-28.15
-17.34
-6.90
2.61
10.98
18.18
24.23
29.06
32.58
34.67
35.37
34.89
33.61
31.96
30.34
28.99
28.01
27.41
27.19
27.33
27.76
28.36
28.88
29.08
28.76
27.84
26.41
24.70
22.92
21.22
19.63
18.00
16.12
13.80
10.97
7.71
4.22
0.73
-2.61
-5.77
-8.88
-12.09
-15.49
-19.12
-22.82
-26.41
-29.68
-32.53
-35.00
-37.35
-39.93
-43.15
-47.28
-52.25
-57.60
-62.43
-65.65
-66.22
-63.48
-57.32
-48.21
-37.04
-24.88
-12.73
-1.35
8.77
17.39
24.43
29.93
33.97
36.70
38.29
38.92
38.75
37.97
36.77
35.36
34.00
32.90
32.24
32.12
32.48
33.19
33.98
34.55
34.60
33.96
32.64
30.79
28.69
26.57
24.55
22.57
20.49
18.11
15.35
12.22
8.84
5.33
1.85
-1.53
-4.79
-7.96
-11.13
-14.35
-17.65
-20.96
-24.19
-27.29
-30.33
-33.48
-36.99
-41.08
-45.81
-50.99
-56.18
-60.68
-63.59
-64.05
-61.41
-55.49
-46.68
-35.83
-24.05
-12.40
-1.66
7.71
15.55
21.88
26.79
30.39
32.87
34.38
35.09
35.17
34.75
34.02
33.18
32.42
31.90
31.67
31.70
31.89
32.12
32.25
32.17
31.78
31.00
29.82
28.26
26.40
24.32
22.06
19.64
17.07
14.31
11.36
8.22
4.90
1.46
-2.01
-5.42
-8.74
-11.94
-15.08
-18.20
-21.31
-24.34
-27.23
-29.98
-32.76
-35.88
-39.67
-44.29
-49.58
-54.96
-59.47
-62.02
-61.68
-57.96
-50.98
-41.38
-30.22
-18.57
-7.35
2.84
11.73
19.22
25.29
29.93
33.15
35.01
35.70
35.51
34.74
33.70
32.64
31.77
31.25
31.14
31.44
32.05
32.79
33.45
33.79
33.62
32.82
31.42
29.57
27.48
25.35
23.28
21.24
19.08
16.65
13.85
10.73
7.43
4.15
1.04
-1.81
-4.47
-7.05
-9.67
-12.42
-15.31
-18.23
-21.07
-23.79
-26.46
-29.25
-32.36
-35.97
-40.18
-44.95
-50.06
-55.04
-59.16
-61.53
-61.28
-57.86
-51.28
-42.15
-31.48
-20.40
-9.81
-0.21
8.23
15.54
21.72
26.68
30.31
32.59
33.61
33.69
33.22
32.56
31.97
31.59
31.44
31.50
31.74
32.10
32.49
32.79
32.92
32.83
32.52
32.01
31.27
30.27
28.91
27.19
25.18
22.99
20.74
18.43
15.97
13.21
10.09
6.70
3.26
0.06
-2.72
-5.10
-7.28
-9.56
-12.15
-15.11
-18.32
-21.56
-24.64
-27.45
-30.01
-32.41
-34.85
-37.60
-40.94
-45.05
-49.84
-54.79
-58.94
-61.18
-60.55
-56.60
-49.56
-40.23
-29.71
-19.02
-8.96
0.05
7.82
14.26
19.36
23.10
25.55
26.87
27.31
27.19
26.79
26.32
25.88
25.56
25.39
25.43
25.74
26.38
27.31
28.38
29.38
30.05
30.18
29.67
28.53
26.90
25.00
22.99
20.98
18.97
16.88
14.61
12.09
9.35
6.50
3.68
1.07
-1.27
-3.35
-5.31
-7.36
-9.67
-12.33
-15.29
-18.42
-21.49
-24.33
-26.87
-29.17
-31.45
-34.05
-37.28
-41.33
-46.02
-50.79
-54.69
-56.68
-55.89
-52.00
-45.27
-36.50
-26.73
-16.91
-7.73
0.46
7.56
13.54
18.36
22.03
24.60
26.22
27.16
27.69
27.96
28.05
27.97
27.71
27.41
27.24
27.37
27.89
28.71
29.60
30.30
30.60
30.39
29.64
28.40
26.72
24.70
22.48
20.19
17.97
15.86
13.86
11.89
9.86
7.71
5.46
3.15
0.86
-1.34
-3.42
-5.39
-7.33
-9.38
-11.68
-14.33
-17.28
-20.37
-23.33
-25.98
-28.28
-30.38
-32.57
-35.18
-38.45
-42.46
-47.05
-51.78
-55.96
-58.71
-59.18
-56.80
-51.46
-43.60
-34.07
-23.91
-14.05
-5.11
2.60
9.02
14.21
18.29
21.33
23.44
24.73
25.36
25.52
25.40
25.23
25.16
25.29
25.61
26.00
26.37
26.64
26.82
26.97
27.13
27.27
27.32
27.16
26.67
25.82
24.61
23.11
21.43
19.65
17.83
15.98
14.05
11.97
9.69
7.25
4.80
2.50
0.48
-1.27
-2.89
-4.61
-6.63
-9.00
-11.66
-14.44
-17.20
-19.80
-22.18
-24.35
-26.35
-28.33
-30.49
-33.09
-36.30
-40.13
-44.25
-48.01
-50.57
-51.08
-48.96
-44.09
-36.84
-28.00
-18.51
-9.23
-0.78
6.51
12.52
17.29
20.84
23.27
24.69
25.31
25.36
25.13
24.82
24.60
24.55
24.68
24.95
25.31
25.68
26.03
26.33
26.57
26.73
26.75
26.55
26.08
25.27
24.12
22.65
20.89
18.93
16.84
14.71
12.58
10.44
8.24
5.94
3.57
1.18
-1.15
-3.42
-5.65
-8.00
-10.55
-13.37
-16.39
-19.48
-22.51
-25.40
-28.11
-30.66
-33.14
-35.67
-38.48
-41.83
-45.88
-50.53
-55.29
-59.36
-61.76
-61.68
-58.68
-52.88
-44.87
-35.50
-25.63
-15.96
-6.90
1.37
8.76
15.22
20.71
25.17
28.60
31.05
32.64
33.52
33.88
33.90
33.75
33.52
33.33
33.19
33.14
33.19
33.34
33.57
33.83
33.97
33.83
33.21
31.98
30.12
27.78
25.21
22.66
20.31
18.23
16.31
14.39
12.31
9.99
7.45
4.81
2.23
-0.16
-2.35
-4.45
-6.68
-9.29
-12.38
-15.91
-19.60
-23.13
-26.24
-28.83
-31.05
-33.17
-35.55
-38.47
-42.15
-46.57
-51.48
-56.29
-60.14
-62.07
-61.29
-57.43
-50.68
-41.74
-31.61
-21.26
-11.47
-2.65
5.07
11.71
17.33
21.97
25.62
28.26
29.94
30.81
31.09
31.02
30.79
30.51
30.23
30.02
29.98
30.23
30.83
31.75
32.84
33.83
34.42
34.38
33.60
32.13
30.18
27.97
25.71
23.46
21.20
18.79
16.16
13.29
10.27
7.24
4.34
1.64
-0.87
-3.31
-5.79
-8.45
-11.35
-14.48
-17.72
-20.89
-23.82
-26.38
-28.61
-30.65
-32.77
-35.27
-38.43
-42.42
-47.17
-52.27
-56.92
-60.12
-60.85
-58.48
-52.94
-44.78
-34.95
-24.51
-14.31
-4.84
3.72
11.36
18.11
23.86
28.48
31.86
34.04
35.24
35.83
36.15
36.41
36.68
36.86
36.85
36.67
36.41
36.19
36.06
35.93
35.65
35.08
34.19
33.06
31.81
30.48
29.09
27.56
25.83
23.85
21.66
19.27
16.72
14.06
11.34
8.62
5.95
3.34
0.76
-1.79
-4.31
-6.76
-9.10
-11.37
-13.62
-15.96
-18.44
-21.04
-23.67
-26.23
-28.70
-31.14
-33.71
-36.61
-40.03
-44.06
-48.59
-53.29
-57.53
-60.49
-61.34
-59.44
-54.60
-47.12
-37.80
-27.63
-17.59
-8.36
-0.31
6.48
12.07
16.54
20.00
22.58
24.44
25.78
26.77
27.52
28.09
28.45
28.60
28.60
28.55
28.58
28.83
29.33
30.03
30.79
31.40
31.60
31.24
30.29
28.86
27.17
25.42
23.73
22.05
20.25
18.15
15.68
12.88
9.92
7.01
4.29
1.86
-0.32
-2.34
-4.34
-6.45
-8.78
-11.35
-14.07
-16.80
-19.39
-21.73
-23.86
-25.89
-28.02
-30.51
-33.56
-37.27
-41.58
-46.11
-50.23
-53.07
-53.81
-51.90
-47.27
-40.32
-31.84
-22.71
-13.68
-5.26
2.27
8.80
14.33
18.87
22.47
25.22
27.22
28.58
29.40
29.76
29.76
29.55
29.29
29.14
29.24
29.63
30.26
31.03
31.80
32.38
32.63
32.41
31.63
30.34
28.63
26.74
24.83
23.03
21.31
19.53
17.58
15.40
13.06
10.69
8.45
6.38
4.47
2.63
0.79
-1.08
-2.98
-4.86
-6.73
-8.61
-10.60
-12.82
-15.34
-18.14
-21.15
-24.20
-27.11
-29.73
-32.05
-34.24
-36.59
-39.45
-43.11
-47.55
-52.41
-56.93
-60.19
-61.30
-59.76
-55.59
-49.31
-41.74
-33.70
-25.82
-18.48
-11.82
-5.91
-0.79
3.48
6.92
9.63
11.79
13.60
15.18
16.56
17.69
18.54
19.06
19.32
19.46
19.64
20.01
20.66
21.59
22.66
23.64
24.24
24.20
23.41
21.99
20.21
18.45
16.96
15.86
15.02
14.23
13.28
12.09
10.65
9.06
7.40
5.75
4.13
2.61
1.19
-0.13
-1.43
-2.85
-4.55
-6.57
-8.83
-11.12
-13.21
-15.04
-16.70
-18.48
-20.71
-23.60
-27.17
-31.19
-35.25
-38.84
-41.39
-42.35
-41.32
-38.14
-32.96
-26.24
-18.66
-10.93
-3.60
2.99
8.69
13.44
17.20
19.92
21.60
22.33
22.28
21.78
21.14
20.63
20.42
20.56
20.97
21.53
22.08
22.50
22.72
22.70
22.44
22.00
21.42
20.77
20.10
19.41
18.65
17.73
16.58
15.20
13.65
11.99
10.27
8.48
6.55
4.54
2.57
0.79
-0.72
-2.03
-3.39
-5.10
-7.34
-10.08
-13.13
-16.20
-19.10
-21.70
-23.97
-25.94
-27.70
-29.37
-31.18
-33.47
-36.49
-40.32
-44.70
-49.00
-52.39
-53.98
-53.20
-49.86
-44.30
-37.18
-29.30
-21.31
-13.63
-6.42
0.24
6.25
11.45
15.68
18.85
21.07
22.55
23.55
24.25
24.71
24.91
24.84
24.59
24.35
24.31
24.63
25.32
26.23
27.16
27.91
28.37
28.45
28.15
27.45
26.35
24.90
23.22
21.45
19.75
18.12
16.46
14.59
12.36
9.73
6.84
3.91
1.13
-1.40
-3.74
-5.98
-8.26
-10.64
-13.13
-15.70
-18.26
-20.75
-23.14
-25.50
-27.96
-30.71
-33.90
-37.53
-41.35
-44.90
-47.53
-48.63
-47.75
-44.72
-39.65
-32.89
-24.98
-16.49
-8.00
-0.01
7.06
12.93
17.48
20.74
22.85
24.06
24.61
24.71
24.52
24.18
23.79
23.46
23.29
23.30
23.46
23.73
24.08
24.48
24.94
25.39
25.67
25.60
25.03
23.96
22.49
20.81
19.05
17.24
15.28
13.03
10.44
7.58
4.63
1.80
-0.80
-3.16
-5.38
-7.61
-10.01
-12.64
-15.51
-18.52
-21.53
-24.37
-26.98
-29.47
-32.11
-35.21
-39.09
-43.78
-49.02
-54.17
-58.35
-60.65
-60.38
-57.21
-51.31
-43.24
-33.77
-23.73
-13.83
-4.57
3.76
10.97
16.95
21.70
25.25
27.78
29.51
30.66
31.37
31.70
31.66
31.26
30.64
30.02
29.66
29.74
30.30
31.14
31.97
32.46
32.42
31.82
30.75
29.37
27.77
25.98
23.99
21.76
19.31
16.69
13.98
11.27
8.60
5.99
3.41
0.86
-1.70
-4.31
-7.00
-9.82
-12.81
-15.97
-19.27
-22.61
-25.87
-28.93
-31.77
-34.54
-37.57
-41.16
-45.40
-49.99
-54.19
-56.97
-57.40
-54.93
-49.63
-42.08
-33.17
-23.77
-14.50
-5.68
2.55
10.08
16.70
22.15
26.22
28.88
30.37
31.09
31.41
31.56
31.53
31.20
30.51
29.52
28.47
27.66
27.29
27.37
27.78
28.28
28.63
28.67
28.26
27.34
25.94
24.16
22.16
20.07
17.92
15.60
12.96
9.88
6.40
2.73
-0.86
-4.16
-7.06
-9.66
-12.09
-14.44
-16.63
-18.52
-19.97
-20.98
-21.73
-22.58
-23.96
-26.20
-29.47
-33.68
-38.40
-42.95
-46.44
-47.93
-46.76
-42.69
-36.02
-27.52
-18.17
-8.90
-0.36
7.11
13.44
18.61
22.61
25.41
27.02
27.61
27.45
26.89
26.24
25.67
25.22
24.88
24.70
24.76
25.15
25.86
26.77
27.66
28.33
28.62
28.44
27.75
26.53
24.79
22.62
20.20
17.74
15.41
13.23
11.08
8.74
6.06
2.99
-0.36
-3.80
-7.17
-10.33
-13.28
-16.05
-18.69
-21.26
-23.85
-26.60
-29.69
-33.26
-37.28
-41.39
-44.94
-47.07
-47.02
-44.38
-39.26
-32.24
-24.17
-15.87
-7.96
-0.76
5.63
11.22
16.05
20.13
23.49
26.18
28.24
29.64
30.37
30.41
29.87
28.98
28.06
27.39
27.10
27.17
27.45
27.76
28.00
28.12
28.09
27.80
27.13
26.00
24.46
22.66
20.82
19.09
17.48
15.91
14.26
12.49
10.59
8.56
6.37
3.93
1.16
-1.90
-5.09
-8.13
-10.76
-12.86
-14.50
-15.99
-17.79
-20.40
-24.20
-29.28
-35.28
-41.42
-46.62
-49.79
-50.14
-47.45
-42.05
-34.71
-26.29
-17.56
-9.06
-1.13
5.94
11.85
16.36
19.37
21.03
21.75
22.07
22.49
23.25
24.31
25.37
26.01
25.93
25.02
23.44
21.54
19.66
18.05
16.78
15.80
15.02
14.35
13.74
13.10
12.29
11.16
9.63
7.74
5.64
3.45
1.19
-1.23
-3.97
-7.02
-10.23
-13.29
-15.95
-18.13
-20.02
-21.95
-24.30
-27.31
-31.08
-35.55
-40.60
-46.00
-51.37
-56.13
-59.49
-60.62
-58.90
-54.16
-46.82
-37.74
-27.98
-18.52
-9.96
-2.59
3.55
8.49
12.23
14.76
16.14
16.59
16.43
16.04
15.75
15.73
16.04
16.60
17.27
17.94
18.51
18.94
19.25
19.44
19.51
19.42
19.10
18.45
17.42
15.99
14.18
12.12
9.92
7.72
5.58
3.49
1.34
-1.02
-3.72
-6.78
-10.15
-13.67
-17.14
-20.42
-23.37
-25.99
-28.33
-30.60
-33.09
-36.05
-39.56
-43.35
-46.79
-48.97
-49.05
-46.52
-41.42
-34.31
-26.06
-17.55
-9.41
-1.99
4.61
10.39
15.33
19.39
22.54
24.79
26.23
26.98
27.19
26.99
26.51
25.88
25.25
24.76
24.55
24.66
25.05
25.58
26.06
26.33
26.27
25.86
25.15
24.18
22.95
21.43
19.62
17.56
15.32
12.99
10.59
8.09
5.39
2.43
-0.77
-4.13
-7.48
-10.73
-13.78
-16.62
-19.27
-21.76
-24.15
-26.55
-29.19
-32.33
-36.18
-40.70
-45.48
-49.73
-52.47
-52.77
-50.11
-44.57
-36.81
-27.81
-18.57
-9.83
-1.96
4.96
11.00
16.21
20.62
24.20
26.93
28.80
29.82
30.02
29.46
28.26
26.65
24.95
23.48
22.53
22.25
22.65
23.58
24.78
25.92
26.74
27.05
26.78
25.91
24.54
22.77
20.70
18.46
16.16
13.90
11.72
9.60
7.46
5.20
2.81
0.34
-2.11
-4.40
-6.45
-8.22
-9.76
-11.19
-12.78
-14.86
-17.79
-21.84
-27.08
-33.23
-39.78
-45.94
-50.82
-53.59
-53.60
-50.60
-44.77
-36.75
-27.49
-18.03
-9.23
-1.67
4.48
9.26
12.87
15.54
17.45
18.75
19.58
20.03
20.19
20.14
19.97
19.78
19.73
19.92
20.42
21.16
22.02
22.78
23.22
23.21
22.70
21.76
20.49
18.99
17.28
15.27
12.86
9.90
6.35
2.22
-2.40
-7.42
-12.75
-18.34
-24.12
-30.01
-35.85
-41.47
-46.68
-51.33
-55.36
-58.83
-61.87
-64.69
-67.49
-70.43
-73.52
-76.55
-79.12
-80.60
-80.34
-77.80
-72.75
-65.28
-55.84
-44.95
-33.15
-20.91
-8.62
3.28
14.28
23.94
32.02
38.67
44.43
50.00
55.94
62.40
69.09
75.41
80.73
84.64
87.14
88.59
89.56
90.60
92.08
94.04
96.22
98.14
99.20
98.83
96.56
92.20
86.10
79.23
73.15
69.59
69.74
73.59
79.65
85.36
88.00
85.64
77.75
65.07
48.97
30.79
11.44
-8.41
-28.00
-46.20
-61.71
-73.52
-81.39
-86.03
-88.80
-91.09
-93.68
-96.46
-98.53
-98.74
-96.21
-90.67
-82.54
-72.70
-62.12
-51.57
-41.53
-32.20
-23.77
-16.37
-10.25
-5.60
-2.50
-0.82
-0.21
-0.20
-0.27
-0.04
0.68
1.88
3.39
5.02
6.67
8.33
10.01
11.73
13.38
14.74
15.57
15.67
14.97
13.62
11.87
10.01
8.27
6.69
5.17
3.50
1.52
-0.79
-3.25
-5.67
-7.87
-9.86
-11.84
-14.07
-16.82
-20.25
-24.36
-28.94
-33.54
-37.48
-39.93
-40.19
-37.83
-32.92
-25.97
-17.75
-9.04
-0.52
7.32
14.12
19.57
23.44
25.64
26.26
25.57
23.99
21.97
19.87
17.99
16.45
15.31
14.54
14.10
13.95
14.05
14.34
14.69
14.94
14.89
14.37
13.27
11.53
9.14
6.14
2.64
-1.15
-4.98
-8.58
-11.78
-14.59
-17.21
-19.95
-23.15
-27.05
-31.67
-36.73
-41.65
-45.56
-47.55
-46.93
-43.42
-37.36
-29.53
-20.90
-12.34
-4.44
2.53
8.50
13.43
17.28
19.98
21.49
21.93
21.59
20.89
20.30
20.27
21.12
22.95
25.65
28.93
32.34
35.32
37.33
37.98
37.19
35.15
32.34
29.32
26.52
24.14
22.13
20.21
18.13
15.68
12.83
9.68
6.43
3.28
0.31
-2.53
-5.51
-8.98
-13.26
-18.54
-24.68
-31.24
-37.48
-42.56
-45.64
-46.11
-43.74
-38.72
-31.69
-23.57
-15.32
-7.72
-1.21
4.14
8.49
12.06
15.01
17.38
19.09
20.09
20.46
20.42
20.30
20.43
20.96
21.90
23.11
24.38
25.54
26.55
27.44
28.20
28.75
28.92
28.50
27.35
25.52
23.24
20.81
18.49
16.38
14.41
12.39
10.15
7.61
4.78
1.79
-1.24
-4.26
-7.24
-10.21
-13.20
-16.23
-19.33
-22.53
-25.90
-29.48
-33.18
-36.75
-39.72
-41.52
-41.64
-39.77
-35.90
-30.33
-23.57
-16.25
-8.99
-2.31
3.47
8.18
11.82
14.51
16.47
18.01
19.48
21.29
23.76
27.00
30.75
34.48
37.57
39.58
40.44
40.45
40.10
39.76
39.46
38.89
37.65
35.50
32.54
29.13
25.71
22.62
20.04
17.96
16.16
14.51
13.02
11.73
10.53
9.20
7.40
4.85
1.38
-3.29
-9.09
-15.57
-22.22
-28.68
-34.94
-41.20
-47.75
-54.83
-63.02
-72.28
-82.04
-91.43
-99.82
-106.94
-112.79
-117.38
-120.61
-122.78
-123.40
-121.41
-115.65
-105.55
-91.40
-74.32
-55.80
-33.85
-9.95
12.28
29.43
40.51
46.86
50.83
53.53
55.17
55.67
54.02
50.33
45.60
41.00
37.08
33.74
30.62
27.81
26.00
25.62
27.22
30.96
36.37
42.36
47.75
51.66
53.86
54.52
53.71
51.88
49.71
47.97
47.20
47.55
48.72
50.03
50.56
49.13
44.94
37.79
28.39
18.22
9.23
3.16
0.86
1.83
4.25
5.69
3.86
-2.60
-13.88
-28.99
-46.07
-62.74
-76.61
-85.63
-88.48
-84.75
-74.99
-60.48
-42.94
-24.19
-5.87
10.70
24.72
35.97
44.88
52.41
59.62
67.35
75.80
84.51
92.48
98.55
101.72
101.36
97.33
90.12
80.83
70.99
62.08
54.88
49.10
43.28
35.48
24.19
9.14
-8.41
-26.12
-41.49
-52.87
-59.98
-63.89
-66.37
-69.15
-73.27
-78.75
-84.80
-90.11
-93.48
-94.22
-92.35
-88.53
-83.74
-78.83
-74.25
-70.02
-65.86
-61.50
-56.74
-51.60
-46.19
-40.70
-35.41
-30.76
-27.26
-25.25
-24.58
-24.46
-23.70
-21.24
-16.78
-10.96
-5.02
-0.14
3.32
5.91
8.79
12.94
18.60
25.23
31.84
37.56
42.00
45.22
47.33
48.22
47.45
44.50
39.05
31.20
21.47
10.61
-0.70
-11.98
-23.00
-33.71
-44.03
-53.68
-62.16
-68.69
-72.41
-72.65
-69.17
-62.39
-53.37
-43.58
-34.46
-27.08
-21.91
-18.83
-17.30
-16.59
-16.05
-15.29
-14.17
-12.72
-11.07
-9.27
-7.33
-5.20
-2.85
-0.34
2.19
4.49
6.31
7.33
7.35
6.26
4.17
1.34
-1.84
-4.89
-7.33
-8.74
-8.81
-7.42
-4.70
-1.00
3.11
7.06
10.38
12.86
14.50
15.41
15.73
15.49
14.61
12.99
10.58
7.38
3.56
-0.56
-4.59
-8.07
-10.62
-12.01
-12.23
-11.43
-9.80
-7.54
-4.72
-1.44
2.19
5.96
9.68
13.20
16.47
19.54
22.46
25.21
27.63
29.55
30.83
31.42
31.39
30.88
30.10
29.24
28.43
27.75
27.16
26.54
25.69
24.47
22.83
20.85
18.70
16.52
14.38
12.30
10.36
8.72
7.70
7.58
8.45
10.15
12.27
14.32
15.85
16.65
16.63
15.83
14.34
12.24
9.72
7.01
4.39
2.13
0.42
-0.70
-1.26
-1.34
-1.05
-0.52
0.11
0.69
1.15
1.47
1.73
1.99
2.28
2.51
2.60
2.45
2.08
1.59
1.12
0.76
0.49
0.19
-0.28
-1.03
-2.12
-3.48
-5.01
-6.61
-8.20
-9.71
-11.14
-12.50
-13.86
-15.29
-16.96
-19.07
-21.73
-24.89
-28.23
-31.16
-32.95
-33.00
-31.01
-27.09
-21.67
-15.29
-8.46
-1.54
5.18
11.44
16.90
21.28
24.48
26.59
27.92
28.80
29.43
29.87
30.00
29.75
29.10
28.17
27.16
26.29
25.76
25.70
26.10
26.84
27.67
28.32
28.56
28.32
27.62
26.51
25.04
23.19
20.91
18.18
15.04
11.54
7.72
3.60
-0.79
-5.33
-9.84
-14.10
-18.00
-21.57
-24.96
-28.43
-32.17
-36.23
-40.51
-44.69
-48.29
-50.68
-51.24
-49.49
-45.30
-38.86
-30.71
-21.54
-12.07
-2.90
5.49
12.79
18.80
23.46
26.78
28.86
29.84
29.91
29.26
28.09
26.66
25.20
23.88
22.83
22.12
21.78
21.77
22.01
22.32
22.45
22.13
21.22
19.71
17.79
15.67
13.51
11.28
8.84
6.04
2.80
-0.80
-4.56
-8.28
-11.83
-15.15
-18.21
-21.03
-23.64
-26.15
-28.72
-31.62
-35.10
-39.24
-43.82
-48.30
-51.87
-53.62
-52.86
-49.21
-42.78
-34.10
-23.99
-13.38
-3.12
6.17
14.15
20.70
25.82
29.60
32.15
33.54
33.90
33.42
32.34
30.95
29.51
28.26
27.33
26.79
26.65
26.84
27.29
27.84
28.35
28.60
28.42
27.71
26.44
24.75
22.79
20.74
18.65
16.48
14.06
11.28
8.10
4.63
1.06
-2.39
-5.59
-8.51
-11.22
-13.85
-16.54
-19.49
-22.82
-26.63
-30.80
-34.92
-38.24
-39.78
-38.60
-34.15
-26.43
-16.08
-4.15
8.20
20.06
30.86
40.36
48.48
55.17
60.33
63.87
65.76
66.09
65.06
62.88
59.74
55.86
51.51
47.04
42.83
39.21
36.31
34.11
32.40
30.94
29.51
28.02
26.46
24.92
23.50
22.29
21.17
19.76
17.39
13.28
6.84
-1.99
-12.61
-23.81
-34.20
-42.61
-48.45
-51.76
-53.11
-53.34
-53.37
-54.07
-56.15
-59.99
-65.46
-71.82
-77.77
-81.79
-82.60
-79.55
-72.81
-63.23
-52.01
-40.27
-28.85
-18.27
-8.83
-0.85
5.31
9.35
11.13
10.88
9.22
7.04
5.18
4.25
4.46
5.71
7.82
10.61
13.97
17.68
21.31
24.20
25.70
25.41
23.45
20.41
17.09
14.17
12.01
10.67
10.05
10.03
10.53
11.32
11.94
11.74
10.11
6.82
2.12
-3.31
-8.71
-13.55
-17.74
-21.47
-25.06
-28.63
-31.95
-34.58
-36.08
-36.23
-35.13
-33.09
-30.44
-27.39
-23.98
-20.16
-16.00
-11.68
-7.50
-3.67
-0.21
2.99
6.11
9.16
11.96
14.20
15.65
16.28
16.25
15.80
15.05
14.03
12.67
10.99
9.21
7.69
6.80
6.73
7.41
8.56
9.75
10.60
10.90
10.62
9.89
8.94
7.95
6.99
6.01
4.87
3.45
1.70
-0.32
-2.48
-4.63
-6.67
-8.60
-10.46
-12.32
-14.27
-16.38
-18.74
-21.44
-24.50
-27.73
-30.75
-32.98
-33.82
-32.81
-29.85
-25.20
-19.42
-13.20
-7.16
-1.71
2.94
6.76
9.79
12.11
13.82
15.03
15.82
16.30
16.53
16.55
16.42
16.20
15.97
15.83
15.81
15.95
16.19
16.48
16.76
16.96
17.07
17.03
16.78
16.22
15.26
13.88
12.15
10.25
8.39
6.74
5.35
4.13
2.91
1.53
-0.11
-1.98
-3.94
-5.80
-7.38
-8.65
-9.69
-10.70
-11.95
-13.68
-16.02
-18.96
-22.36
-25.90
-29.15
-31.61
-32.74
-32.12
-29.54
-25.18
-19.53
-13.29
-7.16
-1.64
3.04
6.92
10.17
12.93
15.24
17.04
18.27
18.91
19.08
18.93
18.62
18.31
18.08
17.98
18.04
18.27
18.61
19.02
19.36
19.54
19.48
19.16
18.60
17.87
17.01
16.08
15.15
14.22
13.27
12.24
11.08
9.73
8.14
6.37
4.48
2.58
0.74
-0.99
-2.64
-4.30
-6.06
-8.00
-10.09
-12.25
-14.38
-16.45
-18.50
-20.63
-22.97
-25.60
-28.51
-31.58
-34.60
-37.26
-39.21
-40.06
-39.54
-37.58
-34.29
-29.99
-25.11
-20.08
-15.26
-10.91
-7.18
-4.12
-1.71
0.11
1.45
2.36
2.92
3.23
3.41
3.69
4.29
5.37
6.97
8.98
11.22
13.51
15.68
17.60
19.16
20.24
20.71
20.54
19.80
18.66
17.41
16.27
15.40
14.83
14.48
14.25
14.03
13.77
13.52
13.40
13.52
13.94
14.64
15.47
16.26
16.87
17.18
17.11
16.56
15.45
13.69
11.25
8.22
4.68
0.73
-3.55
-8.01
-12.37
-16.16
-18.78
-19.74
-18.86
-16.32
-12.64
-8.37
-3.97
0.31
4.41
8.27
11.80
14.81
17.14
18.70
19.50
19.65
19.29
18.56
17.60
16.53
15.49
14.54
13.71
12.99
12.34
11.74
11.20
10.67
10.05
9.18
7.88
6.00
3.51
0.49
-2.89
-6.40
-9.79
-12.89
-15.52
-17.62
-19.20
-20.32
-21.05
-21.50
-21.74
-21.88
-22.01
-22.22
-22.60
-23.18
-23.94
-24.80
-25.68
-26.49
-27.18
-27.83
-28.61
-29.81
-31.69
-34.37
-37.60
-40.77
-42.99
-43.43
-41.52
-37.23
-31.03
-23.65
-15.88
-8.35
-1.43
4.67
9.83
13.98
17.07
19.09
20.12
20.27
19.72
18.68
17.40
16.14
15.11
14.40
13.98
13.78
13.68
13.65
13.74
13.98
14.39
14.85
15.18
15.23
14.92
14.26
13.35
12.26
10.99
9.52
7.81
5.82
3.58
1.11
-1.49
-4.15
-6.75
-9.18
-11.34
-13.21
-14.80
-16.20
-17.51
-18.81
-20.17
-21.59
-23.16
-24.98
-27.21
-29.89
-32.88
-35.73
-37.82
-38.43
-37.06
-33.54
-28.12
-21.39
-14.06
-6.78
-0.04
5.92
10.98
15.09
18.20
20.29
21.38
21.55
21.03
20.08
18.98
17.97
17.23
16.84
16.83
17.15
17.73
18.41
19.04
19.51
19.73
19.70
19.43
18.93
18.17
17.07
15.53
13.55
11.17
8.58
6.00
3.63
1.52
-0.42
-2.41
-4.67
-7.36
-10.43
-13.68
-16.87
-19.75
-22.25
-24.41
-26.43
-28.53
-31.02
-34.08
-37.79
-41.94
-46.03
-49.29
-50.86
-50.03
-46.46
-40.32
-32.22
-23.02
-13.57
-4.52
3.71
10.92
16.96
21.71
25.09
27.12
28.01
28.12
27.86
27.55
27.32
27.15
26.93
26.62
26.28
26.06
26.08
26.32
26.66
26.90
26.93
26.67
26.16
25.42
24.44
23.19
21.62
19.71
17.48
14.98
12.28
9.48
6.67
3.89
1.17
-1.58
-4.45
-7.55
-10.85
-14.24
-17.52
-20.53
-23.21
-25.64
-28.05
-30.69
-33.81
-37.56
-41.89
-46.50
-50.79
-53.91
-55.00
-53.34
-48.66
-41.16
-31.55
-20.83
-10.02
0.05
8.89
16.35
22.45
27.29
30.94
33.36
34.57
34.67
33.89
32.57
31.11
29.78
28.79
28.19
27.97
28.11
28.55
29.22
29.96
30.56
30.76
30.37
29.32
27.68
25.65
23.41
21.07
18.62
15.99
13.16
10.21
7.33
4.75
2.64
0.95
-0.50
-2.05
-3.97
-6.45
-9.44
-12.72
-16.01
-19.01
-21.62
-23.89
-26.08
-28.52
-31.55
-35.36
-39.86
-44.62
-48.85
-51.55
-51.79
-48.97
-43.10
-34.74
-24.83
-14.44
-4.48
4.45
12.02
18.09
22.60
25.55
27.04
27.29
26.66
25.55
24.31
23.17
22.23
21.56
21.24
21.43
22.29
23.95
26.31
29.14
32.05
34.66
36.67
37.89
38.22
37.62
36.10
33.69
30.50
26.71
22.55
18.29
14.17
10.38
6.98
3.89
0.98
-1.98
-5.13
-8.54
-12.12
-15.69
-19.07
-22.08
-24.68
-26.96
-29.13
-31.52
-34.50
-38.34
-43.05
-48.30
-53.34
-57.17
-58.74
-57.30
-52.54
-44.73
-34.63
-23.27
-11.69
-0.80
8.79
16.72
22.80
27.04
29.59
30.69
30.76
30.21
29.37
28.48
27.65
26.93
26.37
26.11
26.24
26.80
27.67
28.64
29.43
29.85
29.76
29.14
27.98
26.27
24.03
21.31
18.25
15.04
11.82
8.66
5.54
2.35
-0.96
-4.36
-7.75
-11.00
-14.05
-16.97
-19.87
-22.83
-25.82
-28.63
-30.99
-32.69
-33.77
-34.55
-35.61
-37.52
-40.64
-44.83
-49.45
-53.42
-55.59
-54.99
-51.16
-44.25
-34.90
-24.13
-12.99
-2.35
7.16
15.23
21.75
26.76
30.35
32.64
33.82
34.12
33.79
33.06
32.06
30.86
29.45
27.90
26.33
24.90
23.78
23.04
22.62
22.32
21.89
21.13
19.93
18.31
16.39
14.38
12.48
10.80
9.35
8.01
6.60
4.99
3.21
1.41
-0.19
-1.42
-2.30
-3.04
-3.96
-5.36
-7.35
-9.88
-12.69
-15.47
-18.00
-20.24
-22.32
-24.53
-27.16
-30.38
-34.11
-37.95
-41.21
-43.07
-42.72
-39.68
-33.93
-25.99
-16.76
-7.32
1.41
8.90
15.04
19.99
23.98
27.10
29.34
30.61
30.91
30.39
29.35
28.10
26.90
25.88
25.05
24.42
23.99
23.84
24.03
24.52
25.10
25.43
25.09
23.78
21.44
18.25
14.59
10.83
7.19
3.68
0.20
-3.33
-6.89
-10.38
-13.64
-16.60
-19.29
-21.77
-24.09
-26.25
-28.23
-30.00
-31.57
-32.94
-34.12
-35.12
-36.03
-37.04
-38.49
-40.67
-43.71
-47.34
-50.87
-53.35
-53.82
-51.63
-46.62
-39.15
-29.92
-19.81
-9.66
-0.16
8.21
15.15
20.60
24.60
27.37
29.16
30.19
30.60
30.45
29.82
28.81
27.62
26.55
25.85
25.67
26.04
26.78
27.64
28.33
28.64
28.42
27.68
26.47
24.92
23.13
21.21
19.20
17.11
14.94
12.66
10.28
7.78
5.18
2.44
-0.44
-3.47
-6.64
-9.86
-13.03
-16.04
-18.79
-21.21
-23.31
-25.11
-26.74
-28.39
-30.35
-32.89
-36.19
-40.13
-44.22
-47.65
-49.45
-48.82
-45.33
-39.12
-30.77
-21.17
-11.24
-1.79
6.66
13.83
19.64
24.12
27.34
29.38
30.31
30.29
29.51
28.28
26.89
25.64
24.67
24.04
23.70
23.59
23.63
23.73
23.83
23.84
23.67
23.26
22.51
21.40
19.88
18.00
15.86
13.59
11.34
9.22
7.24
5.38
3.53
1.59
-0.50
-2.73
-5.01
-7.13
-8.84
-9.95
-10.42
-10.47
-10.49
-10.97
-12.24
-14.38
-17.17
-20.16
-22.79
-24.47
-24.73
-23.21
-19.69
-14.14
-6.69
2.31
12.35
22.76
32.77
41.64
48.78
53.93
57.27
59.41
61.21
63.48
66.68
70.75
75.21
79.41
82.90
85.66
88.14
91.12
95.47
102.01
111.32
123.38
137.05
149.75
157.65
156.74
144.33
120.39
87.79
51.36
15.93
-15.34
-41.65
-63.91
-83.27
-99.95
-112.99
-121.00
-123.16
-119.81
-112.26
-101.99
-90.05
-76.89
-62.86
-48.71
-35.91
-26.31
-21.47
-22.01
-27.27
-35.52
-44.48
-51.92
-56.25
-56.77
-53.70
-48.11
-41.60
-35.86
-32.31
-31.73
-34.21
-39.24
-46.11
-54.27
-63.55
-74.15
-86.30
-99.93
-114.37
-128.31
-139.95
-147.46
-149.31
-144.65
-133.42
-116.43
-95.26
-72.05
-49.11
-28.54
-11.81
0.49
8.63
13.48
16.14
17.60
18.52
19.29
20.07
20.91
21.80
22.67
23.37
23.75
23.65
23.03
21.93
20.50
18.89
17.25
15.65
14.06
12.38
10.48
8.22
5.53
2.37
-1.24
-5.14
-9.04
-12.46
-14.81
-15.54
-14.30
-11.08
-6.27
-0.50
5.52
11.15
15.98
19.84
22.71
24.68
25.87
26.41
26.45
26.11
25.53
24.83
24.13
23.57
23.22
23.11
23.22
23.52
23.94
24.43
24.89
25.19
25.19
24.75
23.88
22.67
21.30
19.98
18.79
17.69
16.53
15.16
13.51
11.66
9.77
8.01
6.44
4.98
3.43
1.62
-0.49
-2.82
-5.18
-7.36
-9.24
-10.79
-12.13
-13.37
-14.69
-16.25
-18.24
-20.75
-23.74
-26.94
-29.84
-31.80
-32.22
-30.76
-27.39
-22.46
-16.57
-10.34
-4.32
1.17
5.99
10.13
13.60
16.43
18.60
20.12
21.03
21.47
21.61
21.63
21.63
21.66
21.70
21.73
21.77
21.92
22.29
22.96
23.86
24.78
25.39
25.42
24.74
23.44
21.78
20.06
18.47
17.05
15.64
14.07
12.25
10.19
8.06
6.04
4.26
2.75
1.40
0.07
-1.36
-2.95
-4.71
-6.58
-8.50
-10.46
-12.42
-14.40
-16.39
-18.45
-20.63
-23.03
-25.69
-28.57
-31.51
-34.20
-36.23
-37.18
-36.69
-34.58
-30.89
-25.92
-20.16
-14.20
-8.59
-3.69
0.40
3.81
6.75
9.41
11.77
13.70
15.01
15.68
15.83
15.74
15.67
15.75
15.93
16.08
16.14
16.19
16.44
17.04
17.98
19.02
19.78
19.94
19.39
18.28
16.91
15.58
14.44
13.41
12.31
10.96
9.33
7.55
5.85
4.43
3.35
2.52
1.70
0.67
-0.70
-2.39
-4.28
-6.23
-8.14
-10.04
-11.95
-13.93
-15.97
-18.03
-20.16
-22.47
-25.19
-28.48
-32.26
-36.14
-39.39
-41.18
-40.85
-38.18
-33.43
-27.24
-20.42
-13.64
-7.37
-1.82
2.95
6.94
10.20
12.79
14.80
16.35
17.54
18.47
19.16
19.62
19.90
20.07
20.24
20.55
21.03
21.71
22.51
23.32
24.04
24.56
24.80
24.67
24.12
23.16
21.91
20.56
19.28
18.18
17.21
16.23
15.03
13.52
11.74
9.81
7.93
6.21
4.68
3.28
1.93
0.54
-0.95
-2.59
-4.39
-6.38
-8.52
-10.75
-12.98
-15.11
-17.14
-19.11
-21.22
-23.68
-26.67
-30.18
-33.96
-37.47
-40.01
-40.92
-39.73
-36.42
-31.29
-24.95
-18.04
-11.15
-4.65
1.19
6.24
10.36
13.47
15.56
16.70
17.06
16.87
16.38
15.75
15.13
14.59
14.22
14.08
14.25
14.73
15.50
16.49
17.61
18.72
19.65
20.22
20.26
19.69
18.57
17.07
15.46
13.94
12.59
11.35
10.05
8.56
6.82
4.91
2.99
1.22
-0.35
-1.76
-3.14
-4.66
-6.45
-8.55
-10.91
-13.37
-15.75
-17.92
-19.84
-21.62
-23.44
-25.50
-27.94
-30.78
-33.83
-36.73
-38.95
-39.89
-39.02
-36.04
-31.03
-24.41
-16.90
-9.22
-2.01
4.37
9.74
14.07
17.34
19.55
20.72
21.00
20.65
20.04
19.45
19.05
18.79
18.58
18.29
17.92
17.57
17.43
17.65
18.26
19.16
20.09
20.78
21.02
20.71
19.90
18.72
17.28
15.68
13.88
11.83
9.51
6.96
4.33
1.83
-0.41
-2.31
-3.94
-5.43
-6.99
-8.76
-10.82
-13.12
-15.49
-17.69
-19.50
-20.77
-21.60
-22.28
-23.28
-25.06
-27.88
-31.59
-35.63
-39.15
-41.25
-41.22
-38.80
-34.13
-27.76
-20.36
-12.67
-5.24
1.49
7.31
12.12
15.89
18.67
20.56
21.68
22.20
22.27
22.02
21.61
21.19
20.90
20.87
21.15
21.67
22.25
22.68
22.81
22.60
22.10
21.41
20.55
19.46
18.01
16.09
13.72
11.00
8.15
5.37
2.77
0.38
-1.84
-3.98
-6.09
-8.21
-10.36
-12.53
-14.70
-16.80
-18.75
-20.49
-22.00
-23.39
-24.87
-26.71
-29.11
-32.11
-35.48
-38.71
-41.06
-41.76
-40.22
-36.24
-30.08
-22.40
-14.00
-5.63
2.15
8.97
14.60
18.93
21.89
23.56
24.15
23.98
23.40
22.64
21.84
21.05
20.28
19.57
18.99
18.63
18.58
18.83
19.30
19.85
20.27
20.34
19.92
18.92
17.37
15.33
12.92
10.31
7.64
5.04
2.57
0.18
-2.25
-4.89
-7.81
-10.96
-14.13
-17.08
-19.67
-21.88
-23.88
-25.90
-28.17
-30.88
-34.08
-37.64
-41.20
-44.14
-45.69
-45.12
-41.99
-36.33
-28.65
-19.77
-10.59
-1.81
6.16
13.15
19.09
23.94
27.68
30.30
31.87
32.55
32.54
32.03
31.15
30.04
28.81
27.59
26.52
25.71
25.21
25.05
25.17
25.48
25.78
25.84
25.43
24.36
22.59
20.23
17.51
14.68
11.97
9.43
6.99
4.49
1.76
-1.28
-4.54
-7.85
-10.94
-13.63
-15.87
-17.79
-19.63
-21.72
-24.37
-27.76
-31.87
-36.38
-40.69
-43.96
-45.36
-44.24
-40.41
-34.15
-26.22
-17.60
-9.22
-1.75
4.51
9.59
13.70
17.04
19.69
21.64
22.82
23.26
23.08
22.55
21.91
21.31
20.80
20.36
19.97
19.72
19.72
20.04
20.62
21.25
21.62
21.40
20.37
18.52
16.02
13.20
10.42
7.98
5.98
4.35
2.85
1.20
-0.82
-3.26
-6.02
-8.84
-11.43
-13.60
-15.32
-16.73
-18.10
-19.74
-21.90
-24.69
-28.06
-31.75
-35.31
-38.07
-39.32
-38.44
-35.12
-29.57
-22.46
-14.73
-7.23
-0.54
5.19
10.04
14.13
17.51
20.07
21.72
22.48
22.51
22.10
21.52
20.97
20.57
20.34
20.25
20.25
20.30
20.34
20.38
20.42
20.45
20.42
20.23
19.75
18.87
17.60
16.03
14.33
12.64
11.00
9.33
7.55
5.59
3.52
1.50
-0.31
-1.85
-3.19
-4.55
-6.14
-8.05
-10.16
-12.24
-14.05
-15.47
-16.61
-17.74
-19.14
-21.06
-23.55
-26.53
-29.75
-32.79
-35.16
-36.31
-35.81
-33.47
-29.40
-24.06
-18.04
-11.93
-6.17
-0.98
3.56
7.45
10.65
13.14
14.97
16.24
17.08
17.63
17.92
17.93
17.62
17.01
16.25
15.56
15.17
15.20
15.62
16.27
16.91
17.34
17.44
17.17
16.55
15.60
14.32
12.74
10.89
8.87
6.81
4.86
3.13
1.63
0.37
-0.71
-1.65
-2.51
-3.37
-4.34
-5.51
-6.93
-8.54
-10.18
-11.73
-13.06
-14.17
-15.16
-16.18
-17.39
-18.96
-20.99
-23.53
-26.48
-29.60
-32.45
-34.52
-35.29
-34.45
-31.93
-27.93
-22.89
-17.31
-11.67
-6.29
-1.36
3.04
6.85
10.02
12.45
14.07
14.87
14.94
14.51
13.86
13.27
12.91
12.86
13.06
13.45
13.96
14.55
15.20
15.91
16.57
17.08
17.31
17.19
16.77
16.17
15.53
14.91
14.28
13.58
12.71
11.66
10.46
9.18
7.90
6.66
5.54
4.58
3.84
3.31
2.89
2.39
1.62
0.51
-0.87
-2.29
-3.53
-4.50
-5.27
-6.08
-7.20
-8.82
-11.00
-13.68
-16.71
-19.89
-22.94
-25.52
-27.19
-27.53
-26.23
-23.19
-18.62
-13.01
-6.99
-1.20
3.88
8.00
11.12
13.32
14.75
15.51
15.66
15.28
14.50
13.52
12.58
11.81
11.26
10.85
10.46
10.00
9.46
8.88
8.30
7.74
7.15
6.47
5.63
4.61
3.42
2.08
0.67
-0.75
-2.09
-3.26
-4.20
-4.94
-5.55
-6.21
-7.05
-8.17
-9.53
-10.99
-12.38
-13.62
-14.72
-15.80
-16.99
-18.37
-19.91
-21.52
-23.09
-24.57
-25.96
-27.30
-28.66
-30.12
-31.84
-34.02
-36.81
-40.23
-43.93
-47.27
-49.38
-49.51
-47.22
-42.59
-36.17
-28.72
-21.03
-13.69
-7.02
-1.16
3.91
8.21
11.80
14.72
17.02
18.75
19.97
20.76
21.23
21.53
21.78
22.02
22.28
22.56
22.86
23.27
23.84
24.60
25.44
26.15
26.47
26.20
25.31
23.93
22.29
20.65
19.13
17.74
16.35
14.80
13.03
11.08
9.06
7.14
5.41
3.84
2.32
0.69
-1.18
-3.28
-5.55
-7.81
-9.92
-11.81
-13.48
-15.03
-16.61
-18.41
-20.63
-23.41
-26.75
-30.40
-33.80
-36.22
-36.94
-35.49
-31.85
-26.44
-19.92
-12.97
-6.11
0.38
6.34
11.65
16.11
19.54
21.83
23.04
23.40
23.22
22.81
22.38
22.07
21.95
21.99
22.20
22.52
22.94
23.48
24.16
24.95
25.72
26.25
26.29
25.73
24.62
23.22
21.83
20.67
19.73
18.81
17.60
15.86
13.57
10.87
8.05
5.42
3.16
1.30
-0.27
-1.74
-3.25
-4.87
-6.60
-8.38
-10.13
-11.85
-13.55
-15.26
-17.02
-18.94
-21.17
-23.88
-27.18
-30.93
-34.71
-37.81
-39.45
-39.02
-36.31
-31.53
-25.28
-18.26
-11.20
-4.60
1.22
6.14
10.12
13.19
15.42
16.93
17.84
18.28
18.37
18.19
17.81
17.33
16.85
16.49
16.38
16.55
16.97
17.54
18.12
18.57
18.82
18.85
18.63
18.15
17.38
16.31
14.99
13.49
11.91
10.35
8.83
7.35
5.89
4.43
2.94
1.41
-0.20
-1.95
-3.91
-6.11
-8.47
-10.85
-13.06
-14.95
-16.50
-17.78
-18.98
-20.28
-21.86
-23.86
-26.38
-29.45
-32.93
-36.41
-39.27
-40.72
-40.09
-37.09
-31.87
-25.03
-17.44
-9.90
-3.05
2.75
7.38
10.88
13.38
15.07
16.15
16.75
16.96
16.75
16.09
14.97
13.50
11.93
10.54
9.57
9.14
9.23
9.69
10.35
10.99
11.44
11.55
11.25
10.49
9.30
7.76
6.01
4.21
2.52
1.03
-0.25
-1.35
-2.36
-3.36
-4.38
-5.43
-6.52
-7.67
-8.93
-10.34
-11.89
-13.51
-15.09
-16.58
-18.02
-19.53
-21.30
-23.46
-26.07
-28.99
-31.90
-34.27
-35.50
-35.04
-32.57
-28.17
-22.26
-15.54
-8.73
-2.40
3.11
7.71
11.47
14.51
16.95
18.84
20.24
21.17
21.67
21.80
21.65
21.29
20.81
20.25
19.71
19.28
19.06
19.14
19.48
19.93
20.27
20.28
19.87
19.09
18.09
17.03
15.98
14.90
13.70
12.30
10.71
8.99
7.23
5.50
3.79
2.02
0.07
-2.11
-4.51
-7.03
-9.48
-11.73
-13.68
-15.33
-16.77
-18.16
-19.65
-21.40
-23.61
-26.39
-29.75
-33.45
-36.97
-39.58
-40.56
-39.44
-36.12
-30.95
-24.58
-17.72
-11.00
-4.83
0.60
5.21
9.02
12.05
14.36
15.98
16.95
17.29
17.04
16.31
15.27
14.16
13.25
12.78
12.87
13.54
14.65
15.98
17.28
18.28
18.81
18.78
18.21
17.23
15.99
14.62
13.16
11.59
9.85
7.90
5.78
3.57
1.37
-0.79
-2.92
-5.06
-7.26
-9.47
-11.58
-13.46
-15.06
-16.44
-17.77
-19.29
-21.22
-23.70
-26.69
-30.02
-33.25
-35.85
-37.16
-36.65
-33.99
-29.26
-22.88
-15.51
-7.84
-0.42
6.39
12.39
17.47
21.49
24.39
26.16
26.97
27.11
26.87
26.50
26.13
25.80
25.50
25.28
25.21
25.31
25.60
26.02
26.45
26.78
26.85
26.57
25.84
24.68
23.12
21.29
19.28
17.12
14.86
12.50
10.15
7.91
5.94
4.28
2.80
1.26
-0.62
-2.96
-5.69
-8.46
-10.90
-12.69
-13.79
-14.38
-14.83
-15.53
-16.80
-18.79
-21.45
-24.47
-27.35
-29.36
-29.74
-27.89
-23.53
-16.79
-8.21
1.45
11.43
21.05
29.88
37.64
44.21
49.52
53.63
56.66
58.81
60.31
61.37
62.09
62.50
62.50
61.89
60.44
57.88
54.00
48.70
42.10
34.50
26.35
18.14
10.24
2.84
-4.04
-10.45
-16.42
-21.88
-26.71
-30.80
-34.17
-37.01
-39.59
-42.18
-44.93
-47.83
-50.75
-53.51
-56.02
-58.29
-60.47
-62.68
-65.00
-67.36
-69.58
-71.46
-72.85
-73.72
-74.12
-74.17
-73.92
-73.30
-72.13
-70.09
-66.82
-62.05
-55.64
-47.67
-38.39
-28.09
-17.07
-5.53
6.32
18.09
29.03
38.13
44.31
46.87
45.77
41.82
36.42
31.10
27.02
24.67
23.92
24.22
25.09
26.20
27.46
28.68
29.48
29.27
27.52
24.11
19.56
14.84
11.03
8.83
8.38
9.27
10.82
12.36
13.35
13.30
11.85
8.72
3.97
-1.88
-7.96
-13.24
-17.02
-19.11
-19.93
-20.29
-21.13
-23.13
-26.69
-31.76
-37.91
-44.31
-49.83
-53.19
-53.31
-49.59
-42.22
-32.09
-20.59
-9.09
1.39
10.44
18.03
24.26
29.09
32.30
33.70
33.41
32.01
30.35
29.20
28.97
29.54
30.44
31.12
31.20
30.56
29.23
27.33
25.00
22.43
19.96
17.98
16.71
16.11
15.83
15.38
14.30
12.44
9.91
7.05
4.25
1.83
0.06
-0.93
-1.10
-0.68
-0.22
-0.46
-2.15
-5.66
-10.81
-16.86
-22.80
-27.75
-31.31
-33.66
-35.40
-37.29
-39.89
-43.33
-47.24
-50.81
-53.01
-52.86
-49.77
-43.71
-35.19
-25.15
-14.57
-4.32
5.12
13.52
20.81
26.86
31.47
34.45
35.75
35.61
34.48
32.91
31.35
30.05
29.10
28.59
28.66
29.45
30.94
32.84
34.54
35.38
34.88
32.98
30.02
26.62
23.36
20.62
18.50
16.83
15.32
13.59
11.32
8.28
4.41
-0.17
-5.11
-10.00
-14.48
-18.33
-21.50
-24.06
-26.07
-27.57
-28.48
-28.74
-28.41
-27.82
-27.55
-28.32
-30.64
-34.57
-39.56
-44.52
-48.12
-49.14
-46.80
-40.87
-31.71
-20.13
-7.26
5.64
17.33
26.89
33.74
37.79
39.30
38.79
36.85
34.06
30.97
28.04
25.70
24.21
23.59
23.61
23.91
24.09
23.96
23.58
23.18
23.05
23.33
23.94
24.65
25.13
25.06
24.24
22.52
19.87
16.40
12.33
7.99
3.74
-0.13
-3.46
-6.13
-8.05
-9.22
-9.80
-10.25
-11.25
-13.40
-17.00
-21.73
-26.84
-31.45
-35.03
-37.50
-39.26
-40.78
-42.46
-44.50
-47.05
-50.27
-54.24
-58.66
-62.68
-64.95
-64.08
-59.15
-50.12
-37.81
-23.56
-8.75
5.42
18.08
28.51
36.21
40.96
42.95
42.80
41.35
39.34
37.23
35.17
33.19
31.37
29.86
28.79
28.14
27.68
27.07
26.01
24.39
22.27
19.79
17.15
14.64
12.73
12.03
13.08
16.11
20.71
25.86
30.26
32.71
32.61
30.12
25.98
21.17
16.49
12.36
8.83
5.79
3.16
0.93
-0.97
-2.73
-4.75
-7.47
-11.14
-15.63
-20.48
-25.08
-28.96
-31.96
-34.14
-35.62
-36.37
-36.19
-34.94
-32.70
-29.94
-27.28
-25.17
-23.65
-22.25
-20.32
-17.34
-13.17
-8.00
-2.09
4.50
11.89
20.16
28.91
37.07
43.18
45.93
44.77
40.23
33.70
26.87
21.03
16.78
14.12
12.80
12.75
14.12
17.07
21.40
26.38
30.88
33.77
34.34
32.55
28.98
24.42
19.60
14.93
10.49
6.18
1.94
-2.14
-5.85
-8.98
-11.45
-13.36
-14.94
-16.45
-18.06
-19.84
-21.77
-23.85
-26.12
-28.77
-32.05
-36.25
-41.52
-47.86
-54.86
-61.78
-67.60
-71.18
-71.67
-68.70
-62.50
-53.74
-43.35
-32.22
-21.09
-10.50
-0.91
7.34
13.93
18.68
21.58
22.74
22.42
20.98
18.85
16.55
14.60
13.44
13.31
14.23
16.08
18.63
21.61
24.69
27.50
29.66
30.84
30.88
29.91
28.25
26.30
24.39
22.58
20.77
18.71
16.26
13.39
10.23
6.97
3.81
0.86
-1.83
-4.32
-6.72
-9.18
-11.82
-14.71
-17.77
-20.86
-23.82
-26.52
-28.97
-31.33
-33.84
-36.81
-40.46
-44.78
-49.44
-53.73
-56.72
-57.41
-55.14
-49.74
-41.63
-31.67
-20.91
-10.29
-0.49
8.09
15.28
20.97
25.15
27.89
29.36
29.87
29.76
29.33
28.76
28.08
27.27
26.34
25.41
24.72
24.50
24.89
25.77
26.83
27.60
27.73
27.03
25.62
23.82
21.96
20.26
18.69
17.04
15.05
12.61
9.81
6.90
4.17
1.77
-0.31
-2.27
-4.32
-6.55
-8.96
-11.39
-13.71
-15.84
-17.80
-19.68
-21.62
-23.73
-26.10
-28.84
-32.04
-35.67
-39.47
-42.86
-44.99
-44.92
-41.94
-35.90
-27.28
-17.09
-6.56
3.26
11.73
18.63
24.08
28.21
31.09
32.70
33.01
32.23
30.76
29.13
27.83
27.11
26.92
27.07
27.36
27.72
28.22
29.01
30.14
31.47
32.70
33.52
33.70
33.17
31.98
30.24
28.07
25.60
22.96
20.31
17.77
15.37
13.08
10.75
8.23
5.43
2.32
-1.08
-4.71
-8.57
-12.63
-16.91
-21.36
-25.93
-30.58
-35.27
-39.98
-44.69
-49.36
-53.92
-58.23
-61.97
-64.71
-65.83
-64.70
-60.89
-54.31
-45.29
-34.45
-22.47
-9.97
2.55
14.59
25.45
34.28
40.27
42.97
42.52
39.70
35.60
31.29
27.50
24.58
22.71
22.00
22.55
24.32
26.98
29.84
32.12
33.22
32.98
31.71
29.98
28.32
26.97
25.84
24.65
23.12
21.11
18.63
15.80
12.79
9.76
6.84
4.15
1.78
-0.31
-2.21
-4.12
-6.24
-8.69
-11.45
-14.38
-17.24
-19.79
-21.90
-23.63
-25.26
-27.18
-29.81
-33.35
-37.64
-42.11
-45.89
-48.04
-47.89
-45.16
-40.09
-33.28
-25.50
-17.47
-9.74
-2.68
3.52
8.82
13.23
16.73
19.32
20.98
21.72
21.67
21.06
20.15
19.22
18.43
17.83
17.45
17.31
17.45
17.90
18.57
19.29
19.83
19.94
19.54
18.59
17.21
15.51
13.66
11.80
10.01
8.32
6.64
4.80
2.68
0.26
-2.32
-4.83
-7.00
-8.71
-9.97
-10.96
-11.89
-12.98
-14.38
-16.14
-18.28
-20.71
-23.33
-26.02
-28.75
-31.55
-34.54
-37.82
-41.34
-44.78
-47.56
-48.90
-48.12
-44.81
-39.06
-31.49
-22.99
-14.54
-6.83
-0.18
5.43
10.18
14.20
17.44
19.79
21.15
21.61
21.45
21.05
20.76
20.77
21.08
21.55
21.96
22.17
22.15
21.94
21.67
21.44
21.27
21.12
20.87
20.47
19.89
19.13
18.21
17.15
15.91
14.48
12.86
11.03
9.00
6.75
4.32
1.83
-0.54
-2.58
-4.23
-5.56
-6.79
-8.17
-9.90
-12.05
-14.55
-17.21
-19.80
-22.09
-23.99
-25.58
-27.17
-29.15
-31.90
-35.54
-39.85
-44.25
-47.96
-50.14
-50.14
-47.61
-42.61
-35.61
-27.47
-19.20
-11.78
-5.81
-1.46
1.52
3.52
4.82
5.49
5.46
4.73
3.50
2.28
1.79
2.75
5.66
10.49
16.67
23.08
28.40
31.51
31.88
29.76
26.04
21.85
18.18
15.63
14.45
14.65
16.12
18.63
21.60
24.12
25.10
23.73
19.78
13.83
7.03
0.67
-4.22
-7.07
-7.73
-6.45
-3.76
-0.52
2.12
2.98
1.24
-3.18
-9.54
-16.53
-22.75
-27.24
-29.71
-30.46
-30.10
-29.27
-28.45
-27.95
-27.86
-28.04
-28.10
-27.51
-25.68
-22.26
-17.22
-10.81
-3.50
4.23
11.95
19.25
25.69
30.81
34.18
35.58
35.06
32.98
29.92
26.49
23.21
20.40
18.16
16.45
15.16
14.17
13.42
12.94
12.73
12.79
13.07
13.45
13.82
14.11
14.28
14.42
14.63
15.07
15.76
16.61
17.34
17.57
16.97
15.43
13.09
10.28
7.37
4.57
1.86
-0.94
-4.10
-7.76
-11.93
-16.45
-21.09
-25.64
-30.01
-34.29
-38.71
-43.64
-49.41
-56.22
-64.00
-72.36
-80.60
-87.86
-93.16
-95.73
-95.10
-91.31
-84.93
-76.89
-68.19
-59.52
-51.09
-42.65
-33.77
-24.23
-14.26
-4.51
4.15
11.04
15.81
18.59
19.83
20.05
19.69
19.08
18.39
17.83
17.60
17.85
18.64
19.79
20.96
21.66
21.52
20.38
18.36
15.82
13.22
10.94
9.18
7.98
7.20
6.70
6.37
6.22
6.35
6.94
8.11
9.80
11.72
13.42
14.40
14.32
13.12
10.98
8.15
4.88
1.21
-2.94
-7.72
-13.29
-19.81
-27.49
-36.61
-47.30
-59.26
-71.52
-82.49
-90.28
-93.32
-90.85
-83.20
-71.58
-57.60
-42.77
-28.12
-14.24
-1.45
9.89
19.43
27.00
32.96
38.25
44.00
51.06
59.35
67.82
74.91
79.22
80.22
78.46
75.20
71.82
69.24
67.78
67.33
67.64
68.52
69.87
71.44
72.81
73.34
72.39
69.48
64.47
57.67
49.74
41.47
33.58
26.50
20.30
14.78
9.67
4.81
0.28
-3.64
-6.52
-7.93
-7.62
-5.59
-2.10
2.39
7.38
12.41
17.13
21.25
24.52
26.68
27.55
27.13
25.71
23.82
22.12
21.13
21.00
21.43
21.73
21.15
19.16
15.73
11.40
7.15
4.16
3.37
5.28
9.75
16.18
23.75
31.71
39.57
47.08
54.13
60.66
66.49
71.41
75.21
77.82
79.22
79.49
78.63
76.59
73.23
68.51
62.59
55.86
48.74
41.56
34.52
27.67
21.15
15.18
10.22
6.71
4.79
4.05
3.58
2.31
-0.55
-5.25
-11.69
-19.42
-27.94
-36.89
-46.02
-55.07
-63.46
-70.27
-74.51
-75.81
-74.12
-69.60
-62.70
-54.31
-45.56
-37.51
-30.85
-25.84
-23.20
-22.89
-23.82
-24.33
-23.04
-19.23
-12.77
-3.97
6.52
16.72
25.52
33.18
40.33
46.30
48.51
43.26
27.23
-1.14
-42.48
-93.70
-148.28
-198.24
-236.89
-260.12
-266.30
-255.98
-221.62
-166.12
-104.01
-53.47
-24.67
-16.90
-23.01
-34.54
-45.01
-51.32
-55.90
-60.67
-65.62
-69.23
-70.15
-68.13
-63.74
-57.76
-50.73
-43.83
-36.71
-27.99
-16.03
-0.36
17.96
37.03
54.94
70.34
81.77
88.96
92.74
94.51
95.26
95.30
94.48
92.52
89.24
84.21
77.47
69.61
61.56
54.16
47.80
42.38
37.50
32.57
26.93
20.24
12.59
4.47
-3.28
-9.63
-13.42
-13.64
-9.74
-1.94
8.77
20.82
32.55
42.55
49.87
54.07
55.11
53.33
49.30
43.86
37.87
32.10
27.03
22.94
20.01
18.56
19.07
22.03
27.70
35.89
45.91
56.73
67.11
75.87
82.01
84.87
84.22
80.36
73.96
65.94
57.14
48.01
38.64
28.82
18.47
7.85
-2.29
-10.98
-17.37
-21.13
-22.62
-22.77
-22.72
-23.48
-25.64
-29.31
-34.12
-39.35
-44.15
-47.66
-49.27
-48.78
-46.53
-43.27
-39.97
-37.50
-36.37
-36.62
-37.82
-39.35
-40.55
-40.97
-40.49
-39.33
-37.97
-36.97
-36.77
-37.44
-38.65
-39.71
-39.73
-37.94
-33.96
-27.98
-20.71
-13.22
-6.64
-1.84
0.83
1.59
1.13
0.35
0.06
0.77
2.54
5.07
7.72
9.83
10.75
10.17
8.17
5.20
1.95
-0.96
-3.15
-4.59
-5.52
-6.30
-7.21
-8.44
-10.12
-12.38
-15.31
-18.84
-22.76
-26.64
-30.12
-33.05
-35.66
-38.41
-41.85
-46.33
-51.91
-58.39
-65.35
-72.38
-79.09
-85.19
-90.57
-95.36
-99.91
-104.59
-109.56
-114.29
-117.52
-117.29
-111.42
-98.05
-76.14
-45.72
-7.93
35.13
80.74
125.95
167.95
204.46
233.83
255.06
267.70
271.68
267.23
255.04
236.33
212.84
186.65
159.74
133.69
109.53
87.88
69.05
53.15
40.03
29.18
19.72
10.55
0.55
-11.19
-25.17
-41.36
-59.17
-77.51
-94.93
-110.00
-121.72
-129.79
-134.61
-136.98
-137.56
-136.51
-133.49
-127.97
-119.71
-109.02
-96.71
-83.70
-70.68
-57.95
-45.52
-33.47
-22.17
-12.24
-4.44
0.67
2.89
2.38
-0.47
-5.17
-11.23
-18.13
-25.20
-31.69
-36.78
-39.84
-40.60
-39.26
-36.43
-32.91
-29.38
-26.18
-23.34
-20.65
-17.93
-15.12
-12.23
-9.16
-5.57
-0.94
5.22
13.03
22.14
31.82
41.32
50.18
58.24
65.55
72.03
77.33
80.92
82.37
81.62
79.10
75.57
71.76
68.21
65.09
62.34
59.85
57.60
55.71
54.33
53.49
52.95
52.15
50.33
46.78
41.08
33.31
24.08
14.38
5.30
-2.33
-8.15
-12.31
-15.39
-18.16
-21.34
-25.42
-30.62
-36.90
-44.03
-51.57
-58.80
-64.69
-68.03
-67.86
-63.85
-56.60
-47.51
-38.19
-29.85
-22.85
-16.80
-11.02
-5.02
1.23
7.43
13.23
18.48
23.18
27.42
31.16
34.26
36.49
37.58
37.29
35.47
32.21
27.90
23.19
18.83
15.37
12.98
11.43
10.32
9.38
8.63
8.31
8.67
9.73
11.20
12.65
13.67
14.08
13.93
13.39
12.62
11.66
10.42
8.82
6.85
4.64
2.38
0.17
-2.03
-4.44
-7.30
-10.82
-14.96
-19.54
-24.28
-28.93
-33.37
-37.62
-41.80
-46.07
-50.49
-54.97
-59.21
-62.76
-65.12
-65.93
-65.00
-62.37
-58.19
-52.64
-45.96
-38.46
-30.56
-22.78
-15.61
-9.36
-4.14
0.15
3.67
6.57
8.91
10.72
12.03
12.92
13.47
13.71
13.65
13.29
12.73
12.18
11.89
12.04
12.63
13.56
14.60
15.59
16.39
16.94
17.16
17.01
16.39
15.32
13.87
12.26
10.67
9.26
8.02
6.83
5.51
3.92
2.02
-0.09
-2.27
-4.40
-6.45
-8.47
-10.56
-12.78
-15.07
-17.33
-19.46
-21.48
-23.59
-26.05
-29.11
-32.80
-36.84
-40.67
-43.58
-44.90
-44.19
-41.35
-36.58
-30.35
-23.24
-15.83
-8.62
-1.94
4.02
9.19
13.57
17.14
19.89
21.82
22.99
23.58
23.82
23.97
24.17
24.44
24.73
24.96
25.17
25.43
25.86
26.51
27.28
27.92
28.14
27.78
26.81
25.45
24.01
22.74
21.70
20.72
19.50
17.82
15.66
13.19
10.72
8.50
6.59
4.86
3.14
1.24
-0.86
-3.12
-5.41
-7.68
-9.89
-12.07
-14.26
-16.47
-18.74
-21.11
-23.69
-26.61
-29.98
-33.73
-37.59
-41.01
-43.29
-43.74
-41.90
-37.69
-31.44
-23.73
-15.31
-6.83
1.18
8.41
14.61
19.67
23.50
26.13
27.67
28.39
28.55
28.42
28.14
27.75
27.24
26.56
25.72
24.79
23.86
23.01
22.30
21.79
21.47
21.33
21.26
21.12
20.74
19.98
18.75
17.07
14.99
12.62
10.07
7.45
4.87
2.43
0.19
-1.82
-3.67
-5.46
-7.29
-9.23
-11.30
-13.45
-15.61
-17.68
-19.58
-21.30
-22.94
-24.71
-26.89
-29.64
-32.85
-36.09
-38.60
-39.57
-38.33
-34.67
-28.84
-21.46
-13.30
-5.06
2.70
9.62
15.45
19.98
23.16
25.01
25.72
25.59
24.97
24.14
23.32
22.63
22.12
21.81
21.68
21.69
21.77
21.87
21.93
21.91
21.77
21.44
20.80
19.79
18.40
16.73
14.91
13.06
11.23
9.35
7.31
5.07
2.64
0.13
-2.34
-4.73
-7.14
-9.70
-12.53
-15.61
-18.79
-21.83
-24.52
-26.80
-28.83
-30.96
-33.55
-36.76
-40.46
-44.11
-46.96
-48.21
-47.36
-44.26
-39.17
-32.62
-25.14
-17.21
-9.18
-1.36
5.92
12.35
17.63
21.64
24.41
26.09
26.88
26.98
26.52
25.68
24.66
23.66
22.84
22.26
21.86
21.55
21.29
21.07
20.92
20.85
20.80
20.65
20.25
19.50
18.34
16.83
15.03
13.10
11.14
9.21
7.29
5.26
3.00
0.42
-2.44
-5.44
-8.45
-11.39
-14.24
-17.03
-19.79
-22.53
-25.27
-28.14
-31.25
-34.66
-38.21
-41.48
-43.83
-44.61
-43.38
-40.00
-34.71
-27.97
-20.42
-12.66
-5.22
1.51
7.32
12.09
15.78
18.39
19.92
20.44
20.12
19.22
18.07
16.97
16.12
15.59
15.35
15.34
15.50
15.82
16.26
16.79
17.29
17.63
17.60
17.04
15.88
14.21
12.24
10.26
8.51
7.10
5.92
4.75
3.33
1.52
-0.70
-3.17
-5.66
-7.98
-9.98
-11.66
-13.11
-14.55
-16.25
-18.53
-21.61
-25.52
-29.99
-34.46
-38.14
-40.24
-40.15
-37.73
-33.22
-27.22
-20.45
-13.50
-6.78
-0.53
5.10
9.96
13.85
16.63
18.30
18.98
18.95
18.49
17.90
17.44
17.37
17.91
19.18
21.10
23.37
25.52
27.15
28.06
28.27
27.97
27.33
26.40
25.13
23.42
21.26
18.78
16.18
13.67
11.34
9.19
7.14
5.08
2.92
0.60
-1.88
-4.47
-7.12
-9.73
-12.25
-14.64
-16.91
-19.08
-21.20
-23.40
-25.83
-28.61
-31.66
-34.69
-37.10
-38.27
-37.68
-35.17
-30.91
-25.34
-19.02
-12.49
-6.15
-0.32
4.82
9.13
12.55
15.09
16.83
17.90
18.48
18.74
18.84
18.90
19.01
19.26
19.71
20.45
21.51
22.86
24.34
25.65
26.49
26.57
25.78
24.16
21.89
19.21
16.28
13.18
9.93
6.58
3.19
-0.09
-3.10
-5.73
-7.98
-9.98
-11.86
-13.77
-15.74
-17.73
-19.66
-21.44
-22.99
-24.31
-25.44
-26.51
-27.81
-29.65
-32.27
-35.70
-39.57
-43.15
-45.59
-46.12
-44.34
-40.34
-34.56
-27.67
-20.33
-13.07
-6.24
-0.05
5.37
10.02
13.89
17.03
19.46
21.17
22.20
22.61
22.58
22.36
22.21
22.29
22.65
23.22
23.85
24.35
24.62
24.61
24.37
23.97
23.45
22.76
21.73
20.14
17.87
14.97
11.65
8.25
5.04
2.15
-0.51
-3.15
-5.94
-8.95
-12.11
-15.29
-18.39
-21.30
-23.92
-26.08
-27.54
-28.16
-28.00
-27.42
-26.90
-26.84
-27.26
-27.76
-27.64
-26.25
-23.25
-18.75
-13.19
-7.08
-0.88
5.15
10.84
16.01
20.47
23.99
26.44
27.82
28.29
28.09
27.47
26.71
26.03
25.62
25.53
25.72
26.06
26.35
26.45
26.30
25.95
25.46
24.86
24.11
23.13
21.91
20.50
18.99
17.46
15.90
14.20
12.30
10.19
8.02
5.97
4.17
2.63
1.23
-0.20
-1.81
-3.65
-5.69
-7.89
-10.23
-12.74
-15.43
-18.31
-21.40
-24.72
-28.33
-32.22
-36.31
-40.26
-43.58
-45.63
-45.88
-44.00
-40.04
-34.40
-27.71
-20.68
-13.89
-7.75
-2.40
2.13
5.88
8.89
11.19
12.86
14.01
14.80
15.39
15.91
16.37
16.76
17.05
17.25
17.43
17.69
18.08
18.60
19.15
19.61
19.81
19.68
19.24
18.59
17.88
17.20
16.55
15.81
14.77
13.28
11.32
9.03
6.65
4.43
2.48
0.79
-0.80
-2.44
-4.25
-6.22
-8.31
-10.46
-12.61
-14.73
-16.80
-18.84
-20.99
-23.44
-26.40
-29.91
-33.70
-37.20
-39.69
-40.50
-39.32
-36.23
-31.64
-26.10
-20.10
-14.00
-8.06
-2.50
2.43
6.46
9.40
11.22
12.07
12.27
12.17
12.07
12.11
12.32
12.62
12.98
13.40
13.97
14.78
15.83
17.01
18.12
18.94
19.31
19.19
18.63
17.74
16.55
15.08
13.29
11.21
8.91
6.56
4.35
2.39
0.70
-0.80
-2.26
-3.81
-5.53
-7.44
-9.48
-11.52
-13.50
-15.35
-17.09
-18.77
-20.43
-22.07
-23.68
-25.34
-27.16
-29.33
-31.92
-34.70
-37.10
-38.28
-37.42
-34.00
-27.98
-19.79
-10.11
0.26
10.58
20.11
28.14
34.08
37.57
38.69
37.96
36.20
34.26
32.75
31.89
31.47
31.04
30.13
28.46
26.08
23.33
20.78
19.04
18.56
19.48
21.63
24.67
28.17
31.73
34.98
37.60
39.33
40.05
39.90
39.24
38.54
38.14
38.02
37.81
36.94
34.90
31.52
27.00
21.81
16.49
11.45
6.89
2.88
-0.56
-3.49
-6.02
-8.38
-10.87
-13.78
-17.28
-21.32
-25.65
-29.97
-34.09
-38.01
-41.81
-45.52
-48.87
-51.32
-52.29
-51.42
-48.87
-45.37
-41.90
-39.35
-38.11
-37.92
-38.06
-37.68
-36.21
-33.56
-30.04
-26.12
-22.07
-17.88
-13.34
-8.32
-2.98
2.20
6.63
9.89
11.92
13.00
13.57
13.96
14.33
14.72
15.09
15.47
15.82
16.03
15.90
15.24
14.01
12.35
10.48
8.58
6.72
4.77
2.58
0.03
-2.88
-6.07
-9.39
-12.74
-16.05
-19.34
-22.77
-26.69
-31.67
-38.29
-46.88
-57.17
-68.19
-78.41
-86.19
-90.35
-90.57
-87.38
-81.97
-75.65
-69.44
-63.80
-58.62
-53.38
-47.44
-40.32
-31.96
-22.87
-14.13
-7.10
-2.89
-1.69
-2.30
-2.34
1.02
9.95
24.97
44.58
65.74
84.88
99.04
106.62
107.53
102.81
94.11
83.27
72.03
61.92
54.11
49.13
46.68
45.63
44.28
40.98
34.72
25.58
14.74
4.01
-4.92
-11.10
-14.65
-16.57
-18.17
-20.49
-23.90
-28.21
-32.91
-37.62
-42.20
-46.81
-51.67
-56.92
-62.58
-68.48
-74.25
-79.23
-82.54
-83.09
-79.97
-72.70
-61.45
-47.07
-30.89
-14.28
1.61
16.01
28.51
38.92
47.24
53.57
58.13
61.23
63.13
63.99
63.77
62.33
59.67
56.05
52.10
48.64
46.43
45.84
46.81
48.81
51.15
53.18
54.44
54.68
53.84
52.01
49.40
46.33
43.03
39.57
35.71
31.07
25.27
18.27
10.36
2.16
-5.70
-12.68
-18.52
-23.12
-26.50
-28.72
-30.00
-30.69
-31.34
-32.52
-34.70
-38.07
-42.48
-47.45
-52.16
-55.60
-56.73
-54.72
-49.26
-40.68
-29.92
-18.24
-6.85
3.33
11.81
18.38
22.92
25.40
25.87
24.64
22.30
19.59
17.15
15.36
14.24
13.63
13.37
13.45
13.99
15.11
16.78
18.67
20.32
21.28
21.31
20.45
19.04
17.48
16.14
15.14
14.37
13.55
12.39
10.64
8.32
5.52
2.46
-0.76
-4.12
-7.74
-11.75
-16.21
-21.05
-26.05
-30.98
-35.58
-39.72
-43.36
-46.59
-49.60
-52.67
-56.01
-59.69
-63.42
-66.56
-68.20
-67.46
-63.80
-57.21
-48.25
-37.85
-26.96
-16.33
-6.36
2.76
10.94
18.05
23.88
28.31
31.32
33.09
33.94
34.18
34.04
33.69
33.26
32.91
32.85
33.23
34.04
35.08
36.00
36.50
36.44
35.92
35.17
34.41
33.71
32.94
31.86
30.29
28.23
25.89
23.59
21.66
20.18
18.99
17.68
15.82
13.17
9.85
6.30
3.14
0.85
-0.42
-0.94
-1.23
-1.80
-2.98
-4.80
-7.12
-9.62
-11.81
-12.96
-12.16
-8.61
-2.05
6.85
16.42
24.51
29.26
29.85
26.74
21.41
15.51
10.27
6.14
2.87
-0.01
-2.84
-5.70
-8.47
-10.97
-13.07
-14.64
-15.59
-15.81
-15.31
-14.21
-12.74
-11.14
-9.49
-7.72
-5.64
-3.17
-0.42
2.27
4.46
5.79
6.05
5.24
3.46
0.89
-2.28
-5.83
-9.52
-13.19
-16.75
-20.27
-23.91
-27.80
-31.96
-36.15
-40.05
-43.38
-46.05
-48.32
-50.73
-53.84
-58.04
-63.30
-69.08
-74.45
-78.29
-79.63
-77.86
-72.88
-65.12
-55.36
-44.63
-33.89
-23.90
-15.07
-7.31
-0.13
7.23
15.47
24.84
34.96
44.78
52.94
58.32
60.48
59.87
57.68
55.30
53.83
53.73
54.78
56.34
57.62
58.00
57.12
54.88
51.47
47.27
42.83
38.74
35.46
33.11
31.37
29.55
26.81
22.52
16.62
9.68
2.82
-2.68
-5.81
-6.21
-4.32
-1.23
1.58
2.68
1.10
-3.41
-10.31
-18.50
-26.67
-33.78
-39.41
-43.78
-47.48
-51.04
-54.47
-57.14
-58.01
-56.06
-50.78
-42.39
-31.70
-19.79
-7.66
3.93
14.50
23.65
31.06
36.41
39.60
40.80
40.45
39.18
37.61
36.15
35.02
34.28
33.99
34.25
35.23
37.04
39.59
42.50
45.17
46.91
47.20
45.89
43.21
39.67
35.81
32.03
28.41
24.76
20.75
16.10
10.72
4.79
-1.38
-7.46
-13.30
-18.93
-24.47
-29.92
-35.07
-39.48
-42.72
-44.61
-45.32
-45.35
-45.29
-45.65
-46.69
-48.50
-51.14
-54.62
-58.82
-63.35
-67.44
-69.96
-69.75
-65.91
-58.11
-46.74
-32.81
-17.72
-2.96
10.18
20.78
28.46
33.23
35.48
35.80
34.85
33.28
31.67
30.47
29.96
30.22
31.11
32.35
33.62
34.68
35.41
35.86
36.13
36.28
36.28
35.97
35.18
33.76
31.69
28.99
25.84
22.44
19.05
15.90
13.08
10.46
7.70
4.32
-0.05
-5.48
-11.67
-18.05
-23.95
-28.86
-32.56
-35.11
-36.73
-37.69
-38.25
-38.62
-38.99
-39.55
-40.52
-42.11
-44.44
-47.41
-50.55
-53.03
-53.79
-51.88
-46.85
-38.93
-28.99
-18.19
-7.59
2.13
10.67
18.00
24.14
29.06
32.69
35.00
36.06
36.02
35.07
33.47
31.54
29.67
28.24
27.54
27.59
28.15
28.80
29.18
29.09
28.65
28.10
27.66
27.35
27.00
26.34
25.14
23.37
21.10
18.46
15.49
12.14
8.38
4.33
0.31
-3.16
-5.63
-6.98
-7.50
-7.92
-9.00
-11.30
-14.86
-19.25
-23.82
-28.06
-31.79
-35.22
-38.76
-42.78
-47.40
-52.50
-57.73
-62.57
-66.43
-68.62
-68.55
-65.79
-60.23
-52.15
-42.16
-31.05
-19.68
-8.82
0.81
8.63
14.20
17.38
18.45
18.13
17.51
17.66
19.37
22.76
27.25
31.84
35.51
37.74
38.69
39.14
40.05
42.01
44.94
48.15
50.74
52.05
51.97
50.87
49.30
47.59
45.66
43.15
39.65
34.94
29.16
22.70
16.00
9.46
3.33
-2.24
-7.20
-11.61
-15.59
-19.31
-22.86
-26.19
-29.16
-31.60
-33.53
-35.24
-37.30
-40.33
-44.70
-50.24
-56.12
-61.03
-63.62
-62.95
-58.86
-51.99
-43.39
-34.17
-25.06
-16.34
-8.00
-0.01
7.54
14.30
19.88
23.87
25.92
25.75
23.29
18.85
13.35
8.33
5.61
6.78
12.47
22.12
34.10
46.26
56.56
63.63
66.97
66.81
63.96
59.44
54.33
49.51
45.51
42.37
39.76
37.09
33.85
29.80
25.01
19.70
14.06
8.20
2.07
-4.30
-10.76
-17.00
-22.59
-27.24
-30.95
-34.02
-37.03
-40.57
-45.08
-50.64
-57.08
-64.04
-71.12
-77.84
-83.59
-87.50
-88.60
-86.06
-79.60
-69.66
-57.37
-44.11
-31.10
-19.09
-8.41
0.79
8.33
13.86
17.15
18.31
18.01
17.39
17.73
19.96
24.46
30.99
38.86
47.37
55.92
64.15
71.83
78.61
83.92
87.05
87.40
84.78
79.69
73.10
66.19
59.82
54.27
49.25
44.19
38.62
32.46
26.05
19.98
14.80
10.85
8.18
6.54
5.50
4.46
2.71
-0.39
-5.27
-11.90
-19.79
-28.11
-36.07
-43.22
-49.58
-55.57
-61.73
-68.40
-75.46
-82.26
-87.78
-90.85
-90.48
-86.18
-78.17
-67.40
-55.35
-43.59
-33.34
-25.14
-18.84
-13.84
-9.44
-5.19
-0.99
2.92
6.24
8.70
10.25
11.07
11.45
11.70
12.07
12.73
13.82
15.47
17.83
21.01
25.01
29.63
34.49
39.20
43.40
46.85
49.37
50.68
50.28
47.60
42.15
33.89
23.39
11.78
0.48
-9.25
-16.64
-21.52
-24.21
-25.26
-25.17
-24.30
-22.91
-21.30
-19.92
-19.32
-20.08
-22.64
-27.12
-33.26
-40.36
-47.43
-53.37
-57.23
-58.41
-56.68
-52.18
-45.24
-36.30
-25.85
-14.45
-2.73
8.60
18.86
27.50
34.06
38.25
39.93
39.23
36.68
33.23
30.13
28.54
29.13
31.83
35.83
39.99
43.28
45.20
45.77
45.38
44.46
43.17
41.42
38.94
35.56
31.31
26.49
21.60
17.12
13.39
10.47
8.18
6.08
3.70
0.72
-2.93
-7.01
-11.09
-14.74
-17.76
-20.31
-22.79
-25.67
-29.19
-33.20
-37.23
-40.73
-43.41
-45.41
-47.21
-49.44
-52.56
