1625069848.00
64.000000
-0.00
-0.00
-0.00
-0.00
-0.00
-0.00
-0.00
-0.00
-0.00
-0.00
0.00
0.01
0.01
-0.00
-0.03
-0.05
-0.05
0.00
0.13
0.36
0.66
1.01
1.37
1.72
2.06
2.40
2.79
3.24
3.80
4.42
5.06
5.66
6.20
6.68
7.15
7.68
8.31
9.14
10.09
11.04
11.88
12.56
13.14
13.76
14.65
15.96
17.91
20.32
22.90
25.38
27.58
29.57
31.68
34.32
37.81
42.54
48.15
54.10
59.83
64.97
69.58
74.14
79.34
85.71
93.76
103.00
112.62
121.73
129.77
136.75
143.30
150.75
157.77
166.64
177.95
191.79
206.97
220.57
228.25
225.36
208.53
176.87
132.76
80.05
23.07
-34.94
-92.44
-149.16
-205.23
-260.37
-313.74
-363.87
-409.83
-450.91
-486.50
-515.74
-537.23
-549.22
-549.96
-538.37
-514.21
-478.67
-433.88
-382.45
-327.02
-269.84
-212.63
-156.66
-102.95
-52.37
-5.90
35.58
71.43
101.35
125.50
144.38
158.69
169.15
176.37
180.75
182.57
182.07
179.51
175.23
169.65
163.18
156.15
148.81
141.30
133.69
126.02
118.33
110.69
103.16
95.80
88.68
81.83
75.25
68.95
62.95
57.25
51.86
46.78
42.03
37.59
33.45
29.61
26.07
22.81
19.83
17.11
14.67
12.48
10.54
8.83
7.35
6.07
4.97
4.05
3.27
2.62
2.09
1.65
1.30
1.01
0.79
0.61
0.48
0.38
0.30
0.25
0.21
0.20
0.19
0.20
0.22
0.24
0.27
0.31
0.35
0.39
0.44
0.48
0.53
0.58
0.63
0.69
0.75
0.81
0.88
0.95
1.04
1.13
1.23
1.34
1.47
1.61
1.77
1.95
2.15
2.37
2.61
2.88
3.18
3.51
3.87
4.27
4.70
5.16
5.67
6.21
6.79
7.42
8.09
8.81
9.57
10.37
11.22
12.12
13.06
14.06
15.12
16.24
17.43
18.67
19.96
21.27
22.54
23.70
24.66
25.28
25.47
25.08
24.04
22.27
19.77
16.58
12.77
8.52
3.98
-0.61
-5.05
-9.13
-12.67
-15.54
-17.65
-18.99
-19.60
-19.60
-19.10
-18.24
-17.12
-15.80
-14.31
-12.70
-10.96
-9.11
-7.26
-5.45
-3.72
-2.09
-0.49
1.14
2.85
4.69
6.69
8.68
10.54
12.24
13.81
15.35
17.04
19.05
21.46
24.31
27.19
29.81
32.01
33.83
35.52
37.43
39.88
43.03
46.82
50.51
53.47
55.34
56.16
56.36
56.55
57.27
58.74
60.81
62.26
62.00
59.30
53.93
46.07
35.94
23.34
6.99
-10.50
-29.07
-49.27
-71.97
-98.06
-128.03
-161.18
-195.00
-225.21
-246.55
-255.25
-249.73
-231.51
-204.76
-174.61
-145.38
-119.43
-97.11
-77.61
-60.61
-46.02
-33.95
-24.20
-15.98
-8.17
0.11
8.96
17.73
25.12
30.27
33.17
34.59
35.55
36.76
38.26
39.48
39.81
38.88
36.95
34.73
32.91
31.79
31.23
30.84
30.23
29.17
27.43
24.75
20.84
15.51
9.05
2.32
-3.37
-6.68
-6.83
-3.95
0.97
6.45
11.15
14.26
15.70
15.97
15.73
15.47
15.29
14.93
14.01
12.39
10.34
8.49
7.51
7.72
8.81
10.07
10.77
10.68
10.26
10.38
11.75
14.37
17.45
19.75
20.21
18.57
15.39
11.75
8.61
6.39
4.87
3.56
2.07
0.42
-1.09
-2.15
-2.80
-3.44
-4.67
-6.90
-10.05
-13.48
-16.24
-17.48
-16.82
-14.43
-10.92
-6.97
-3.05
0.70
4.29
7.64
10.41
11.99
11.88
10.07
7.27
4.76
3.96
5.74
9.99
15.57
20.81
24.19
24.97
23.37
20.33
17.01
14.25
12.34
11.06
9.95
8.53
6.52
3.86
0.69
-2.66
-5.74
-8.00
-9.04
-8.75
-7.50
-5.99
-4.98
-4.94
-5.88
-7.50
-9.46
-11.57
-13.90
-16.33
-18.38
-19.18
-17.86
-14.11
-8.51
-2.42
2.65
5.75
6.91
6.92
6.83
7.38
8.70
10.45
12.09
13.21
13.60
13.22
12.18
10.71
9.10
7.67
6.59
5.88
5.40
5.06
4.93
5.22
6.06
7.35
8.66
9.40
9.14
7.85
5.89
3.79
1.94
0.39
-1.16
-3.15
-5.86
-9.33
-13.31
-17.38
-21.12
-24.20
-26.37
-27.50
-27.44
-26.06
-23.24
-18.92
-13.24
-6.62
0.18
6.27
10.88
13.72
15.09
15.79
16.64
18.05
19.80
21.16
21.43
20.37
18.38
16.25
14.71
13.99
13.76
13.46
12.62
11.20
9.47
7.86
6.69
6.11
6.09
6.52
7.22
7.92
8.28
8.16
7.61
6.99
6.67
6.77
6.97
6.64
5.17
2.42
-1.21
-4.93
-8.03
-10.25
-11.89
-13.51
-15.52
-17.87
-19.99
-21.11
-20.59
-18.32
-14.75
-10.66
-6.89
-3.93
-1.83
-0.30
0.99
2.21
3.21
3.71
3.47
2.56
1.33
0.28
-0.23
-0.10
0.43
0.95
1.09
0.71
-0.06
-0.88
-1.34
-1.21
-0.49
0.61
1.72
2.53
2.78
2.41
1.52
0.28
-1.08
-2.34
-3.28
-3.80
-3.93
-3.87
-3.92
-4.41
-5.57
-7.47
-10.03
-13.00
-16.02
-18.66
-20.47
-21.07
-20.28
-18.19
-15.15
-11.64
-8.10
-4.87
-2.04
0.39
2.48
4.15
5.20
5.39
4.59
2.92
0.89
-0.78
-1.34
-0.37
2.01
5.13
8.03
9.82
10.03
8.75
6.54
4.08
1.89
0.21
-1.03
-2.00
-2.76
-3.24
-3.24
-2.69
-1.76
-0.95
-0.83
-1.84
-4.05
-7.10
-10.42
-13.51
-16.20
-18.51
-20.46
-21.80
-21.97
-20.33
-16.59
-11.10
-4.80
1.12
5.77
8.90
10.84
12.21
13.49
14.75
15.75
16.20
15.99
15.33
14.53
13.88
13.46
13.17
12.89
12.53
12.07
11.42
10.39
8.72
6.33
3.39
0.36
-2.21
-3.93
-4.77
-4.97
-4.91
-4.85
-4.88
-5.00
-5.26
-5.75
-6.54
-7.58
-8.73
-9.82
-10.90
-12.23
-14.18
-16.92
-20.24
-23.49
-25.88
-26.75
-25.88
-23.43
-19.85
-15.56
-10.89
-6.04
-1.18
3.42
7.39
10.35
12.11
12.82
13.00
13.43
14.72
17.10
20.18
23.22
25.38
26.26
25.93
24.89
23.68
22.59
21.54
20.26
18.58
16.58
14.56
12.83
11.47
10.24
8.70
6.47
3.39
-0.32
-4.29
-8.17
-11.76
-15.12
-18.39
-21.62
-24.62
-26.96
-28.14
-27.79
-25.88
-22.71
-18.92
-15.16
-12.04
-9.85
-8.56
-7.88
-7.38
-6.77
-6.04
-5.55
-5.80
-7.15
-9.66
-12.89
-16.24
-19.08
-21.01
-21.81
-21.35
-19.49
-16.20
-11.73
-6.76
-2.29
0.81
2.19
2.22
1.80
1.83
2.74
4.36
6.16
7.74
9.07
10.45
12.13
13.96
15.26
14.96
12.05
6.00
-2.90
-13.44
-23.77
-31.90
-36.35
-36.74
-33.90
-29.59
-25.54
-22.65
-20.58
-18.06
-13.69
-6.71
2.82
14.40
27.74
43.04
60.92
81.82
105.52
131.02
156.64
180.31
199.90
213.23
218.34
213.75
199.07
175.29
144.74
110.53
75.73
42.78
13.24
-12.10
-32.84
-48.84
-60.24
-67.67
-72.20
-75.22
-77.93
-81.02
-84.47
-87.71
-89.99
-90.70
-89.61
-86.79
-82.47
-76.87
-70.22
-62.76
-54.83
-46.86
-39.20
-32.15
-25.81
-20.19
-15.33
-11.28
-8.10
-5.77
-4.08
-2.77
-1.51
-0.08
1.56
3.34
5.11
6.72
8.09
9.17
9.92
10.30
10.26
9.78
8.92
7.81
6.58
5.40
4.36
3.47
2.65
1.70
0.38
-1.52
-4.09
-7.22
-10.47
-13.21
-14.79
-14.73
-12.89
-9.61
-5.52
-1.34
2.36
5.31
7.45
8.91
9.76
9.96
9.39
8.10
6.28
4.35
2.76
1.84
1.61
1.85
2.24
2.56
2.77
2.93
3.12
3.29
3.26
2.82
1.83
0.36
-1.45
-3.43
-5.49
-7.71
-10.22
-13.10
-16.25
-19.29
-21.67
-22.86
-22.49
-20.57
-17.46
-13.70
-9.90
-6.50
-3.71
-1.58
-0.00
1.15
2.04
2.85
3.73
4.77
5.98
7.20
8.25
8.91
9.01
8.51
7.49
6.15
4.80
3.72
3.07
2.80
2.69
2.36
1.53
0.08
-1.84
-3.92
-5.80
-7.26
-8.29
-9.07
-9.91
-11.11
-12.86
-15.23
-18.07
-21.06
-23.65
-25.26
-25.33
-23.57
-20.03
-15.17
-9.73
-4.45
0.11
3.73
6.53
8.77
10.67
12.32
13.65
14.56
15.04
15.25
15.42
15.76
16.36
17.05
17.54
17.47
16.65
15.12
13.21
11.40
10.14
9.64
9.75
10.02
9.87
8.86
6.84
4.06
1.07
-1.50
-3.12
-3.52
-2.85
-1.69
-1.06
-2.18
-6.13
-13.35
-23.28
-34.35
-44.36
-51.11
-53.08
-49.79
-41.82
-30.48
-17.31
-3.78
8.96
20.10
29.14
35.85
40.25
42.59
43.24
42.68
41.42
39.86
38.29
36.80
35.32
33.71
31.94
30.08
28.35
26.96
25.99
25.34
24.81
24.20
23.37
22.31
21.06
19.70
18.28
16.88
15.54
14.31
13.19
12.12
10.99
9.71
8.21
6.52
4.65
2.64
0.45
-1.91
-4.37
-6.72
-8.62
-9.71
-9.70
-8.58
-6.57
-4.13
-1.85
-0.15
0.77
1.00
0.81
0.45
0.04
-0.46
-1.18
-2.17
-3.32
-4.36
-5.01
-5.14
-4.85
-4.41
-4.17
-4.31
-4.80
-5.46
-6.03
-6.35
-6.41
-6.33
-6.30
-6.44
-6.76
-7.20
-7.66
-8.06
-8.42
-8.79
-9.29
-10.03
-11.06
-12.40
-14.00
-15.77
-17.52
-19.03
-20.03
-20.29
-19.67
-18.18
-16.01
-13.42
-10.71
-8.18
-6.03
-4.34
-3.12
-2.25
-1.55
-0.84
0.00
0.98
1.96
2.79
3.40
3.81
4.17
4.60
5.11
5.62
6.00
6.17
6.16
6.04
5.87
5.56
4.99
4.11
3.02
2.00
1.37
1.30
1.72
2.29
2.64
2.51
1.80
0.66
-0.66
-1.99
-3.23
-4.37
-5.50
-6.69
-8.01
-9.48
-11.06
-12.64
-14.01
-14.88
-15.01
-14.26
-12.69
-10.58
-8.28
-6.12
-4.25
-2.63
-1.12
0.40
1.95
3.41
4.65
5.57
6.21
6.75
7.36
8.17
9.18
10.25
11.29
12.25
13.18
14.13
15.11
15.98
16.60
16.86
16.81
16.65
16.64
16.90
17.34
17.73
17.78
17.38
16.62
15.72
14.91
14.26
13.67
12.91
11.79
10.24
8.33
6.25
4.10
1.98
-0.12
-2.16
-4.00
-5.42
-6.21
-6.26
-5.62
-4.51
-3.30
-2.31
-1.75
-1.69
-2.07
-2.73
-3.53
-4.41
-5.35
-6.38
-7.53
-8.75
-9.93
-10.92
-11.59
-11.91
-11.87
-11.55
-10.99
-10.25
-9.39
-8.49
-7.65
-6.93
-6.41
-6.15
-6.18
-6.48
-6.99
-7.57
-8.07
-8.37
-8.44
-8.32
-8.13
-7.91
-7.73
-7.67
-7.90
-8.65
-10.07
-12.09
-14.36
-16.34
-17.46
-17.39
-16.14
-14.05
-11.62
-9.33
-7.50
-6.24
-5.51
-5.17
-5.05
-5.01
-4.94
-4.81
-4.61
-4.35
-4.05
-3.69
-3.26
-2.74
-2.07
-1.19
-0.08
1.23
2.59
3.78
4.57
4.85
4.66
4.11
3.38
2.61
1.94
1.53
1.51
1.94
2.72
3.66
4.48
4.98
5.13
5.06
4.99
5.07
5.28
5.50
5.53
5.19
4.44
3.35
2.11
1.00
0.31
0.27
1.02
2.49
4.36
6.16
7.32
7.41
6.29
4.17
1.58
-0.87
-2.77
-4.03
-4.90
-5.78
-6.93
-8.32
-9.58
-10.19
-9.72
-8.06
-5.44
-2.32
0.77
3.43
5.48
6.93
7.84
8.33
8.46
8.39
8.31
8.52
9.21
10.38
11.74
12.74
12.87
11.81
9.67
6.85
3.96
1.44
-0.47
-1.83
-2.80
-3.53
-4.14
-4.66
-5.18
-5.80
-6.61
-7.58
-8.52
-9.18
-9.41
-9.35
-9.41
-10.01
-11.40
-13.40
-15.49
-17.01
-17.52
-16.98
-15.70
-14.13
-12.67
-11.46
-10.51
-9.76
-9.27
-9.24
-9.82
-11.00
-12.52
-13.93
-14.69
-14.51
-13.40
-11.70
-10.00
-8.79
-8.38
-8.73
-9.50
-10.22
-10.53
-10.31
-9.77
-9.33
-9.35
-9.95
-10.90
-11.68
-11.78
-10.81
-8.76
-5.82
-2.33
1.43
5.22
8.88
12.23
15.02
17.03
18.13
18.33
17.80
16.79
15.54
14.21
12.84
11.36
9.58
7.35
4.63
1.59
-1.41
-3.95
-5.72
-6.59
-6.60
-5.90
-4.64
-2.96
-1.02
0.95
2.73
4.10
5.02
5.51
5.67
5.53
5.01
3.98
2.31
0.08
-2.49
-5.03
-7.10
-8.32
-8.41
-7.26
-5.01
-1.97
1.38
4.55
7.14
8.96
10.01
10.40
10.29
9.78
8.96
7.90
6.71
5.50
4.41
3.49
2.79
2.33
2.12
2.16
2.41
2.72
2.94
2.88
2.43
1.56
0.36
-1.05
-2.54
-4.02
-5.42
-6.73
-7.99
-9.28
-10.72
-12.44
-14.51
-16.85
-19.20
-21.18
-22.33
-22.32
-21.07
-18.78
-15.86
-12.82
-10.03
-7.73
-6.01
-4.88
-4.32
-4.29
-4.67
-5.25
-5.77
-5.98
-5.75
-5.15
-4.32
-3.49
-2.89
-2.58
-2.52
-2.50
-2.30
-1.72
-0.80
0.21
0.85
0.68
-0.57
-2.82
-5.70
-8.64
-11.10
-12.76
-13.63
-14.09
-14.70
-16.06
-18.51
-21.94
-25.72
-28.86
-30.42
-29.90
-27.50
-24.02
-20.52
-17.79
-16.07
-14.96
-13.72
-11.69
-8.66
-4.93
-1.23
1.61
2.92
2.33
-0.15
-4.01
-8.08
-10.58
-9.43
-3.01
8.99
25.04
42.01
56.12
64.33
65.32
59.72
49.53
37.09
24.32
12.45
2.24
-5.70
-10.83
-13.03
-12.87
-11.74
-11.34
-12.98
-16.97
-22.44
-27.77
-31.29
-32.13
-30.46
-27.42
-24.72
-24.07
-26.61
-32.39
-39.75
-45.19
-44.00
-31.81
-6.65
29.51
70.73
108.81
136.28
149.08
147.69
136.11
119.48
101.72
84.41
67.24
49.59
31.75
15.24
2.00
-6.88
-11.87
-14.84
-18.13
-23.34
-30.59
-38.64
-45.61
-49.86
-50.50
-47.35
-40.72
-31.12
-19.38
-6.74
4.98
13.82
18.28
17.99
13.88
7.74
1.43
-3.90
-8.01
-11.32
-14.36
-17.24
-19.59
-20.92
-20.96
-19.96
-18.57
-17.47
-16.93
-16.72
-16.22
-14.83
-12.31
-8.94
-5.35
-2.20
0.12
1.66
2.77
3.87
5.18
6.60
7.83
8.44
8.15
6.97
5.16
3.20
1.53
0.39
-0.35
-1.10
-2.46
-4.85
-8.39
-12.67
-16.92
-20.21
-21.71
-21.02
-18.21
-13.81
-8.67
-3.65
0.59
3.78
5.99
7.52
8.69
9.71
10.62
11.34
11.78
11.89
11.72
11.42
11.15
11.08
11.23
11.55
11.86
12.01
11.90
11.56
11.12
10.66
10.20
9.63
8.78
7.55
6.01
4.33
2.73
1.34
0.17
-0.87
-1.88
-2.96
-4.19
-5.69
-7.65
-10.23
-13.50
-17.34
-21.35
-24.96
-27.50
-28.35
-27.16
-23.90
-18.98
-13.07
-7.04
-1.61
2.79
6.10
8.56
10.50
12.19
13.72
15.15
16.49
17.85
19.30
20.82
22.18
23.06
23.20
22.60
21.57
20.54
19.91
19.80
20.05
20.27
20.08
19.26
17.78
15.81
13.65
11.75
10.63
10.79
12.58
15.96
20.51
25.38
29.62
32.33
32.97
31.38
27.75
22.45
15.91
8.69
1.43
-5.08
-10.01
-12.72
-12.98
-11.07
-7.73
-3.91
-0.49
2.02
3.54
4.31
4.70
5.00
5.28
5.46
5.41
5.06
4.52
4.02
3.79
3.96
4.46
5.02
5.37
5.34
4.96
4.42
3.94
3.66
3.55
3.42
3.04
2.25
1.03
-0.47
-2.06
-3.59
-5.01
-6.41
-7.90
-9.58
-11.48
-13.54
-15.73
-17.99
-20.21
-22.23
-23.73
-24.31
-23.60
-21.43
-17.97
-13.67
-9.10
-4.84
-1.23
1.62
3.73
5.26
6.32
7.00
7.46
7.88
8.48
9.44
10.81
12.43
13.97
15.02
15.29
14.78
13.79
12.91
12.73
13.60
15.34
17.20
18.08
16.81
12.62
5.33
-4.57
-16.00
-27.59
-37.92
-45.72
-50.17
-50.99
-48.51
-43.57
-37.33
-31.04
-25.81
-22.45
-21.34
-22.50
-25.55
-29.91
-34.92
-40.14
-45.38
-50.67
-56.09
-61.60
-66.90
-71.62
-75.43
-78.24
-80.20
-81.56
-82.64
-83.82
-85.63
-88.76
-93.80
-100.77
-108.69
-115.63
-119.34
-118.13
-111.74
-101.43
-89.35
-77.31
-65.88
-54.18
-40.62
-24.09
-4.77
15.78
35.35
52.00
64.62
72.86
76.78
76.42
71.80
63.16
51.31
37.74
24.39
13.10
5.05
0.43
-1.49
-1.88
-1.82
-2.04
-2.89
-4.68
-7.88
-12.76
-18.63
-23.04
-21.77
-9.98
15.61
54.75
103.15
153.89
200.39
239.15
270.87
299.34
328.73
361.01
394.75
425.73
448.83
459.95
457.20
440.99
413.17
376.11
331.94
282.31
228.55
171.86
113.35
54.04
-5.27
-63.81
-120.46
-173.43
-220.29
-258.64
-287.27
-307.20
-321.63
-334.78
-349.56
-365.57
-378.46
-381.23
-366.80
-330.79
-272.95
-196.67
-107.36
-10.71
87.96
183.26
269.00
338.20
384.38
403.68
396.52
367.90
325.65
277.62
229.17
182.06
135.15
86.26
34.38
-19.29
-71.30
-117.07
-152.20
-173.19
-177.50
-163.43
-130.23
-78.94
-13.79
57.20
123.06
172.53
197.47
195.35
169.56
127.27
76.00
20.90
-35.82
-93.29
-149.64
-200.66
-240.53
-264.02
-269.05
-257.78
-235.71
-209.31
-183.60
-160.78
-140.46
-121.25
-102.32
-84.30
-68.94
-58.06
-52.47
-51.46
-53.15
-55.33
-56.36
-55.73
-54.01
-52.26
-51.38
-51.55
-52.13
-52.00
-50.18
-46.33
-40.97
-35.18
-30.11
-26.40
-23.92
-21.90
-19.42
-15.86
-11.34
-6.65
-2.96
-1.26
-1.88
-4.25
-7.13
-9.10
-9.07
-6.72
-2.47
2.81
8.21
13.10
17.23
20.56
23.09
24.77
25.60
25.64
25.15
24.46
23.80
23.19
22.41
21.11
18.89
15.48
10.73
4.64
-2.59
-10.56
-18.60
-25.93
-31.75
-35.45
-36.79
-35.91
-33.25
-29.39
-24.94
-20.42
-16.30
-12.99
-10.90
-10.33
-11.51
-14.48
-19.02
-24.66
-30.67
-36.14
-40.21
-42.23
-41.85
-39.05
-34.16
-27.60
-19.95
-11.80
-3.76
3.59
9.73
14.24
16.88
17.66
16.85
14.97
12.76
10.95
10.08
10.29
11.32
12.66
13.76
14.21
13.90
12.84
11.18
9.01
6.41
3.48
0.38
-2.67
-5.38
-7.57
-9.16
-10.25
-11.01
-11.54
-11.81
-11.66
-10.86
-9.32
-7.13
-4.65
-2.29
-0.40
0.94
1.89
2.74
3.74
4.96
6.34
7.65
8.66
9.18
9.06
8.27
6.85
4.94
2.76
0.52
-1.60
-3.53
-5.28
-6.87
-8.34
-9.64
-10.76
-11.71
-12.60
-13.54
-14.63
-15.82
-16.99
-18.02
-18.84
-19.54
-20.37
-21.55
-23.17
-25.07
-26.75
-27.59
-27.01
-24.66
-20.58
-15.20
-9.10
-2.86
3.13
8.68
13.73
18.27
22.23
25.54
28.17
30.15
31.62
32.70
33.51
34.12
34.55
34.85
35.07
35.20
35.20
34.97
34.41
33.43
31.95
29.94
27.35
24.13
20.26
15.82
10.98
6.02
1.24
-3.14
-7.03
-10.49
-13.67
-16.72
-19.70
-22.53
-25.02
-26.91
-27.86
-27.65
-26.15
-23.47
-19.97
-16.21
-12.85
-10.43
-9.12
-8.67
-8.46
-7.83
-6.32
-3.92
-1.02
1.77
3.87
4.97
5.00
4.15
2.69
0.93
-0.80
-2.17
-2.94
-3.01
-2.47
-1.62
-0.82
-0.34
-0.28
-0.58
-1.04
-1.42
-1.45
-0.93
0.30
2.25
4.74
7.38
9.66
11.05
11.22
10.10
8.00
5.50
3.37
2.30
2.71
4.59
7.47
10.61
13.23
14.84
15.33
15.02
14.39
13.93
13.94
14.50
15.55
17.01
18.79
20.86
23.08
25.22
26.93
27.81
27.57
26.16
23.76
20.73
17.44
14.16
10.98
7.86
4.67
1.29
-2.38
-6.28
-10.28
-14.04
-17.18
-19.36
-20.41
-20.39
-19.59
-18.48
-17.52
-17.07
-17.28
-18.01
-18.88
-19.38
-19.10
-17.83
-15.68
-13.07
-10.46
-8.21
-6.42
-4.98
-3.77
-2.70
-1.84
-1.35
-1.33
-1.76
-2.54
-3.44
-4.21
-4.60
-4.41
-3.47
-1.72
0.82
4.03
7.63
11.26
14.46
16.72
17.58
16.74
14.18
10.24
5.59
1.10
-2.41
-4.36
-4.61
-3.44
-1.46
0.62
2.14
2.65
1.90
-0.08
-3.12
-6.85
-10.69
-13.95
-15.95
-16.26
-14.80
-11.88
-8.06
-3.94
0.07
3.71
6.90
9.55
11.57
12.93
13.71
14.16
14.63
15.39
16.57
18.00
19.30
20.04
19.79
18.30
15.63
12.08
8.27
4.91
2.63
1.82
2.54
4.49
7.22
10.17
12.80
14.66
15.44
15.01
13.52
11.33
8.99
7.04
5.83
5.42
5.59
5.97
6.17
5.96
5.29
4.28
3.12
2.01
1.08
0.35
-0.19
-0.63
-1.05
-1.52
-2.11
-2.88
-3.89
-5.22
-6.85
-8.70
-10.57
-12.19
-13.28
-13.64
-13.19
-12.02
-10.24
-8.00
-5.44
-2.70
0.07
2.57
4.51
5.63
5.83
5.20
4.01
2.54
0.94
-0.77
-2.71
-5.01
-7.76
-10.93
-14.34
-17.77
-20.87
-23.32
-24.77
-24.99
-23.87
-21.49
-18.15
-14.26
-10.25
-6.45
-3.04
-0.08
2.47
4.70
6.70
8.57
10.41
12.28
14.16
15.87
17.10
17.45
16.58
14.36
10.88
6.48
1.64
-3.13
-7.39
-10.79
-13.10
-14.24
-14.34
-13.64
-12.53
-11.36
-10.35
-9.62
-9.11
-8.76
-8.56
-8.52
-8.71
-9.18
-9.98
-11.15
-12.68
-14.50
-16.36
-17.83
-18.37
-17.51
-15.13
-11.53
-7.37
-3.44
-0.37
1.68
2.96
3.95
5.11
6.68
8.65
10.84
13.04
15.08
16.82
18.10
18.71
18.50
17.41
15.54
13.21
10.80
8.67
7.07
6.05
5.54
5.37
5.32
5.15
4.62
3.52
1.76
-0.61
-3.38
-6.22
-8.81
-10.92
-12.49
-13.59
-14.32
-14.75
-14.92
-14.95
-14.96
-15.16
-15.63
-16.25
-16.67
-16.41
-15.06
-12.44
-8.63
-3.89
1.50
7.28
13.17
18.80
23.66
27.16
28.87
28.70
27.02
24.49
21.89
19.79
18.51
18.04
18.24
18.97
20.17
21.78
23.65
25.54
27.10
28.01
28.03
27.08
25.18
22.41
18.82
14.49
9.57
4.27
-1.13
-6.42
-11.45
-16.16
-20.49
-24.24
-27.08
-28.60
-28.46
-26.58
-23.22
-18.92
-14.34
-10.07
-6.49
-3.75
-1.80
-0.57
-0.07
-0.38
-1.57
-3.57
-6.07
-8.55
-10.38
-11.05
-10.32
-8.36
-5.63
-2.74
-0.24
1.56
2.65
3.22
3.51
3.68
3.69
3.39
2.61
1.32
-0.31
-2.01
-3.47
-4.58
-5.36
-6.00
-6.69
-7.65
-9.13
-11.41
-14.77
-19.32
-24.74
-30.26
-34.73
-36.99
-36.26
-32.50
-26.39
-19.10
-11.90
-5.71
-1.03
2.09
3.90
4.71
4.84
4.62
4.37
4.36
4.76
5.56
6.50
7.11
6.90
5.56
3.14
0.18
-2.44
-3.73
-2.87
0.37
5.62
11.92
17.98
22.57
24.85
24.57
21.96
17.65
12.35
6.72
1.20
-3.90
-8.45
-12.39
-15.74
-18.59
-21.04
-23.12
-24.70
-25.47
-25.03
-23.05
-19.45
-14.44
-8.49
-2.15
4.12
10.03
15.46
20.31
24.43
27.54
29.30
29.51
28.19
25.62
22.28
18.74
15.47
12.80
10.97
10.07
10.16
11.14
12.72
14.34
15.38
15.23
13.61
10.67
6.92
3.08
-0.23
-2.67
-4.28
-5.40
-6.57
-8.35
-11.10
-14.87
-19.24
-23.31
-26.01
-26.38
-23.99
-19.10
-12.61
-5.69
0.62
5.72
9.49
12.16
14.01
15.27
15.99
16.21
16.02
15.66
15.49
15.81
16.79
18.32
20.03
21.43
22.04
21.62
20.24
18.23
16.09
14.26
12.99
12.24
11.76
11.13
9.99
8.13
5.55
2.42
-1.02
-4.60
-8.28
-12.05
-15.88
-19.71
-23.41
-26.86
-29.99
-32.73
-34.92
-36.29
-36.51
-35.40
-33.00
-29.71
-26.16
-22.92
-20.29
-18.18
-16.18
-13.85
-10.97
-7.62
-4.15
-0.96
1.70
3.82
5.59
7.21
8.78
10.23
11.38
12.11
12.44
12.65
13.05
13.94
15.38
17.13
18.71
19.60
19.39
18.01
15.64
12.70
9.62
6.68
3.99
1.54
-0.67
-2.60
-4.21
-5.53
-6.75
-8.14
-9.91
-12.03
-14.15
-15.62
-15.80
-14.28
-11.00
-6.32
-0.81
4.94
10.40
15.18
18.99
21.58
22.82
22.78
21.78
20.29
18.84
17.78
17.17
16.79
16.23
15.12
13.32
10.97
8.53
6.60
5.76
6.32
8.20
10.90
13.66
15.71
16.45
15.58
13.10
9.13
3.88
-2.43
-9.51
-17.04
-24.59
-31.64
-37.63
-41.87
-43.72
-42.68
-38.54
-31.56
-22.53
-12.61
-3.05
5.18
11.53
15.98
18.86
20.58
21.47
21.70
21.31
20.36
18.96
17.32
15.66
14.19
13.00
12.14
11.55
11.18
10.91
10.67
10.39
10.12
9.92
9.90
10.04
10.19
10.07
9.42
8.09
6.17
3.89
1.56
-0.59
-2.49
-4.24
-5.97
-7.85
-10.08
-12.85
-16.36
-20.68
-25.63
-30.65
-34.89
-37.39
-37.42
-34.74
-29.68
-23.12
-16.22
-10.12
-5.61
-3.00
-2.10
-2.30
-2.87
-3.14
-2.70
-1.44
0.52
2.87
5.29
7.48
9.13
9.99
9.82
8.56
6.36
3.59
0.80
-1.48
-2.82
-3.02
-2.09
-0.22
2.28
4.97
7.40
9.10
9.73
9.17
7.60
5.40
3.02
0.82
-1.14
-3.07
-5.40
-8.55
-12.78
-17.97
-23.57
-28.61
-31.88
-32.28
-29.22
-22.90
-14.37
-5.21
3.00
9.21
13.14
15.26
16.41
17.45
18.99
21.37
24.74
29.06
34.13
39.46
44.35
48.02
49.91
49.87
48.22
45.60
42.76
40.30
38.59
37.67
37.30
37.00
36.15
34.24
30.94
26.39
21.05
15.60
10.63
6.40
2.76
-0.75
-4.65
-9.29
-14.71
-20.57
-26.25
-30.99
-34.12
-35.19
-34.16
-31.38
-27.48
-23.16
-19.02
-15.41
-12.31
-9.39
-6.11
-1.99
3.17
9.12
15.15
20.33
23.79
25.15
24.48
22.30
19.27
15.96
12.67
9.50
6.43
3.43
0.50
-2.33
-5.04
-7.62
-10.06
-12.45
-14.89
-17.55
-20.55
-23.89
-27.41
-30.87
-33.96
-36.46
-38.22
-39.17
-39.35
-38.98
-38.48
-38.47
-39.55
-41.98
-45.40
-48.81
-50.81
-50.07
-45.77
-37.84
-27.00
-14.50
-1.77
9.88
19.45
26.37
30.50
32.06
31.59
29.88
27.87
26.50
26.52
28.33
31.85
36.47
41.28
45.27
47.72
48.33
47.33
45.30
42.93
40.83
39.36
38.62
38.42
38.44
38.28
37.60
36.18
33.99
31.21
28.15
25.09
22.13
19.05
15.37
10.55
4.27
-3.41
-12.05
-20.95
-29.41
-36.87
-42.84
-46.94
-48.87
-48.48
-45.97
-41.91
-37.09
-32.24
-27.81
-23.83
-20.09
-16.32
-12.44
-8.54
-4.76
-1.17
2.26
5.66
9.01
12.10
14.58
16.10
16.51
15.98
14.94
13.89
13.19
12.95
13.03
13.16
13.09
12.76
12.22
11.65
11.16
10.75
10.23
9.38
7.93
5.68
2.56
-1.32
-5.64
-9.83
-13.23
-15.20
-15.31
-13.45
-9.90
-5.18
0.11
5.45
10.49
15.03
18.96
22.18
24.54
25.95
26.42
26.13
25.37
24.50
23.77
23.25
22.83
22.31
21.53
20.42
19.03
17.50
15.95
14.41
12.78
10.81
8.16
4.55
-0.22
-6.03
-12.55
-19.27
-25.66
-31.34
-36.15
-40.11
-43.34
-46.03
-48.30
-50.31
-52.19
-54.00
-55.62
-56.68
-56.63
-54.84
-50.95
-44.93
-37.17
-28.43
-19.43
-10.77
-2.71
4.79
11.86
18.54
24.67
29.86
33.81
36.38
37.79
38.47
38.90
39.30
39.61
39.60
39.03
37.86
36.26
34.45
32.56
30.42
27.71
24.07
19.31
13.52
6.95
-0.01
-7.05
-13.86
-20.18
-25.80
-30.59
-34.63
-38.20
-41.63
-45.10
-48.53
-51.48
-53.38
-53.75
-52.42
-49.67
-46.04
-42.12
-38.36
-35.01
-32.14
-29.78
-27.93
-26.54
-25.46
-24.37
-22.95
-20.91
-18.17
-14.86
-11.28
-7.81
-4.72
-2.19
-0.16
1.48
2.91
4.23
5.42
6.33
6.75
6.53
5.63
4.20
2.53
0.93
-0.31
-1.05
-1.23
-0.90
-0.15
0.92
2.13
3.24
3.96
4.10
3.75
3.32
3.53
5.12
8.52
13.65
19.89
26.39
32.33
37.24
40.94
43.47
44.85
45.04
44.07
42.15
39.77
37.48
35.70
34.39
33.14
31.25
28.12
23.39
17.16
9.81
1.95
-5.78
-12.83
-18.76
-23.38
-26.71
-29.01
-30.71
-32.29
-34.12
-36.43
-39.26
-42.49
-45.87
-49.16
-52.11
-54.62
-56.69
-58.40
-59.88
-61.13
-61.96
-61.96
-60.61
-57.49
-52.45
-45.70
-37.77
-29.35
-21.03
-13.26
-6.19
0.16
5.88
10.98
15.45
19.24
22.28
24.58
26.19
27.23
27.81
28.09
28.16
28.10
27.92
27.65
27.36
27.18
27.25
27.61
28.16
28.60
28.58
27.85
26.36
24.28
21.87
19.42
17.10
15.04
13.31
11.96
11.02
10.39
9.92
9.45
8.91
8.43
8.24
8.58
9.56
11.09
12.90
14.57
15.70
15.98
15.33
13.88
11.98
10.10
8.67
7.96
7.98
8.48
9.05
9.26
8.77
7.50
5.61
3.45
1.49
0.13
-0.40
-0.13
0.69
1.64
2.29
2.26
1.41
-0.15
-2.12
-4.06
-5.63
-6.69
-7.33
-7.78
-8.30
-8.99
-9.84
-10.78
-11.71
-12.51
-12.96
-12.72
-11.37
-8.59
-4.40
0.77
6.17
11.04
14.87
17.56
19.31
20.43
21.04
21.08
20.33
18.62
15.98
12.67
9.04
5.40
1.93
-1.43
-4.71
-7.96
-11.10
-13.96
-16.31
-17.98
-18.88
-19.04
-18.62
-17.83
-16.92
-16.10
-15.48
-15.18
-15.24
-15.71
-16.62
-17.99
-19.69
-21.55
-23.27
-24.60
-25.37
-25.61
-25.44
-25.04
-24.46
-23.61
-22.28
-20.30
-17.63
-14.41
-11.00
-7.75
-4.85
-2.30
0.09
2.57
5.28
8.12
10.81
12.96
14.25
14.54
13.90
12.58
10.86
9.02
7.28
5.83
4.77
4.18
4.07
4.38
5.00
5.86
6.90
8.09
9.46
10.97
12.55
14.04
15.16
15.60
15.07
13.42
10.74
7.35
3.73
0.38
-2.36
-4.39
-5.84
-6.93
-7.88
-8.85
-9.83
-10.72
-11.37
-11.57
-11.10
-9.82
-7.66
-4.72
-1.19
2.60
6.29
9.51
11.97
13.43
13.84
13.31
12.11
10.64
9.26
8.21
7.53
7.13
6.89
6.74
6.77
7.11
7.86
9.01
10.36
11.67
12.70
13.35
13.68
13.83
13.95
14.14
14.37
14.53
14.44
13.94
12.93
11.46
9.59
7.39
4.85
1.87
-1.57
-5.36
-9.06
-12.08
-13.84
-14.08
-13.01
-11.17
-9.18
-7.52
-6.30
-5.39
-4.59
-3.79
-3.00
-2.31
-1.72
-1.25
-0.86
-0.55
-0.36
-0.28
-0.22
0.03
0.66
1.67
2.86
3.87
4.37
4.12
3.10
1.46
-0.68
-3.18
-6.00
-9.07
-12.29
-15.51
-18.58
-21.35
-23.74
-25.68
-27.11
-27.95
-28.20
-27.98
-27.59
-27.41
-27.72
-28.58
-29.69
-30.53
-30.52
-29.26
-26.71
-23.16
-19.05
-14.81
-10.73
-6.88
-3.22
0.32
3.80
7.15
10.25
12.95
15.11
16.68
17.76
18.51
19.07
19.44
19.43
18.80
17.42
15.40
13.14
11.14
9.83
9.37
9.65
10.39
11.26
12.00
12.37
12.16
11.17
9.25
6.40
2.82
-1.11
-4.94
-8.23
-10.71
-12.24
-12.89
-12.82
-12.31
-11.64
-11.10
-10.88
-10.97
-11.21
-11.28
-10.80
-9.50
-7.25
-4.14
-0.44
3.53
7.47
11.12
14.33
16.96
18.93
20.19
20.76
20.75
20.29
19.53
18.57
17.46
16.24
14.99
13.78
12.74
11.94
11.42
11.12
10.86
10.39
9.40
7.62
4.92
1.43
-2.49
-6.39
-9.84
-12.59
-14.64
-16.20
-17.59
-19.10
-20.96
-23.21
-25.73
-28.20
-30.09
-30.89
-30.19
-27.89
-24.27
-19.87
-15.33
-11.21
-7.75
-4.96
-2.59
-0.35
1.96
4.37
6.76
8.90
10.64
11.89
12.69
13.13
13.23
12.97
12.26
11.05
9.40
7.47
5.48
3.61
1.93
0.38
-1.17
-2.78
-4.40
-5.88
-6.99
-7.60
-7.67
-7.31
-6.72
-6.09
-5.57
-5.26
-5.30
-5.87
-7.23
-9.56
-12.79
-16.53
-19.99
-22.26
-22.60
-20.74
-16.97
-12.06
-6.93
-2.31
1.41
4.22
6.32
7.91
9.14
10.06
10.79
11.46
12.22
13.13
14.07
14.79
15.02
14.62
13.67
12.50
11.52
11.11
11.51
12.75
14.62
16.79
18.77
20.13
20.49
19.67
17.70
14.84
11.44
7.91
4.56
1.60
-0.94
-3.09
-5.03
-6.90
-8.91
-11.18
-13.66
-16.16
-18.24
-19.48
-19.56
-18.48
-16.59
-14.47
-12.66
-11.48
-10.89
-10.60
-10.19
-9.37
-8.02
-6.21
-4.05
-1.62
1.03
3.86
6.80
9.72
12.48
14.93
16.93
18.45
19.50
20.17
20.53
20.64
20.50
20.02
19.06
17.51
15.41
12.94
10.37
7.99
5.95
4.22
2.65
0.99
-1.03
-3.59
-6.82
-10.70
-15.06
-19.56
-23.68
-26.85
-28.52
-28.43
-26.63
-23.53
-19.73
-15.88
-12.44
-9.62
-7.28
-5.15
-2.91
-0.41
2.25
4.83
6.97
8.47
9.29
9.54
9.44
9.13
8.70
8.18
7.63
7.14
6.88
6.92
7.26
7.77
8.25
8.48
8.32
7.67
6.51
4.87
2.86
0.63
-1.61
-3.66
-5.37
-6.62
-7.37
-7.63
-7.50
-7.22
-7.17
-7.79
-9.42
-12.04
-15.18
-17.96
-19.35
-18.55
-15.35
-10.20
-4.01
2.17
7.50
11.58
14.36
15.99
16.65
16.49
15.64
14.32
12.83
11.51
10.60
10.20
10.22
10.47
10.75
10.91
10.93
10.87
10.80
10.79
10.83
10.81
10.58
10.04
9.20
8.18
7.15
6.26
5.55
4.92
4.25
3.38
2.19
0.64
-1.36
-3.87
-6.96
-10.51
-14.17
-17.34
-19.29
-19.45
-17.59
-13.94
-9.13
-3.93
0.96
5.10
8.28
10.45
11.63
11.97
11.72
11.26
10.99
11.20
11.93
12.90
13.69
13.86
13.19
11.70
9.64
7.39
5.37
3.94
3.35
3.62
4.57
5.70
6.39
6.06
4.36
1.32
-2.65
-6.94
-10.92
-14.13
-16.41
-17.82
-18.62
-19.12
-19.62
-20.37
-21.59
-23.44
-25.93
-28.88
-31.86
-34.25
-35.40
-34.88
-32.58
-28.80
-24.07
-18.98
-13.97
-9.28
-5.02
-1.25
1.97
4.54
6.38
7.51
8.06
8.26
8.41
8.84
9.76
11.26
13.26
15.50
17.60
19.26
20.26
20.54
20.15
19.19
17.74
15.94
13.96
11.98
10.18
8.68
7.47
6.41
5.32
4.05
2.48
0.63
-1.40
-3.41
-5.16
-6.45
-7.25
-7.70
-8.10
-8.77
-9.83
-11.16
-12.36
-12.97
-12.62
-11.19
-8.85
-5.92
-2.78
0.27
3.07
5.57
7.80
9.81
11.59
13.07
14.14
14.75
14.91
14.72
14.32
13.82
13.32
12.92
12.78
13.07
13.93
15.29
16.92
18.39
19.28
19.31
18.39
16.65
14.33
11.71
9.04
6.52
4.29
2.39
0.83
-0.47
-1.68
-2.99
-4.63
-6.72
-9.17
-11.64
-13.58
-14.43
-13.87
-11.99
-9.21
-6.19
-3.48
-1.40
0.06
1.05
1.70
2.03
1.94
1.31
0.12
-1.53
-3.43
-5.37
-7.13
-8.50
-9.25
-9.20
-8.24
-6.46
-4.18
-1.86
0.08
1.42
2.21
2.71
3.15
3.63
4.05
4.25
4.15
3.81
3.39
2.97
2.47
1.59
-0.00
-2.50
-5.87
-9.89
-14.24
-18.61
-22.69
-26.13
-28.51
-29.45
-28.75
-26.53
-23.23
-19.49
-15.79
-12.35
-9.06
-5.65
-1.95
1.96
5.75
9.03
11.51
13.18
14.23
14.97
15.66
16.43
17.21
17.83
18.09
17.92
17.38
16.66
16.08
15.94
16.46
17.71
19.55
21.65
23.50
24.50
24.11
22.00
18.18
13.05
7.23
1.41
-3.84
-8.23
-11.62
-14.02
-15.45
-15.93
-15.60
-14.81
-14.05
-13.82
-14.45
-15.92
-17.80
-19.45
-20.23
-19.76
-17.94
-14.94
-11.12
-6.84
-2.53
1.40
4.56
6.62
7.43
7.09
5.90
4.29
2.67
1.38
0.64
0.55
1.06
2.02
3.21
4.39
5.48
6.56
7.81
9.35
11.11
12.79
14.00
14.48
14.21
13.38
12.28
11.11
9.87
8.47
6.80
4.89
2.78
0.57
-1.67
-3.93
-6.16
-8.16
-9.62
-10.17
-9.57
-7.76
-4.99
-1.73
1.40
3.85
5.27
5.66
5.29
4.61
4.07
3.85
3.90
3.94
3.67
2.95
1.84
0.54
-0.69
-1.69
-2.42
-2.92
-3.27
-3.49
-3.65
-3.83
-4.13
-4.63
-5.35
-6.22
-7.09
-7.86
-8.50
-9.12
-9.93
-11.15
-12.88
-14.98
-17.10
-18.78
-19.62
-19.47
-18.53
-17.24
-16.16
-15.73
-16.08
-16.99
-17.99
-18.48
-17.94
-16.07
-12.88
-8.64
-3.83
1.04
5.53
9.38
12.47
14.83
16.56
17.78
18.67
19.42
20.20
21.10
22.03
22.84
23.36
23.52
23.47
23.50
23.89
24.82
26.21
27.81
29.21
30.14
30.49
30.44
30.42
30.85
32.04
33.96
36.26
38.37
39.73
40.01
39.10
37.16
34.38
30.94
26.95
22.52
17.80
13.02
8.40
4.06
-0.04
-4.10
-8.30
-12.69
-17.15
-21.37
-25.04
-27.97
-30.17
-31.81
-33.04
-33.76
-33.71
-32.52
-30.06
-26.59
-22.73
-19.22
-16.54
-14.66
-13.06
-10.99
-7.91
-3.78
0.98
5.66
9.68
12.78
15.11
17.03
18.92
20.99
23.22
25.42
27.30
28.58
29.03
28.49
26.84
24.06
20.16
15.20
9.31
2.68
-4.41
-11.69
-18.91
-25.90
-32.61
-38.99
-44.88
-49.97
-53.80
-55.83
-55.75
-53.56
-49.64
-44.66
-39.39
-34.43
-30.20
-26.85
-24.42
-22.85
-22.09
-22.01
-22.39
-22.94
-23.40
-23.58
-23.46
-23.08
-22.49
-21.71
-20.78
-19.72
-18.66
-17.73
-17.02
-16.53
-16.14
-15.69
-15.06
-14.16
-13.02
-11.71
-10.31
-8.97
-7.80
-6.88
-6.18
-5.55
-4.79
-3.75
-2.45
-1.12
-0.04
0.48
0.30
-0.53
-1.79
-3.10
-4.06
-4.30
-3.58
-1.85
0.72
3.84
7.14
10.25
12.88
14.77
15.70
15.59
14.52
12.82
11.01
9.64
9.08
9.42
10.36
11.45
12.25
12.50
12.21
11.58
10.91
10.45
10.32
10.55
11.08
11.85
12.78
13.82
14.86
15.77
16.42
16.65
16.42
15.72
14.63
13.30
11.93
10.71
9.77
9.12
8.61
8.03
7.19
6.09
4.91
4.01
3.66
4.00
4.95
6.28
7.71
9.03
10.12
10.90
11.33
11.35
10.94
10.14
9.05
7.77
6.42
5.13
4.04
3.30
2.99
3.16
3.66
4.29
4.79
4.92
4.54
3.65
2.35
0.81
-0.70
-2.00
-2.99
-3.72
-4.40
-5.33
-6.79
-8.92
-11.71
-14.93
-18.21
-21.04
-22.95
-23.58
-22.81
-20.85
-18.08
-14.99
-11.93
-9.12
-6.62
-4.42
-2.51
-0.90
0.39
1.37
2.05
2.42
2.45
2.11
1.46
0.65
-0.12
-0.66
-0.82
-0.59
-0.01
0.74
1.46
1.82
1.53
0.38
-1.65
-4.31
-7.20
-9.88
-12.05
-13.63
-14.74
-15.57
-16.34
-17.22
-18.36
-19.86
-21.70
-23.74
-25.63
-26.89
-27.08
-25.90
-23.36
-19.80
-15.78
-11.91
-8.66
-6.21
-4.48
-3.17
-2.00
-0.78
0.53
1.79
2.87
3.67
4.22
4.61
4.90
5.09
5.15
5.10
5.07
5.31
6.03
7.31
8.95
10.56
11.61
11.74
10.81
9.05
6.82
4.59
2.65
1.14
0.05
-0.70
-1.20
-1.56
-1.91
-2.44
-3.34
-4.70
-6.38
-8.07
-9.29
-9.57
-8.64
-6.47
-3.34
0.33
4.06
7.47
10.36
12.66
14.38
15.54
16.21
16.38
16.12
15.46
14.49
13.20
11.52
9.28
6.33
2.67
-1.46
-5.57
-9.00
-11.18
-11.76
-10.76
-8.56
-5.73
-2.87
-0.40
1.45
2.64
3.17
3.00
2.06
0.38
-1.83
-4.21
-6.33
-7.88
-8.78
-9.12
-9.02
-8.53
-7.58
-5.99
-3.72
-0.91
2.13
5.01
7.43
9.23
10.39
10.97
10.99
10.52
9.62
8.40
7.01
5.65
4.46
3.54
2.95
2.71
2.83
3.29
4.03
4.92
5.80
6.49
6.87
6.89
6.55
5.88
4.89
3.59
2.02
0.25
-1.60
-3.38
-5.01
-6.48
-7.89
-9.33
-10.90
-12.63
-14.48
-16.36
-18.10
-19.53
-20.41
-20.54
-19.72
-17.89
-15.10
-11.57
-7.59
-3.56
0.21
3.50
6.19
8.28
9.80
10.85
11.56
12.11
12.66
13.35
14.16
14.92
15.39
15.33
14.68
13.61
12.43
11.47
10.95
10.84
10.96
11.11
11.15
11.09
10.98
10.83
10.52
9.87
8.65
6.73
4.11
0.96
-2.49
-5.94
-9.13
-11.86
-13.96
-15.41
-16.31
-16.92
-17.59
-18.64
-20.19
-22.00
-23.56
-24.27
-23.59
-21.31
-17.57
-12.84
-7.67
-2.60
2.01
5.96
9.21
11.77
13.67
14.91
15.52
15.57
15.21
14.65
14.17
13.98
14.20
14.88
15.93
17.25
18.76
20.41
22.13
23.86
25.48
26.81
27.61
27.69
26.91
25.31
23.03
20.38
17.67
15.16
12.96
11.04
9.26
7.46
5.48
3.22
0.62
-2.36
-5.63
-8.99
-12.08
-14.46
-15.71
-15.55
-14.02
-11.40
-8.16
-4.81
-1.78
0.64
2.27
3.05
3.00
2.19
0.83
-0.85
-2.55
-4.00
-5.05
-5.61
-5.70
-5.45
-4.96
-4.29
-3.48
-2.50
-1.33
0.00
1.38
2.65
3.67
4.34
4.65
4.66
4.43
4.03
3.48
2.76
1.86
0.77
-0.43
-1.68
-2.88
-4.04
-5.25
-6.72
-8.64
-11.14
-14.12
-17.23
-19.94
-21.61
-21.81
-20.38
-17.63
-14.12
-10.50
-7.31
-4.72
-2.69
-1.01
0.51
1.92
3.17
4.16
4.86
5.29
5.53
5.69
5.80
5.89
5.98
6.11
6.42
7.03
8.04
9.42
11.03
12.62
13.93
14.75
15.05
14.90
14.44
13.77
12.93
11.90
10.71
9.50
8.46
7.72
7.28
6.98
6.56
5.81
4.58
2.83
0.59
-2.06
-4.93
-7.71
-9.95
-11.20
-11.15
-9.76
-7.27
-4.06
-0.49
3.23
6.96
10.57
13.86
16.59
18.47
19.31
19.07
17.82
15.79
13.34
10.85
8.69
7.08
6.05
5.52
5.31
5.28
5.38
5.56
5.74
5.74
5.33
4.39
2.86
0.89
-1.33
-3.51
-5.41
-6.79
-7.56
-7.80
-7.84
-8.19
-9.30
-11.42
-14.31
-17.41
-19.94
-21.27
-21.16
-19.82
-17.78
-15.65
-13.88
-12.51
-11.01
-8.36
-3.30
5.13
17.01
31.16
45.21
56.30
62.04
61.36
54.90
44.61
32.93
21.82
12.33
4.60
-1.73
-7.00
-11.37
-14.90
-17.72
-20.21
-22.88
-26.18
-30.21
-34.60
-38.71
-41.90
-43.79
-44.53
-44.65
-44.82
-45.56
-46.93
-48.53
-49.72
-49.87
-48.64
-46.13
-42.72
-38.96
-35.25
-31.79
-28.48
-25.02
-21.00
-16.05
-9.94
-2.68
5.50
14.12
22.59
30.28
36.64
41.21
43.66
43.84
41.93
38.45
34.16
29.92
26.42
23.95
22.43
21.47
20.59
19.38
17.55
14.86
11.08
6.00
-0.45
-8.12
-16.53
-24.93
-32.50
-38.53
-42.64
-44.74
-45.08
-44.08
-42.23
-40.01
-37.84
-35.96
-34.23
-32.12
-28.79
-23.36
-15.27
-4.46
8.62
23.33
39.03
55.28
71.54
86.95
100.18
109.56
113.66
111.78
104.23
92.24
77.46
61.47
45.43
30.09
15.91
3.23
-7.69
-16.72
-23.92
-29.51
-33.71
-36.66
-38.30
-38.50
-37.15
-34.37
-30.40
-25.66
-20.61
-15.68
-11.32
-7.90
-5.65
-4.56
-4.33
-4.41
-4.26
-3.57
-2.42
-1.25
-0.56
-0.69
-1.64
-3.10
-4.63
-5.95
-6.99
-7.93
-8.97
-10.17
-11.39
-12.32
-12.68
-12.32
-11.37
-10.10
-8.81
-7.74
-6.95
-6.37
-5.92
-5.47
-4.99
-4.53
-4.18
-4.07
-4.34
-5.13
-6.49
-8.41
-10.76
-13.32
-15.79
-17.82
-19.09
-19.37
-18.61
-16.92
-14.64
-12.16
-9.87
-7.96
-6.45
-5.13
-3.72
-1.99
0.17
2.65
5.21
7.57
9.49
10.80
11.46
11.43
10.69
9.22
6.97
4.09
0.77
-2.61
-5.68
-8.09
-9.63
-10.32
-10.33
-9.99
-9.60
-9.35
-9.38
-9.70
-10.39
-11.63
-13.55
-16.10
-18.86
-21.08
-21.95
-20.96
-18.11
-13.96
-9.34
-4.96
-1.16
2.09
5.09
8.11
11.32
14.71
18.14
21.46
24.48
26.94
28.51
28.84
27.76
25.38
22.21
19.19
17.38
17.60
19.86
23.08
25.12
23.41
15.96
2.20
-16.46
-36.83
-54.86
-66.80
-70.29
-64.90
-52.05
-34.41
-15.07
3.21
18.45
29.58
36.36
39.16
38.65
35.70
31.25
26.20
21.31
17.06
13.59
10.70
7.97
5.02
1.63
-2.09
-5.81
-9.12
-11.77
-13.78
-15.49
-17.31
-19.56
-22.21
-24.80
-26.59
-26.85
-25.15
-21.48
-16.30
-10.31
-4.32
1.02
5.24
8.13
9.72
10.20
9.96
9.50
9.35
10.00
11.77
14.72
18.62
22.90
26.85
29.74
31.12
30.98
29.77
28.24
27.07
26.64
26.83
27.17
27.08
26.09
24.11
21.36
18.31
15.43
13.16
11.76
11.30
11.67
12.53
13.43
13.89
13.49
11.93
9.18
5.40
0.91
-3.81
-8.32
-12.18
-15.08
-16.90
-17.71
-17.80
-17.62
-17.63
-18.23
-19.59
-21.73
-24.45
-27.50
-30.61
-33.50
-35.92
-37.56
-38.14
-37.43
-35.38
-32.10
-27.93
-23.30
-18.63
-14.21
-10.16
-6.49
-3.18
-0.27
2.09
3.64
4.19
3.63
2.15
0.15
-1.84
-3.37
-4.17
-4.21
-3.55
-2.29
-0.45
1.98
4.90
8.07
11.05
13.36
14.67
14.86
14.06
12.51
10.44
8.01
5.33
2.57
0.02
-1.90
-2.85
-2.63
-1.35
0.61
2.68
4.30
5.03
4.61
3.07
0.58
-2.51
-5.76
-8.65
-10.71
-11.58
-11.16
-9.61
-7.31
-4.71
-2.14
0.29
2.63
4.95
7.23
9.29
10.87
11.78
12.00
11.68
11.01
10.16
9.16
7.98
6.66
5.28
4.04
3.13
2.64
2.53
2.69
2.98
3.31
3.64
3.90
3.98
3.76
3.20
2.38
1.54
0.95
0.79
1.00
1.42
1.75
1.81
1.55
1.01
0.33
-0.36
-0.93
-1.24
-1.23
-0.89
-0.39
-0.04
-0.22
-1.19
-3.01
-5.45
-8.13
-10.59
-12.51
-13.72
-14.27
-14.29
-13.94
-13.26
-12.20
-10.70
-8.72
-6.36
-3.89
-1.62
0.14
1.24
1.66
1.54
1.06
0.42
-0.17
-0.60
-0.76
-0.61
-0.19
0.40
1.09
1.80
2.53
3.30
4.16
5.17
6.39
7.89
9.68
11.72
13.81
15.66
16.93
17.40
17.00
15.90
14.41
12.88
11.58
10.62
10.00
9.64
9.40
9.13
8.66
7.83
6.59
5.01
3.36
2.03
1.46
1.94
3.58
6.17
9.29
12.34
14.74
16.13
16.40
15.75
14.62
13.45
12.61
12.23
12.21
12.35
12.40
12.24
11.82
11.21
10.51
9.84
9.33
9.09
9.20
9.67
10.43
11.26
11.91
12.07
11.56
10.32
8.40
6.00
3.30
0.56
-2.00
-4.12
-5.67
-6.64
-7.23
-7.76
-8.52
-9.72
-11.33
-13.18
-14.96
-16.41
-17.26
-17.33
-16.54
-14.92
-12.73
-10.34
-8.16
-6.46
-5.30
-4.51
-3.79
-2.91
-1.71
-0.21
1.42
3.01
4.30
5.09
5.26
4.79
3.82
2.63
1.52
0.76
0.49
0.65
1.03
1.30
1.10
0.16
-1.54
-3.78
-6.13
-8.11
-9.36
-9.81
-9.65
-9.22
-8.87
-8.80
-9.12
-9.82
-10.83
-12.07
-13.43
-14.80
-16.13
-17.46
-18.87
-20.43
-22.12
-23.77
-25.13
-25.94
-26.11
-25.66
-24.75
-23.51
-22.06
-20.49
-18.87
-17.27
-15.76
-14.27
-12.67
-10.79
-8.51
-5.84
-2.92
-0.00
2.69
4.97
6.72
7.88
8.45
8.48
8.08
7.41
6.72
6.21
6.00
6.08
6.32
6.47
6.34
5.81
4.91
3.78
2.55
1.32
0.14
-0.97
-1.93
-2.58
-2.81
-2.61
-2.13
-1.66
-1.54
-1.96
-2.93
-4.29
-5.71
-6.89
-7.60
-7.65
-6.96
-5.54
-3.42
-0.69
2.49
5.97
9.48
12.71
15.37
17.21
18.10
18.07
17.28
15.94
14.31
12.61
11.04
9.74
8.75
8.03
7.46
6.91
6.31
5.69
5.10
4.61
4.22
3.82
3.31
2.54
1.48
0.12
-1.45
-3.09
-4.69
-6.10
-7.29
-8.30
-9.22
-10.19
-11.33
-12.60
-13.88
-14.95
-15.51
-15.30
-14.16
-12.13
-9.39
-6.25
-3.03
0.10
3.02
5.66
7.85
9.36
9.92
9.43
8.07
6.28
4.53
3.19
2.35
1.89
1.65
1.59
1.80
2.41
3.43
4.62
5.63
6.08
5.76
4.62
2.81
0.52
-2.03
-4.69
-7.28
-9.69
-11.78
-13.52
-14.87
-15.85
-16.50
-16.82
-16.84
-16.60
-16.26
-16.01
-16.04
-16.43
-17.06
-17.63
-17.79
-17.20
-15.74
-13.50
-10.75
-7.82
-5.00
-2.45
-0.18
1.87
3.78
5.57
7.17
8.45
9.27
9.55
9.24
8.41
7.15
5.62
3.95
2.28
0.78
-0.30
-0.76
-0.44
0.63
2.20
3.86
5.19
5.85
5.76
5.08
4.18
3.46
3.23
3.57
4.38
5.37
6.22
6.66
6.55
5.85
4.59
2.84
0.69
-1.71
-4.08
-6.08
-7.36
-7.70
-7.04
-5.57
-3.59
-1.41
0.76
2.84
4.82
6.71
8.47
10.01
11.25
12.15
12.81
13.36
13.94
14.61
15.34
15.99
16.43
16.60
16.53
16.33
16.15
16.11
16.27
16.60
16.99
17.27
17.22
16.63
15.35
13.28
10.39
6.71
2.33
-2.54
-7.59
-12.34
-16.22
-18.66
-19.33
-18.23
-15.78
-12.66
-9.60
-7.10
-5.35
-4.23
-3.49
-2.99
-2.72
-2.80
-3.33
-4.24
-5.24
-5.98
-6.22
-5.97
-5.50
-5.22
-5.47
-6.41
-7.90
-9.62
-11.25
-12.56
-13.49
-14.07
-14.34
-14.25
-13.68
-12.58
-11.01
-9.29
-7.84
-7.14
-7.53
-9.12
-11.76
-15.06
-18.48
-21.41
-23.24
-23.58
-22.27
-19.49
-15.67
-11.39
-7.22
-3.56
-0.60
1.74
3.71
5.62
7.74
10.19
12.93
15.79
18.59
21.17
23.48
25.49
27.17
28.39
29.02
28.95
28.21
26.96
25.49
24.04
22.79
21.81
21.02
20.25
19.30
17.95
16.10
13.76
11.06
8.19
5.35
2.64
0.07
-2.46
-5.07
-7.81
-10.61
-13.22
-15.28
-16.42
-16.41
-15.24
-13.18
-10.68
-8.19
-6.05
-4.38
-3.05
-1.86
-0.65
0.64
1.92
3.03
3.84
4.27
4.38
4.27
4.06
3.84
3.69
3.62
3.70
4.00
4.59
5.55
6.92
8.65
10.54
12.28
13.42
13.52
12.25
9.49
5.45
0.55
-4.60
-9.34
-13.02
-15.09
-15.18
-13.14
-9.17
-3.80
2.15
7.72
12.08
14.76
15.68
15.20
13.91
12.42
11.21
10.50
10.26
10.30
10.35
10.17
9.66
8.86
7.97
7.27
6.95
6.99
7.14
7.01
6.27
4.85
2.95
0.96
-0.78
-2.12
-3.21
-4.32
-5.70
-7.45
-9.59
-12.12
-15.08
-18.50
-22.30
-26.15
-29.47
-31.62
-32.11
-30.84
-28.13
-24.65
-21.11
-18.10
-15.86
-14.28
-13.03
-11.70
-10.01
-7.87
-5.37
-2.74
-0.22
1.92
3.44
4.11
3.82
2.59
0.67
-1.48
-3.32
-4.38
-4.43
-3.52
-1.96
-0.24
1.13
1.76
1.42
0.13
-1.88
-4.28
-6.72
-9.04
-11.28
-13.61
-16.21
-19.05
-21.83
-24.02
-25.07
-24.54
-22.27
-18.36
-13.18
-7.16
-0.78
5.55
11.42
16.52
20.56
23.40
25.03
25.57
25.23
24.23
22.82
21.23
19.71
18.57
18.06
18.36
19.48
21.24
23.32
25.40
27.20
28.54
29.27
29.34
28.76
27.62
26.05
24.21
22.17
19.89
17.25
14.18
10.77
7.30
4.27
2.16
1.35
1.98
3.87
6.64
9.74
12.64
14.94
16.45
17.21
17.44
17.34
17.04
16.52
15.71
14.54
13.00
11.20
9.23
7.11
4.83
2.30
-0.43
-3.16
-5.52
-7.07
-7.50
-6.77
-5.19
-3.34
-1.92
-1.57
-2.67
-5.35
-9.47
-14.64
-20.42
-26.30
-31.82
-36.59
-40.39
-43.15
-44.92
-45.80
-45.91
-45.35
-44.23
-42.68
-40.85
-38.83
-36.57
-33.83
-30.28
-25.55
-19.42
-11.94
-3.46
5.40
13.88
21.30
27.15
31.32
34.00
35.63
36.73
37.68
38.67
39.71
40.68
41.45
41.88
41.85
41.13
39.47
36.67
32.66
27.63
22.01
16.30
10.97
6.29
2.24
-1.39
-4.93
-8.65
-12.74
-17.17
-21.79
-26.39
-30.75
-34.76
-38.37
-41.56
-44.23
-46.23
-47.31
-47.29
-46.09
-43.79
-40.57
-36.54
-31.75
-26.20
-19.98
-13.38
-6.95
-1.32
2.97
5.71
7.07
7.52
7.60
7.79
8.33
9.24
10.45
11.85
13.32
14.77
16.09
17.17
17.91
18.24
18.15
17.69
16.92
15.94
14.84
13.64
12.33
10.85
9.16
7.30
5.44
3.76
2.41
1.39
0.57
-0.22
-1.00
-1.61
-1.69
-0.90
0.88
3.48
6.49
9.44
12.02
14.15
15.96
17.63
19.23
20.71
21.93
22.80
23.33
23.56
23.56
23.33
22.84
22.05
21.08
20.11
19.38
19.06
19.18
19.61
20.14
20.57
20.75
20.67
20.32
19.72
18.91
17.95
16.91
15.87
14.85
13.77
12.56
11.21
9.80
8.55
7.63
7.08
6.69
6.04
4.61
1.99
-2.00
-7.25
-13.37
-19.76
-25.75
-30.63
-33.84
-35.04
-34.25
-31.89
-28.62
-25.26
-22.46
-20.61
-19.69
-19.50
-19.70
-20.03
-20.37
-20.73
-21.18
-21.74
-22.36
-22.88
-23.08
-22.71
-21.57
-19.61
-16.93
-13.88
-10.94
-8.65
-7.45
-7.63
-9.19
-11.93
-15.51
-19.53
-23.66
-27.63
-31.27
-34.53
-37.40
-39.95
-42.27
-44.44
-46.51
-48.47
-50.28
-51.90
-53.43
-55.09
-57.24
-60.22
-64.07
-68.40
-72.37
-74.97
-75.33
-73.05
-68.17
-61.00
-51.76
-40.55
-27.44
-12.84
2.33
16.80
29.40
39.47
47.16
53.17
58.40
63.46
68.55
73.51
78.11
82.19
85.80
89.12
92.49
96.40
101.32
107.63
115.33
124.04
133.12
141.98
150.39
158.45
166.42
174.35
181.90
188.45
193.39
196.50
197.94
198.08
196.94
193.91
187.67
176.61
159.52
136.13
107.32
74.98
41.41
8.79
-21.18
-47.33
-68.84
-85.06
-95.55
-100.34
-100.18
-96.73
-92.25
-89.04
-88.82
-92.31
-99.18
-108.36
-118.46
-128.06
-135.96
-141.13
-142.86
-140.82
-135.22
-126.85
-116.89
-106.61
-97.04
-88.73
-81.73
-75.80
-70.61
-65.92
-61.63
-57.79
-54.42
-51.58
-49.26
-47.36
-45.77
-44.35
-42.88
-41.16
-39.06
-36.58
-33.90
-31.33
-29.15
-27.52
-26.30
-25.16
-23.63
-21.33
-18.14
-14.15
-9.72
-5.25
-1.10
2.48
5.37
7.55
9.05
9.97
10.38
10.40
10.10
9.52
8.70
7.69
6.54
5.34
4.19
3.22
2.58
2.47
3.10
4.59
6.91
9.79
12.79
15.42
17.28
18.16
18.09
17.24
15.82
14.08
12.21
10.40
8.78
7.47
6.44
5.65
4.98
4.36
3.82
3.41
3.21
3.18
3.26
3.37
3.53
3.82
4.38
5.27
6.43
7.64
8.60
9.03
8.76
7.75
6.09
3.92
1.43
-1.18
-3.65
-5.69
-7.04
-7.52
-7.23
-6.47
-5.71
-5.42
-5.85
-7.02
-8.65
-10.45
-12.22
-13.96
-15.72
-17.62
-19.68
-21.82
-23.89
-25.79
-27.39
-28.56
-29.14
-28.95
-27.84
-25.79
-22.88
-19.40
-15.67
-12.00
-8.58
-5.46
-2.55
0.27
3.04
5.70
8.02
9.77
10.81
11.19
11.15
11.03
11.19
11.83
12.98
14.48
16.07
17.42
18.29
18.49
17.95
16.69
14.80
12.41
9.70
6.88
4.19
1.80
-0.19
-1.84
-3.32
-4.81
-6.40
-8.00
-9.35
-10.15
-10.14
-9.24
-7.60
-5.47
-3.21
-1.14
0.48
1.52
1.92
1.72
1.07
0.14
-0.89
-1.93
-2.94
-4.00
-5.22
-6.71
-8.47
-10.38
-12.20
-13.62
-14.39
-14.33
-13.45
-11.93
-10.16
-8.60
-7.77
-8.07
-9.74
-12.65
-16.35
-20.11
-23.05
-24.41
-23.72
-20.95
-16.47
-10.99
-5.35
-0.28
3.71
6.44
8.02
8.75
8.95
8.92
8.86
8.85
8.92
9.02
9.07
8.92
8.48
7.81
7.14
6.95
7.75
9.94
13.62
18.49
23.88
28.97
32.96
35.26
35.54
33.78
30.09
24.75
18.16
10.81
3.29
-3.76
-9.82
-14.60
-18.12
-20.66
-22.53
-23.89
-24.79
-25.19
-25.16
-24.87
-24.55
-24.29
-23.86
-22.82
-20.68
-17.13
-12.17
-6.14
0.50
7.25
13.64
19.23
23.77
27.19
29.67
31.66
33.64
35.95
38.55
41.11
43.10
44.03
43.59
41.71
38.54
34.33
29.48
24.44
19.73
15.75
12.77
10.74
9.34
8.02
6.21
3.47
-0.35
-5.06
-10.20
-15.26
-19.81
-23.66
-26.85
-29.64
-32.36
-35.28
-38.53
-42.02
-45.43
-48.27
-50.00
-50.22
-48.88
-46.25
-42.92
-39.52
-36.48
-33.89
-31.43
-28.59
-24.83
-19.82
-13.61
-6.54
0.83
7.86
14.05
19.01
22.56
24.67
25.46
25.19
24.25
23.06
22.07
21.55
21.54
21.87
22.13
21.93
20.89
18.86
15.85
12.11
8.04
4.07
0.64
-2.02
-3.85
-5.06
-5.99
-7.07
-8.58
-10.61
-12.93
-15.03
-16.17
-15.61
-12.79
-7.55
-0.29
8.05
16.21
22.90
27.17
28.69
27.83
25.48
22.77
20.70
19.86
20.29
21.62
23.17
24.26
24.33
23.00
20.19
16.03
10.88
5.34
0.13
-4.03
-6.62
-7.41
-6.57
-4.54
-1.87
0.97
3.67
6.01
7.89
9.12
9.54
8.95
7.32
4.68
1.25
-2.65
-6.58
-10.06
-12.55
-13.62
-13.05
-10.91
-7.60
-3.70
0.22
3.74
6.68
9.02
10.73
11.71
11.69
10.43
7.76
3.76
-1.19
-6.53
-11.54
-15.58
-18.16
-19.09
-18.43
-16.49
-13.68
-10.44
-7.12
-3.96
-1.11
1.34
3.25
4.44
4.74
4.05
2.41
-0.02
-2.93
-6.04
-9.01
-11.55
-13.28
-13.85
-12.92
-10.33
-6.22
-1.00
4.69
10.18
14.89
18.43
20.63
21.50
21.20
19.93
17.95
15.50
12.87
10.29
7.97
6.06
4.59
3.45
2.42
1.26
-0.19
-1.88
-3.58
-4.99
-5.89
-6.25
-6.22
-6.06
-6.00
-6.12
-6.35
-6.53
-6.58
-6.53
-6.53
-6.74
-7.25
-8.08
-9.20
-10.56
-12.06
-13.58
-14.84
-15.47
-15.12
-13.60
-11.12
-8.14
-5.24
-2.84
-1.01
0.48
2.00
3.80
5.84
7.79
9.25
9.92
9.76
8.95
7.79
6.55
5.37
4.35
3.60
3.28
3.57
4.54
6.08
7.85
9.43
10.47
10.83
10.63
10.15
9.73
9.63
9.92
10.52
11.24
11.85
12.08
11.76
10.76
9.02
6.56
3.47
-0.09
-3.86
-7.49
-10.55
-12.62
-13.37
-12.70
-10.79
-8.05
-4.99
-2.02
0.60
2.78
4.55
5.90
6.77
7.06
6.72
5.78
4.39
2.82
1.40
0.40
0.05
0.40
1.43
2.98
4.85
6.88
8.96
11.05
13.11
15.06
16.72
17.91
18.50
18.51
18.08
17.40
16.57
15.54
14.22
12.51
10.46
8.19
5.87
3.57
1.26
-1.14
-3.63
-6.01
-7.97
-9.14
-9.32
-8.56
-7.11
-5.34
-3.55
-1.93
-0.51
0.70
1.65
2.21
2.14
1.29
-0.40
-2.73
-5.36
-7.84
-9.79
-11.03
-11.54
-11.47
-11.01
-10.35
-9.62
-8.90
-8.29
-7.87
-7.74
-7.96
-8.56
-9.50
-10.65
-11.84
-12.92
-13.81
-14.52
-15.11
-15.63
-16.00
-16.04
-15.59
-14.54
-12.99
-11.17
-9.33
-7.71
-6.38
-5.37
-4.67
-4.28
-4.16
-4.27
-4.45
-4.59
-4.59
-4.51
-4.55
-4.99
-6.00
-7.57
-9.37
-10.89
-11.56
-11.03
-9.23
-6.37
-2.82
1.16
5.39
9.89
14.61
19.43
24.02
27.98
30.97
32.71
33.15
32.32
30.35
27.47
23.97
20.21
16.53
13.16
10.19
7.54
5.05
2.50
-0.21
-3.04
-5.76
-8.01
-9.46
-9.91
-9.36
-8.04
-6.28
-4.36
-2.45
-0.67
0.88
2.02
2.47
2.02
0.59
-1.60
-4.16
-6.59
-8.45
-9.52
-9.78
-9.36
-8.47
-7.27
-5.85
-4.25
-2.52
-0.75
1.00
2.73
4.65
7.12
10.48
14.83
19.79
24.56
28.18
29.81
29.10
26.26
21.93
16.89
11.83
7.29
3.74
1.66
1.49
3.45
7.26
12.06
16.49
19.13
19.02
16.05
10.97
5.07
-0.31
-4.30
-6.67
-7.76
-8.13
-8.36
-8.80
-9.62
-10.88
-12.54
-14.53
-16.65
-18.61
-20.11
-21.00
-21.45
-21.96
-23.26
-26.05
-30.60
-36.60
-43.24
-49.49
-54.61
-58.44
-61.46
-64.50
-68.21
-72.75
-77.57
-81.69
-84.09
-84.14
-81.85
-77.81
-72.99
-68.36
-64.56
-61.68
-59.29
-56.48
-52.26
-45.91
-37.21
-26.66
-15.20
-3.85
6.62
16.00
24.50
32.53
40.29
47.64
54.13
59.26
62.88
65.33
67.28
69.45
72.25
75.64
79.25
82.64
85.49
87.65
88.95
89.02
87.31
83.32
77.07
69.36
61.79
56.20
53.89
54.83
57.47
59.05
56.65
48.36
34.13
15.86
-3.42
-20.76
-34.61
-45.36
-55.00
-65.88
-79.43
-95.31
-111.54
-125.29
-134.06
-136.47
-132.68
-124.04
-112.62
-100.55
-89.26
-78.82
-67.59
-52.19
-28.53
6.49
52.94
106.59
158.88
198.99
217.33
209.38
178.03
133.20
88.50
56.22
42.77
46.67
60.08
72.81
76.72
68.42
49.30
23.24
-6.25
-37.75
-71.80
-109.45
-150.48
-192.61
-231.91
-264.16
-286.38
-297.79
-299.85
-295.20
-286.15
-273.48
-256.11
-232.02
-199.84
-160.25
-116.54
-73.76
-36.89
-8.77
11.37
28.00
47.85
77.34
119.88
174.02
233.36
288.37
329.31
349.28
346.01
321.97
282.97
235.98
187.48
142.37
103.99
74.32
54.15
43.10
39.60
41.02
44.19
46.20
45.09
40.34
32.76
24.15
16.43
11.01
8.36
7.92
8.52
8.84
7.94
5.60
2.28
-1.05
-3.37
-3.96
-2.82
-0.58
1.64
2.78
2.31
0.46
-1.84
-3.37
-3.13
-0.84
2.93
7.07
10.43
12.36
12.91
12.86
13.21
14.82
18.03
22.67
28.08
33.44
37.90
40.68
41.28
39.67
36.57
33.47
32.11
33.84
38.77
45.44
51.15
52.89
48.39
36.97
19.76
-0.87
-22.01
-41.14
-56.62
-67.84
-75.00
-78.70
-79.67
-78.53
-75.83
-72.13
-68.15
-64.70
-62.52
-61.90
-62.58
-63.71
-64.25
-63.31
-60.60
-56.39
-51.37
-46.21
-41.23
-36.25
-30.83
-24.58
-17.48
-9.96
-2.72
3.58
8.63
12.48
15.47
17.96
20.16
22.10
23.73
24.99
25.94
26.78
27.70
28.80
30.02
31.10
31.71
31.60
30.66
28.98
26.75
24.17
21.34
18.31
15.10
11.84
8.77
6.15
4.16
2.77
1.72
0.61
-0.88
-2.79
-4.86
-6.56
-7.28
-6.59
-4.41
-1.01
3.05
7.15
10.74
13.42
14.87
14.94
13.47
10.54
6.41
1.61
-3.23
-7.51
-10.83
-13.08
-14.32
-14.76
-14.56
-13.86
-12.79
-11.45
-10.03
-8.69
-7.53
-6.62
-5.98
-5.66
-5.74
-6.26
-7.14
-8.09
-8.65
-8.37
-6.96
-4.42
-1.04
2.76
6.57
10.16
13.35
16.04
18.05
19.17
19.26
18.28
16.34
13.69
10.57
7.19
3.74
0.36
-2.79
-5.53
-7.81
-9.60
-11.01
-12.16
-13.16
-14.06
-14.88
-15.61
-16.23
-16.71
-17.04
-17.24
-17.34
-17.43
-17.53
-17.60
-17.47
-16.84
-15.33
-12.67
-8.84
-4.11
0.95
5.71
9.61
12.36
13.98
14.69
14.81
14.60
14.18
13.62
12.91
12.07
11.11
10.07
8.95
7.78
6.57
5.41
4.42
3.73
3.40
3.30
3.15
2.57
1.25
-0.86
-3.55
-6.39
-9.00
-11.20
-13.06
-14.85
-16.77
-18.86
-20.95
-22.75
-23.97
-24.43
-24.07
-22.98
-21.44
-19.93
-18.99
-19.16
-20.64
-23.25
-26.41
-29.25
-30.89
-30.72
-28.47
-24.31
-18.76
-12.49
-6.16
-0.20
5.31
10.54
15.81
21.31
26.93
32.24
36.60
39.36
40.07
38.54
34.81
29.07
21.66
13.06
3.96
-4.68
-11.82
-16.56
-18.43
-17.54
-14.56
-10.42
-5.98
-1.84
1.76
4.79
7.24
8.99
9.85
9.63
8.29
6.03
3.23
0.38
-2.05
-3.72
-4.48
-4.37
-3.62
-2.55
-1.51
-0.83
-0.75
-1.37
-2.65
-4.39
-6.30
-8.07
-9.51
-10.59
-11.43
-12.25
-13.19
-14.25
-15.24
-15.86
-15.81
-14.91
-13.13
-10.58
-7.47
-4.09
-0.74
2.26
4.67
6.36
7.35
7.80
7.90
7.80
7.55
7.12
6.50
5.75
5.04
4.54
4.31
4.29
4.24
3.90
3.10
1.86
0.35
-1.19
-2.57
-3.76
-4.83
-5.97
-7.32
-8.96
-10.86
-12.93
-15.02
-17.00
-18.71
-19.95
-20.48
-20.02
-18.36
-15.50
-11.70
-7.47
-3.40
0.00
2.52
4.19
5.26
5.96
6.42
6.65
6.59
6.28
5.86
5.47
5.22
5.09
4.95
4.66
4.18
3.58
3.01
2.59
2.34
2.18
1.96
1.55
0.83
-0.22
-1.53
-3.03
-4.59
-6.10
-7.50
-8.74
-9.83
-10.85
-11.88
-13.05
-14.41
-15.92
-17.35
-18.32
-18.40
-17.26
-14.86
-11.42
-7.40
-3.30
0.46
3.63
6.09
7.82
8.85
9.28
9.26
9.08
8.97
9.12
9.52
10.05
10.51
10.79
10.87
10.83
10.78
10.78
10.85
10.93
10.92
10.68
10.08
9.04
7.62
5.96
4.22
2.55
1.00
-0.46
-1.95
-3.56
-5.29
-7.09
-8.80
-10.22
-11.13
-11.35
-10.81
-9.48
-7.43
-4.75
-1.53
2.07
5.79
9.32
12.25
14.26
15.20
15.12
14.21
12.78
11.11
9.43
7.96
6.86
6.24
6.04
6.07
5.94
5.29
3.87
1.73
-0.82
-3.30
-5.24
-6.31
-6.42
-5.76
-4.62
-3.41
-2.47
-2.13
-2.58
-3.98
-6.33
-9.54
-13.34
-17.24
-20.67
-22.98
-23.69
-22.62
-19.96
-16.17
-11.95
-7.92
-4.47
-1.74
0.41
2.17
3.80
5.39
6.92
8.30
9.40
10.15
10.55
10.68
10.65
10.53
10.34
10.09
9.80
9.53
9.34
9.27
9.23
9.02
8.37
7.06
5.04
2.46
-0.36
-3.05
-5.39
-7.29
-8.91
-10.44
-12.13
-14.06
-16.24
-18.58
-20.85
-22.82
-24.16
-24.58
-23.82
-21.81
-18.67
-14.72
-10.40
-6.14
-2.28
0.94
3.39
5.02
5.82
5.87
5.36
4.54
3.74
3.18
3.00
3.17
3.56
3.97
4.24
4.26
4.05
3.73
3.45
3.33
3.46
3.81
4.27
4.73
5.11
5.36
5.51
5.53
5.38
4.94
4.12
2.86
1.18
-0.84
-3.07
-5.40
-7.71
-9.80
-11.39
-12.13
-11.69
-9.92
-6.86
-2.83
1.68
6.09
9.93
12.85
14.70
15.51
15.39
14.58
13.35
11.99
10.76
9.84
9.33
9.18
9.30
9.51
9.65
9.53
9.03
8.09
6.73
5.02
3.13
1.15
-0.83
-2.83
-4.86
-6.98
-9.17
-11.44
-13.80
-16.31
-19.07
-22.13
-25.39
-28.60
-31.36
-33.16
-33.52
-32.13
-28.91
-24.08
-18.09
-11.57
-5.14
0.69
5.61
9.46
12.21
13.90
14.59
14.41
13.64
12.62
11.74
11.26
11.27
11.63
12.12
12.49
12.65
12.56
12.28
11.80
11.07
9.95
8.27
5.97
3.04
-0.35
-3.94
-7.43
-10.58
-13.31
-15.70
-17.93
-20.26
-22.85
-25.72
-28.71
-31.46
-33.48
-34.21
-33.24
-30.34
-25.63
-19.57
-12.80
-6.03
0.14
5.32
9.29
12.02
13.55
14.06
13.78
13.03
12.11
11.30
10.76
10.55
10.60
10.80
11.01
11.12
11.07
10.86
10.55
10.19
9.82
9.37
8.74
7.79
6.45
4.74
2.73
0.56
-1.70
-4.03
-6.48
-9.14
-12.07
-15.28
-18.62
-21.78
-24.31
-25.66
-25.32
-22.97
-18.63
-12.70
-5.82
1.21
7.69
13.14
17.31
20.18
21.83
22.42
22.13
21.17
19.80
18.31
16.98
16.03
15.50
15.32
15.31
15.26
15.02
14.48
13.60
12.37
10.80
8.94
6.91
4.83
2.80
0.81
-1.26
-3.66
-6.58
-10.12
-14.16
-18.33
-22.06
-24.70
-25.69
-24.66
-21.57
-16.71
-10.64
-4.10
2.23
7.77
12.15
15.23
16.98
17.49
16.90
15.38
13.16
10.56
7.98
5.79
4.31
3.67
3.79
4.41
5.13
5.56
5.47
4.79
3.59
2.01
0.17
-1.93
-4.33
-7.10
-10.30
-13.94
-18.01
-22.44
-27.03
-31.39
-34.92
-36.86
-36.52
-33.51
-27.90
-20.31
-11.79
-3.44
3.81
9.47
13.49
16.13
17.75
18.69
19.13
19.22
19.03
18.69
18.35
18.14
18.10
18.22
18.38
18.47
18.39
18.11
17.57
16.65
15.19
13.03
10.08
6.41
2.27
-1.97
-5.97
-9.54
-12.74
-15.84
-19.25
-23.27
-28.01
-33.25
-38.36
-42.46
-44.57
-43.91
-40.15
-33.57
-24.99
-15.51
-6.22
2.05
8.89
14.23
18.22
21.05
22.89
23.82
24.01
23.68
23.16
22.73
22.57
22.70
22.93
23.05
22.91
22.51
21.95
21.35
20.75
20.09
19.23
18.00
16.28
14.00
11.16
7.83
4.17
0.46
-3.01
-6.01
-8.51
-10.73
-13.11
-16.08
-19.94
-24.63
-29.67
-34.20
-37.20
-37.73
-35.21
-29.63
-21.55
-11.97
-2.09
7.01
14.61
20.36
24.29
26.64
27.71
27.80
27.24
26.35
25.47
24.86
24.63
24.71
24.85
24.73
24.17
23.18
22.00
20.96
20.29
20.00
19.77
19.14
17.65
15.11
11.67
7.71
3.77
0.23
-2.84
-5.59
-8.38
-11.54
-15.26
-19.52
-24.01
-28.15
-31.15
-32.17
-30.54
-26.04
-18.98
-10.21
-0.89
7.88
15.27
20.89
24.68
26.83
27.56
27.11
25.76
23.83
21.71
19.84
18.53
17.97
18.07
18.54
19.00
19.10
18.67
17.73
16.46
15.05
13.58
11.97
10.02
7.53
4.40
0.74
-3.26
-7.34
-11.32
-15.16
-18.97
-22.95
-27.32
-32.22
-37.63
-43.27
-48.51
-52.47
-54.14
-52.72
-47.83
-39.84
-29.73
-18.90
-8.71
-0.09
6.58
11.45
14.87
17.20
18.62
19.23
19.13
18.54
17.83
17.37
17.42
17.99
18.89
19.82
20.57
21.01
21.19
21.19
21.06
20.75
20.05
18.75
16.67
13.82
10.38
6.69
3.10
-0.09
-2.80
-5.13
-7.30
-9.60
-12.23
-15.34
-19.01
-23.18
-27.65
-31.95
-35.31
-36.84
-35.71
-31.50
-24.38
-15.13
-4.91
5.08
13.89
21.01
26.31
29.91
32.01
32.79
32.45
31.27
29.59
27.78
26.17
24.89
23.92
23.13
22.40
21.68
21.05
20.56
20.19
19.73
18.82
17.15
14.53
11.04
7.01
2.86
-0.97
-4.26
-6.94
-9.20
-11.32
-13.65
-16.44
-19.73
-23.20
-26.21
-27.89
-27.41
-24.31
-18.67
-11.15
-2.85
5.13
11.88
16.91
20.13
21.72
21.93
20.99
19.16
16.72
14.08
11.67
9.86
8.83
8.50
8.59
8.72
8.62
8.16
7.34
6.21
4.78
3.00
0.87
-1.60
-4.27
-6.97
-9.52
-11.89
-14.17
-16.55
-19.31
-22.66
-26.71
-31.27
-35.83
-39.55
-41.41
-40.54
-36.53
-29.60
-20.64
-10.93
-1.72
6.04
11.91
15.92
18.37
19.64
20.10
20.03
19.70
19.26
18.80
18.30
17.68
16.91
15.98
15.04
14.26
13.74
13.47
13.27
12.86
12.02
10.57
8.52
5.94
2.99
-0.17
-3.38
-6.50
-9.51
-12.46
-15.59
-19.21
-23.51
-28.39
-33.29
-37.29
-39.31
-38.53
-34.64
-28.01
-19.60
-10.62
-2.20
4.85
10.20
13.89
16.17
17.33
17.60
17.13
16.10
14.73
13.30
12.12
11.36
11.06
11.06
11.16
11.17
11.05
10.82
10.51
10.04
9.23
7.86
5.84
3.29
0.43
-2.45
-5.21
-7.93
-10.85
-14.18
-17.91
-21.64
-24.70
-26.27
-25.73
-22.82
-17.80
-11.35
-4.40
2.15
7.63
11.68
14.26
15.54
15.76
15.17
13.97
12.40
10.69
9.09
7.85
7.10
6.85
6.94
7.07
6.94
6.25
4.85
2.80
0.31
-2.28
-4.74
-6.96
-9.05
-11.28
-13.93
-17.21
-21.18
-25.71
-30.43
-34.78
-37.96
-39.16
-37.78
-33.66
-27.24
-19.38
-11.18
-3.56
2.92
8.10
12.08
15.02
17.07
18.32
18.90
18.97
18.71
18.29
17.80
17.21
16.49
15.57
14.50
13.34
12.23
11.23
10.31
9.33
8.04
6.23
3.82
0.87
-2.39
-5.67
-8.77
-11.65
-14.40
-17.23
-20.33
-23.83
-27.70
-31.68
-35.17
-37.35
-37.32
-34.43
-28.63
-20.58
-11.52
-2.87
4.28
9.48
12.95
15.27
17.04
18.55
19.78
20.56
20.83
20.71
20.48
20.45
20.73
21.20
21.54
21.41
20.63
19.20
17.36
15.41
13.57
11.82
10.04
7.99
5.53
2.72
-0.19
-2.85
-4.98
-6.48
-7.51
-8.37
-9.48
-11.24
-13.93
-17.65
-22.25
-27.26
-31.87
-35.17
-36.30
-34.73
-30.43
-23.90
-15.98
-7.66
0.16
6.88
12.16
15.96
18.39
19.66
20.04
19.83
19.36
18.97
18.93
19.33
20.09
20.91
21.39
21.21
20.26
18.72
16.95
15.35
14.16
13.38
12.72
11.78
10.23
7.93
5.09
2.08
-0.70
-2.99
-4.82
-6.46
-8.23
-10.45
-13.28
-16.73
-20.57
-24.40
-27.60
-29.41
-29.16
-26.50
-21.56
-14.99
-7.75
-0.80
5.19
9.93
13.40
15.73
17.06
17.49
17.20
16.45
15.54
14.72
14.14
13.73
13.35
12.82
12.10
11.25
10.42
9.74
9.30
9.02
8.76
8.30
7.48
6.22
4.60
2.83
1.13
-0.37
-1.70
-3.02
-4.55
-6.44
-8.67
-11.07
-13.39
-15.46
-17.21
-18.79
-20.48
-22.56
-25.23
-28.47
-31.99
-35.22
-37.47
-38.01
-36.40
-32.54
-26.79
-19.87
-12.64
-5.90
-0.18
4.34
7.71
10.13
11.82
12.91
13.54
13.82
13.94
14.03
14.23
14.51
14.77
14.86
14.69
14.27
13.72
13.16
12.66
12.17
11.57
10.73
9.61
8.26
6.78
5.31
3.91
2.64
1.44
0.26
-0.94
-2.19
-3.47
-4.71
-5.86
-6.88
-7.80
-8.70
-9.72
-11.05
-12.83
-15.11
-17.78
-20.47
-22.67
-23.72
-23.10
-20.49
-16.01
-10.17
-3.75
2.40
7.58
11.40
13.83
15.03
15.33
15.09
14.60
14.10
13.74
13.58
13.58
13.67
13.68
13.50
13.02
12.25
11.20
9.97
8.70
7.48
6.37
5.34
4.30
3.14
1.79
0.23
-1.48
-3.24
-4.92
-6.46
-7.84
-9.12
-10.40
-11.75
-13.24
-14.93
-16.86
-19.06
-21.43
-23.71
-25.46
-26.11
-25.20
-22.50
-18.20
-12.84
-7.16
-1.85
2.59
5.94
8.24
9.68
10.52
10.96
11.19
11.30
11.33
11.29
11.20
11.05
10.89
10.72
10.57
10.41
10.19
9.82
9.27
8.46
7.42
6.17
4.76
3.25
1.68
0.08
-1.48
-2.94
-4.25
-5.40
-6.45
-7.56
-8.90
-10.60
-12.69
-15.03
-17.40
-19.57
-21.44
-23.06
-24.64
-26.33
-28.11
-29.67
-30.50
-30.06
-28.09
-24.67
-20.18
-15.19
-10.17
-5.49
-1.32
2.24
5.13
7.31
8.80
9.71
10.19
10.42
10.48
10.44
10.31
10.16
10.05
10.06
10.26
10.63
11.10
11.56
11.86
11.91
11.65
11.12
10.38
9.50
8.56
7.54
6.44
5.21
3.88
2.53
1.21
-0.01
-1.18
-2.40
-3.75
-5.30
-7.01
-8.83
-10.74
-12.74
-14.85
-16.99
-18.93
-20.26
-20.55
-19.44
-16.85
-13.01
-8.37
-3.50
1.09
5.04
8.17
10.46
11.97
12.77
12.94
12.59
11.90
11.12
10.47
10.15
10.22
10.63
11.20
11.68
11.88
11.67
11.04
10.10
9.02
7.93
6.82
5.58
3.99
1.89
-0.71
-3.62
-6.48
-8.97
-10.90
-12.31
-13.38
-14.39
-15.56
-17.08
-19.05
-21.46
-24.20
-26.97
-29.31
-30.67
-30.57
-28.71
-25.11
-20.10
-14.22
-8.11
-2.31
2.79
7.04
10.40
12.94
14.72
15.77
16.10
15.76
14.84
13.50
11.93
10.24
8.47
6.60
4.56
2.34
-0.01
-2.29
-4.27
-5.71
-6.45
-6.50
-6.03
-5.30
-4.65
-4.27
-4.23
-4.45
-4.76
-5.07
-5.36
-5.68
-6.10
-6.65
-7.36
-8.31
-9.66
-11.59
-14.16
-17.23
-20.36
-22.94
-24.28
-23.85
-21.41
-17.10
-11.44
-5.17
0.92
6.23
10.46
13.60
15.89
17.50
18.55
19.02
18.92
18.32
17.44
16.56
15.88
15.46
15.24
15.09
14.92
14.70
14.43
14.09
13.64
12.99
12.04
10.69
8.89
6.67
4.18
1.64
-0.72
-2.74
-4.40
-5.84
-7.32
-9.12
-11.42
-14.18
-17.14
-19.77
-21.44
-21.57
-19.81
-16.23
-11.26
-5.55
0.19
5.44
9.90
13.46
16.08
17.71
18.29
17.79
16.29
14.06
11.55
9.23
7.50
6.59
6.44
6.76
7.16
7.28
6.94
6.11
4.92
3.50
1.88
0.02
-2.21
-4.88
-8.00
-11.50
-15.26
-19.15
-22.92
-26.19
-28.43
-29.08
-27.70
-24.18
-18.84
-12.37
-5.66
0.48
5.48
9.13
11.51
12.86
13.45
13.48
13.05
12.22
11.09
9.78
8.54
7.57
7.01
6.85
6.92
6.94
6.64
5.86
4.56
2.85
0.86
-1.33
-3.70
-6.31
-9.17
-12.28
-15.60
-19.10
-22.84
-26.88
-31.08
-35.01
-37.91
-38.89
-37.27
-32.89
-26.22
-18.25
-10.08
-2.69
3.42
8.10
11.51
13.89
15.43
16.27
16.51
16.27
15.68
14.93
14.16
13.52
13.12
12.97
13.04
13.22
13.35
13.23
12.73
11.70
10.12
8.00
5.45
2.59
-0.46
-3.59
-6.77
-10.05
-13.49
-17.23
-21.28
-25.53
-29.58
-32.78
-34.38
-33.69
-30.38
-24.64
-17.20
-9.09
-1.35
5.28
10.56
14.60
17.70
20.12
21.97
23.20
23.81
23.88
23.57
23.12
22.67
22.26
21.85
21.37
20.81
20.21
19.61
18.98
18.24
17.30
16.14
14.80
13.34
11.79
10.05
8.03
5.69
3.07
0.38
-2.20
-4.58
-6.83
-9.13
-11.68
-14.59
-17.88
-21.43
-25.02
-28.34
-30.91
-32.11
-31.31
-28.08
-22.41
-14.82
-6.24
2.18
9.50
15.18
19.18
21.77
23.38
24.39
25.01
25.35
25.44
25.33
25.04
24.61
24.03
23.29
22.38
21.34
20.24
19.20
18.27
17.43
16.58
15.56
14.20
12.37
10.00
7.16
4.03
0.83
-2.22
-5.03
-7.73
-10.56
-13.75
-17.36
-21.12
-24.47
-26.66
-27.01
-25.09
-20.89
-14.79
-7.54
-0.01
6.99
12.82
17.15
19.96
21.47
21.99
21.84
21.24
20.37
19.38
18.49
17.92
17.81
18.15
18.69
19.04
18.80
17.77
16.06
14.00
12.01
10.35
8.97
7.61
5.88
3.54
0.55
-2.82
-6.21
-9.25
-11.79
-13.87
-15.72
-17.64
-19.92
-22.72
-26.03
-29.61
-32.95
-35.32
-35.96
-34.27
-30.09
-23.78
-16.16
-8.27
-1.06
4.89
9.45
12.83
15.41
17.46
19.13
20.40
21.23
21.60
21.59
21.30
20.86
20.36
19.85
19.35
18.87
18.40
17.88
17.23
16.35
15.18
13.66
11.81
9.70
7.44
5.15
2.98
0.99
-0.85
-2.65
-4.59
-6.79
-9.23
-11.77
-14.21
-16.35
-18.17
-19.77
-21.42
-23.39
-25.90
-28.96
-32.33
-35.47
-37.62
-37.99
-36.03
-31.60
-25.17
-17.65
-10.06
-3.29
2.19
6.33
9.34
11.53
13.09
14.17
14.91
15.42
15.87
16.39
16.97
17.48
17.75
17.67
17.28
16.73
16.25
15.99
15.99
16.18
16.35
16.29
15.81
14.81
13.29
11.39
9.35
7.47
5.94
4.81
3.92
3.02
1.88
0.42
-1.29
-3.03
-4.68
-6.16
-7.51
-8.85
-10.32
-12.03
-14.04
-16.36
-18.75
-20.79
-21.86
-21.38
-19.01
-14.85
-9.40
-3.41
2.38
7.45
11.51
14.47
16.29
16.99
16.66
15.54
13.99
12.43
11.20
10.47
10.26
10.43
10.79
11.17
11.41
11.40
11.06
10.37
9.41
8.30
7.14
5.99
4.84
3.62
2.26
0.72
-0.99
-2.87
-4.88
-6.99
-9.20
-11.53
-13.98
-16.58
-19.25
-21.80
-23.93
-25.22
-25.29
-23.91
-21.09
-17.08
-12.34
-7.33
-2.44
2.03
5.93
9.16
11.60
13.17
13.78
13.48
12.45
11.01
9.54
8.44
7.93
8.05
8.66
9.45
10.12
10.42
10.19
9.39
8.10
6.42
4.48
2.41
0.32
-1.68
-3.52
-5.11
-6.44
-7.54
-8.52
-9.54
-10.73
-12.19
-13.96
-16.01
-18.29
-20.78
-23.39
-25.98
-28.29
-29.92
-30.43
-29.47
-26.90
-22.86
-17.79
-12.33
-7.12
-2.68
0.77
3.28
5.11
6.55
7.81
8.96
9.93
10.66
11.10
11.33
11.49
11.70
11.98
12.29
12.50
12.48
12.19
11.60
10.76
9.68
8.35
6.78
4.99
3.08
1.20
-0.51
-1.98
-3.22
-4.35
-5.52
-6.81
-8.25
-9.77
-11.28
-12.73
-14.16
-15.68
-17.40
-19.41
-21.68
-24.01
-26.04
-27.30
-27.33
-25.84
-22.80
-18.50
-13.41
-8.09
-3.02
1.49
5.27
8.25
10.41
11.77
12.35
12.31
11.85
11.24
10.70
10.43
10.46
10.76
11.18
11.51
11.56
11.17
10.30
9.01
7.43
5.64
3.67
1.46
-1.07
-3.88
-6.88
-9.91
-12.82
-15.57
-18.30
-21.22
-24.47
-28.12
-32.01
-35.96
-39.72
-43.06
-45.74
-47.51
-48.11
-47.36
-45.28
-42.08
-38.13
-33.81
-29.39
-24.93
-20.26
-15.10
-9.12
-2.14
5.85
14.78
24.58
35.32
47.27
60.81
76.26
93.60
112.37
131.74
150.59
167.74
182.11
192.68
198.52
198.87
193.37
182.13
165.82
145.27
121.16
93.88
63.51
30.30
-4.99
-40.88
-75.40
-106.52
-132.62
-152.72
-166.40
-173.74
-175.14
-171.36
-163.57
-153.23
-141.84
-130.56
-119.94
-110.00
-100.37
-90.64
-80.60
-70.35
-60.22
-50.63
-41.91
-34.20
-27.35
-20.96
-14.55
-7.78
-0.68
6.35
12.74
18.11
22.60
26.97
32.17
38.84
46.68
54.44
60.32
62.89
61.88
58.48
54.93
53.71
56.54
63.79
74.43
86.50
97.77
106.51
112.06
115.23
118.20
123.95
135.31
153.65
177.98
204.80
228.90
244.95
249.19
240.39
219.95
190.91
156.62
119.70
81.53
42.46
2.45
-38.23
-78.59
-116.99
-151.60
-180.96
-204.40
-222.18
-235.16
-244.45
-250.85
-254.61
-255.25
-251.85
-243.56
-230.19
-212.66
-192.86
-173.22
-155.75
-141.26
-129.05
-117.28
-104.05
-88.47
-71.17
-53.94
-39.05
-28.42
-23.18
-23.62
-29.39
-39.51
-52.44
-66.13
-78.42
-87.62
-93.07
-95.33
-95.81
-96.14
-97.47
-100.02
-103.06
-104.95
-103.50
-96.47
-82.56
-62.28
-38.30
-14.76
3.93
14.63
16.10
8.83
-5.61
-25.05
-46.61
-66.39
-79.68
-81.81
-69.79
-43.67
-6.87
34.90
75.68
111.20
139.64
161.40
177.80
189.91
197.95
201.53
200.51
195.79
189.59
184.68
183.19
185.40
189.41
192.06
190.63
184.26
174.39
163.94
155.89
151.96
152.11
154.94
158.51
161.19
162.05
160.93
158.17
154.34
150.02
145.59
141.08
136.06
129.70
121.00
109.16
94.02
76.21
57.07
38.31
21.35
6.68
-6.48
-19.81
-34.99
-52.63
-71.74
-89.97
-104.78
-114.81
-120.78
-125.48
-132.85
-146.81
-170.17
-203.99
-247.04
-295.65
-343.68
-383.26
-406.47
-407.38
-383.76
-337.45
-273.57
-199.18
-122.01
-49.75
10.51
53.30
76.16
80.88
73.53
62.54
55.58
56.69
65.29
77.46
88.54
95.43
97.32
94.98
89.10
79.73
66.37
48.84
27.88
4.69
-20.18
-47.89
-81.24
-123.06
-174.15
-231.79
-290.03
-341.54
-380.08
-402.37
-408.54
-401.11
-383.54
-358.84
-329.23
-296.23
-261.02
-224.62
-187.89
-151.43
-115.53
-80.30
-45.74
-11.67
22.46
57.57
94.92
135.89
181.54
231.92
285.42
338.34
385.20
419.83
437.24
435.49
416.69
386.49
352.22
320.39
294.62
274.98
258.84
242.64
223.69
201.24
176.48
151.82
129.82
112.43
100.64
94.55
93.81
97.74
105.12
113.76
120.40
120.89
111.38
89.77
56.88
16.82
-23.93
-58.42
-81.07
-89.08
-82.56
-63.87
-36.80
-5.92
23.89
48.01
63.22
68.59
66.00
59.31
52.63
48.37
46.29
44.03
38.72
28.56
13.51
-5.36
-26.85
-50.28
-75.43
-101.96
-129.24
-156.98
-186.27
-219.86
-260.96
-310.81
-366.35
-419.77
-460.55
-479.28
-471.40
-438.74
-388.42
-329.64
-270.18
-214.37
-162.99
-114.70
-67.76
-21.05
25.98
73.95
124.01
177.37
234.29
293.03
349.70
399.15
436.70
459.92
469.17
466.81
455.60
437.11
411.34
377.60
335.91
288.07
237.54
188.14
142.51
101.08
62.02
21.99
-22.18
-71.79
-124.67
-175.02
-214.88
-237.01
-237.91
-219.55
-188.65
-154.01
-123.07
-99.70
-84.08
-74.18
-67.78
-63.45
-60.32
-57.33
-52.64
-44.10
-30.22
-11.11
11.32
34.03
53.75
67.79
74.26
71.82
59.20
35.29
0.07
-44.20
-92.23
-136.30
-168.13
-181.50
-173.88
-146.66
-103.62
-49.22
12.38
76.93
139.14
192.44
230.15
247.69
244.39
223.72
191.75
154.78
117.45
82.11
49.39
19.39
-7.59
-30.85
-49.79
-64.50
-76.01
-86.22
-97.22
-110.38
-125.60
-140.98
-153.37
-159.59
-157.81
-148.48
-134.24
-118.88
-105.65
-96.00
-89.15
-82.67
-73.63
-59.84
-40.54
-16.59
9.87
36.17
59.72
78.72
92.40
100.99
105.25
105.79
102.63
94.95
81.56
61.75
36.12
6.92
-22.43
-48.51
-69.29
-84.75
-96.68
-107.55
-119.07
-131.38
-143.02
-151.66
-155.07
-151.63
-140.12
-119.23
-87.46
-43.93
10.34
71.27
131.83
183.69
219.96
237.60
238.35
227.61
211.81
195.60
180.28
164.20
144.72
120.49
92.83
65.36
42.37
26.74
18.77
16.37
16.38
16.10
14.30
10.95
6.39
0.50
-7.46
-18.31
-31.99
-47.08
-61.33
-72.75
-81.01
-88.32
-99.03
-118.15
-148.91
-190.73
-238.48
-283.56
-316.55
-330.28
-321.93
-293.24
-249.00
-194.78
-135.08
-72.98
-11.07
47.46
98.54
138.25
164.30
176.74
177.63
169.53
154.27
132.92
106.66
77.92
50.73
29.75
18.35
17.34
24.93
37.94
53.43
69.55
85.21
99.18
109.38
113.29
109.15
97.03
79.08
58.85
39.75
23.71
10.74
-0.61
-12.12
-24.79
-38.31
-51.24
-61.65
-68.05
-69.89
-67.68
-62.63
-56.11
-49.15
-42.23
-35.43
-28.62
-21.85
-15.44
-9.91
-5.69
-2.93
-1.38
-0.57
-0.09
0.09
-0.45
-2.27
-5.76
-10.73
-16.34
-21.43
-24.99
-26.65
-26.80
-26.46
-26.73
-28.31
-31.17
-34.62
-37.66
-39.41
-39.52
-38.15
-35.86
-33.30
-30.93
-28.94
-27.30
-25.85
-24.53
-23.37
-22.66
-22.86
-24.57
-28.17
-33.58
-40.10
-46.59
-51.95
-55.67
-58.17
-60.59
-64.27
-70.05
-77.86
-86.81
-95.64
-103.27
-109.26
-113.85
-117.86
-122.48
-128.97
-138.39
-151.27
-167.07
-184.04
-199.19
-208.82
-209.37
-198.45
-175.61
-142.46
-101.89
-56.73
-8.27
44.39
103.76
172.06
249.19
331.38
411.61
481.56
534.09
565.14
574.15
563.08
535.04
493.02
439.65
377.35
308.73
236.64
164.02
93.61
27.85
-31.31
-82.44
-124.75
-158.16
-183.22
-200.74
-211.67
-217.00
-217.91
-215.88
-212.56
-209.40
-207.11
-205.46
-203.42
-199.75
-193.79
-185.88
-177.43
-170.43
-166.88
-168.05
-174.03
-183.68
-194.94
-205.50
-213.50
-217.97
-218.77
-216.30
-210.84
-202.07
-188.90
-169.66
-142.66
-106.86
-62.40
-10.82
45.15
102.12
156.70
206.06
248.34
282.79
309.56
329.63
344.41
355.53
364.39
371.62
376.83
378.67
375.44
365.88
350.00
329.27
306.31
284.00
264.59
249.11
237.31
228.08
219.84
210.67
198.42
180.67
155.30
121.29
79.61
33.34
-12.79
-54.00
-87.13
-111.74
-130.40
-147.91
-169.81
-200.35
-240.52
-286.56
-330.08
-360.19
-367.39
-347.82
-305.50
-251.40
-199.30
-160.44
-139.46
-133.61
-135.24
-135.80
-129.68
-115.91
-97.80
-81.29
-73.15
-79.33
-103.63
-146.39
-203.52
-267.02
-326.44
-371.76
-396.22
-398.02
-380.22
-349.06
-311.66
-274.07
-240.20
-211.72
-188.53
-169.11
-150.95
-130.97
-106.29
-75.22
-37.98
3.21
45.00
84.40
119.83
151.95
183.40
217.78
257.96
304.52
354.80
403.26
443.06
468.44
476.95
470.11
452.61
429.95
406.00
381.57
354.60
321.83
280.90
231.66
176.24
117.89
59.40
2.04
-54.68
-112.50
-173.69
-240.24
-312.82
-390.04
-467.80
-539.41
-596.90
-633.39
-645.34
-633.75
-603.54
-561.33
-512.82
-461.14
-406.90
-349.55
-288.85
-225.61
-161.24
-96.78
-32.22
33.37
101.19
171.88
245.12
319.16
390.51
454.04
503.67
533.83
541.49
527.41
496.16
454.52
409.18
364.76
323.32
285.04
249.55
216.78
186.94
159.94
135.14
111.82
90.10
71.56
58.49
51.95
49.96
46.97
35.44
9.10
-33.67
-88.29
-144.87
-191.56
-218.49
-220.63
-198.47
-156.81
-102.61
-43.29
14.41
65.21
105.78
135.09
154.36
166.49
174.97
182.86
191.93
202.42
212.81
220.13
220.39
209.54
184.67
145.13
92.64
30.39
-38.23
-110.29
-182.91
-251.89
-311.06
-353.20
-372.36
-366.41
-338.15
-293.91
-240.79
-183.92
-125.55
-66.43
-8.09
45.60
88.95
116.58
126.05
119.09
101.14
79.23
59.58
45.96
38.84
36.05
33.80
28.12
16.15
-3.00
-28.14
-56.44
-85.07
-112.34
-137.72
-160.81
-179.90
-191.71
-191.90
-176.80
-144.82
-97.45
-38.48
27.84
98.19
170.09
240.34
303.38
351.22
375.91
371.74
337.41
276.72
197.28
107.53
13.61
-82.11
-179.97
-278.23
-373.29
-459.29
-528.83
-574.57
-591.58
-579.32
-542.11
-487.01
-416.91
-334.59
-243.82
-149.70
-57.42
29.04
107.49
177.76
242.79
314.75
403.39
511.17
631.81
753.85
864.63
953.57
1013.86
1044.85
1060.12
1072.16
1086.13
1098.40
1101.44
1088.58
1056.79
1005.78
877.37
649.50
344.33
18.29
-274.77
-507.54
-677.08
-790.39
-864.95
-909.19
-916.85
-884.44
-817.22
-728.98
-631.38
-535.77
-448.78
-373.17
-308.14
-245.78
-181.98
-118.75
-62.24
-17.23
15.67
40.20
60.74
80.50
103.62
129.73
154.56
172.15
178.38
172.20
155.68
132.21
106.15
83.51
68.42
61.41
59.02
55.09
43.02
18.68
-18.07
-62.95
-108.34
-146.73
-173.36
-187.21
-190.45
-187.05
-181.15
-176.16
-174.17
-175.85
-180.49
-186.33
-191.04
-192.52
-189.51
-181.78
-170.18
-156.28
-141.99
-129.09
-118.85
-111.80
-107.57
-105.13
-103.09
-100.18
-95.66
-89.53
-82.41
-75.18
-68.56
-62.69
-57.01
-50.57
-42.50
-32.43
-20.80
-8.73
2.43
11.54
18.03
21.92
23.55
23.38
21.74
18.90
15.25
11.33
7.86
5.58
4.98
6.17
8.80
12.19
15.54
18.15
19.63
19.89
19.14
17.67
15.76
13.52
10.92
7.90
4.44
0.61
-3.33
-7.02
-9.95
-11.56
-11.34
-8.99
-4.54
1.52
8.41
15.24
21.24
25.91
29.00
30.43
30.18
28.27
24.89
20.45
15.61
11.13
7.61
5.30
4.02
3.25
2.40
1.00
-1.14
-3.87
-6.86
-9.73
-12.23
-14.31
-16.12
-17.93
-20.05
-22.75
-26.09
-29.88
-33.60
-36.43
-37.41
-35.75
-31.07
-23.65
-14.40
-4.61
4.39
11.61
16.61
19.48
20.65
20.64
19.89
18.62
16.88
14.72
12.25
9.73
7.51
5.91
5.03
4.72
4.62
4.35
3.65
2.57
1.35
0.27
-0.54
-1.17
-1.89
-2.99
-4.66
-6.95
-9.82
-13.21
-16.99
-20.88
-24.32
-26.54
-26.71
-24.30
-19.32
-12.41
-4.67
2.69
8.69
12.83
15.10
15.80
15.39
14.30
12.89
11.47
10.29
9.58
9.40
9.73
10.34
11.00
11.44
11.55
11.32
10.84
10.15
9.24
7.98
6.16
3.67
0.54
-2.98
-6.50
-9.61
-12.04
-13.71
-14.80
-15.63
-16.53
-17.74
-19.27
-20.84
-21.88
-21.70
-19.69
-15.58
-9.53
-2.22
5.40
12.37
17.97
21.88
24.08
24.79
24.27
22.80
20.63
18.00
15.23
12.67
10.64
9.41
9.05
9.47
10.43
11.60
12.77
13.80
14.67
15.38
15.86
15.94
15.45
14.26
12.39
9.97
7.16
4.04
0.56
-3.36
-7.69
-12.15
-16.17
-19.04
-20.10
-19.01
-15.83
-11.04
-5.43
0.17
5.02
8.63
10.80
11.58
11.14
9.76
7.74
5.35
2.87
0.51
-1.48
-2.98
-3.91
-4.36
-4.47
-4.42
-4.35
-4.36
-4.49
-4.85
-5.50
-6.42
-7.46
-8.38
-8.91
-8.94
-8.67
-8.54
-9.10
-10.76
-13.60
-17.31
-21.23
-24.53
-26.45
-26.45
-24.33
-20.26
-14.76
-8.56
-2.47
2.76
6.63
8.90
9.64
9.18
7.97
6.54
5.27
4.42
4.04
4.06
4.33
4.70
5.05
5.34
5.54
5.64
5.63
5.49
5.14
4.55
3.65
2.39
0.78
-1.15
-3.32
-5.63
-8.01
-10.45
-13.01
-15.78
-18.81
-22.05
-25.24
-27.93
-29.55
-29.59
-27.68
-23.82
-18.35
-11.91
-5.29
0.79
5.78
9.40
11.63
12.66
12.78
12.27
11.40
10.36
9.31
8.41
7.77
7.51
7.64
8.07
8.63
9.13
9.41
9.41
9.14
8.71
8.22
7.82
7.62
7.73
8.15
8.80
9.50
10.01
10.07
9.53
8.30
6.46
4.26
2.15
0.72
0.61
2.26
5.76
10.74
16.45
22.01
26.64
29.93
31.77
32.34
31.90
30.69
28.91
26.71
24.26
21.73
19.37
17.31
15.66
14.43
13.52
12.82
12.23
11.67
11.10
10.49
9.77
8.88
7.73
6.25
4.39
2.16
-0.44
-3.44
-6.83
-10.59
-14.48
-18.07
-20.77
-21.92
-21.05
-18.10
-13.45
-7.84
-2.16
2.79
6.50
8.78
9.67
9.37
8.08
6.08
3.65
1.15
-1.06
-2.70
-3.69
-4.09
-4.10
-3.96
-3.87
-3.97
-4.33
-4.99
-5.93
-7.09
-8.36
-9.61
-10.79
-11.90
-13.01
-14.26
-15.80
-17.77
-20.29
-23.38
-26.88
-30.38
-33.23
-34.67
-34.11
-31.30
-26.51
-20.43
-14.01
-8.15
-3.48
-0.25
1.65
2.53
2.77
2.69
2.48
2.28
2.18
2.24
2.44
2.72
2.98
3.13
3.15
3.07
2.96
2.85
2.69
2.35
1.71
0.71
-0.60
-2.12
-3.73
-5.36
-6.96
-8.58
-10.28
-12.17
-14.39
-16.95
-19.70
-22.21
-23.86
-23.95
-21.94
-17.69
-11.59
-4.46
2.63
8.67
13.02
15.50
16.40
16.25
15.60
14.82
14.03
13.25
12.47
11.77
11.36
11.43
12.13
13.41
15.12
16.99
18.76
20.18
21.08
21.34
20.97
20.03
18.71
17.19
15.68
14.30
13.05
11.81
10.33
8.30
5.50
1.94
-1.97
-5.54
-7.91
-8.38
-6.67
-3.03
1.85
7.03
11.66
15.15
17.26
18.04
17.72
16.55
14.74
12.46
9.87
7.18
4.70
2.71
1.40
0.78
0.67
0.78
0.82
0.58
-0.06
-1.12
-2.57
-4.32
-6.22
-8.13
-9.92
-11.59
-13.25
-15.15
-17.54
-20.65
-24.49
-28.79
-32.98
-36.30
-37.95
-37.32
-34.24
-29.01
-22.39
-15.32
-8.71
-3.21
0.85
3.46
4.84
5.33
5.29
4.99
4.52
3.92
3.14
2.19
1.20
0.33
-0.21
-0.33
-0.07
0.42
0.93
1.25
1.24
0.82
0.02
-1.11
-2.43
-3.86
-5.33
-6.85
-8.50
-10.40
-12.67
-15.36
-18.40
-21.55
-24.32
-26.06
-26.11
-23.99
-19.60
-13.38
-6.10
1.23
7.71
12.68
15.89
17.39
17.51
16.72
15.52
14.36
13.59
13.37
13.73
14.60
15.83
17.27
18.75
20.05
20.97
21.38
21.24
20.66
19.89
19.19
18.74
18.61
18.72
18.91
18.98
18.74
18.04
16.74
14.73
12.03
8.86
5.72
3.28
2.32
3.39
6.67
11.90
18.36
25.14
31.40
36.56
40.39
42.97
44.42
44.71
43.50
40.33
34.91
27.45
18.82
10.40
3.61
-0.53
-1.85
-0.89
1.31
3.73
5.68
6.86
7.26
6.91
5.77
3.70
0.58
-3.57
-8.54
-14.03
-19.72
-25.33
-30.60
-35.22
-38.73
-40.60
-40.35
-37.81
-33.24
-27.31
-20.99
-15.22
-10.67
-7.57
-5.86
-5.24
-5.42
-6.16
-7.26
-8.46
-9.41
-9.76
-9.32
-8.22
-6.87
-5.86
-5.66
-6.44
-8.00
-9.87
-11.53
-12.62
-13.04
-12.96
-12.67
-12.59
-13.11
-14.54
-17.05
-20.55
-24.65
-28.63
-31.56
-32.58
-31.14
-27.24
-21.44
-14.66
-7.89
-1.87
3.04
6.84
9.68
11.73
13.07
13.72
13.78
13.44
13.01
12.81
13.09
13.95
15.35
17.06
18.61
19.40
18.83
16.55
12.68
7.89
3.19
-0.48
-2.60
-3.39
-3.57
-4.09
-5.57
-8.17
-11.60
-15.38
-19.14
-22.63
-25.63
-27.74
-28.38
-26.95
-23.16
-17.24
-9.98
-2.47
4.25
9.53
13.19
15.48
16.83
17.69
18.38
19.09
19.86
20.64
21.31
21.78
21.98
21.96
21.86
21.85
22.10
22.62
23.30
23.95
24.34
24.34
23.98
23.40
22.83
22.41
22.12
21.79
21.15
19.91
17.86
14.97
11.33
7.28
3.34
0.23
-1.33
-0.80
1.97
6.59
12.17
17.64
22.00
24.63
25.35
24.41
22.29
19.50
16.55
13.78
11.45
9.67
8.42
7.62
7.14
6.82
6.49
6.00
5.15
3.82
1.98
-0.28
-2.71
-5.06
-7.13
-8.94
-10.65
-12.55
-14.93
-17.95
-21.58
-25.56
-29.40
-32.48
-34.19
-34.05
-31.95
-28.13
-23.14
-17.70
-12.46
-7.86
-4.12
-1.20
1.01
2.61
3.63
4.00
3.60
2.42
0.59
-1.57
-3.67
-5.33
-6.38
-6.87
-7.07
-7.28
-7.75
-8.60
-9.77
-11.15
-12.63
-14.17
-15.80
-17.63
-19.80
-22.40
-25.50
-29.05
-32.84
-36.49
-39.47
-41.14
-40.89
-38.37
-33.60
-27.03
-19.41
-11.59
-4.33
1.92
6.93
10.70
13.31
14.88
15.56
15.55
15.10
14.44
13.78
13.22
12.83
12.64
12.65
12.86
13.24
13.71
14.18
14.51
14.54
14.12
13.11
11.42
9.11
6.36
3.48
0.85
-1.24
-2.69
-3.65
-4.49
-5.64
-7.48
-10.09
-13.14
-15.92
-17.50
-17.09
-14.28
-9.30
-2.90
3.83
9.90
14.58
17.56
18.87
18.72
17.40
15.24
12.55
9.72
7.08
4.91
3.37
2.47
2.18
2.40
3.04
4.01
5.21
6.53
7.89
9.22
10.51
11.72
12.86
13.90
14.82
15.59
16.19
16.60
16.72
16.44
15.52
13.76
11.04
7.40
3.11
-1.34
-5.44
-8.66
-10.67
-11.34
-10.78
-9.29
-7.34
-5.45
-4.06
-3.46
-3.72
-4.66
-6.06
-7.64
-9.20
-10.52
-11.43
-11.69
-11.09
-9.59
-7.32
-4.63
-1.97
0.27
1.82
2.59
2.65
2.14
1.29
0.32
-0.57
-1.26
-1.78
-2.28
-3.00
-4.21
-6.07
-8.49
-11.07
-13.17
-14.00
-12.95
-9.76
-4.67
1.69
8.46
14.94
20.74
25.82
30.30
34.30
37.83
40.76
42.98
44.51
45.55
46.35
47.14
47.95
48.61
48.83
48.25
46.64
43.96
40.30
35.91
31.04
25.91
20.67
15.38
10.00
4.42
-1.58
-8.15
-15.33
-22.84
-30.10
-36.33
-40.73
-42.77
-42.31
-39.63
-35.22
-29.69
-23.58
-17.39
-11.54
-6.42
-2.39
0.39
1.88
2.27
1.83
0.91
-0.20
-1.27
-2.24
-3.16
-4.25
-5.72
-7.74
-10.26
-13.02
-15.69
-17.98
-19.85
-21.59
-23.65
-26.53
-30.42
-35.11
-39.96
-44.12
-46.75
-47.35
-45.90
-42.79
-38.70
-34.33
-30.17
-26.52
-23.45
-21.04
-19.32
-18.41
-18.27
-18.74
-19.46
-20.00
-20.00
-19.27
-17.81
-15.81
-13.51
-11.10
-8.76
-6.59
-4.71
-3.24
-2.30
-1.95
-2.20
-2.97
-4.07
-5.37
-6.77
-8.30
-10.08
-12.30
-15.13
-18.63
-22.63
-26.70
-30.18
-32.28
-32.35
-30.05
-25.53
-19.38
-12.41
-5.44
0.97
6.52
11.21
15.14
18.48
21.36
23.98
26.47
28.99
31.57
34.17
36.60
38.59
39.82
40.06
39.22
37.44
35.07
32.56
30.27
28.31
26.56
24.73
22.58
20.06
17.35
14.72
12.43
10.54
8.93
7.38
5.59
3.28
0.27
-3.48
-7.78
-12.18
-16.00
-18.50
-19.07
-17.45
-13.89
-8.99
-3.58
1.62
6.13
9.81
12.70
14.85
16.23
16.73
16.29
14.98
13.13
11.20
9.63
8.67
8.31
8.34
8.49
8.60
8.65
8.76
9.07
9.59
10.19
10.63
10.64
10.04
8.80
7.07
5.07
3.00
1.03
-0.87
-2.78
-4.87
-7.24
-9.86
-12.57
-15.18
-17.56
-19.60
-21.28
-22.59
-23.46
-23.84
-23.77
-23.44
-23.12
-23.04
-23.20
-23.25
-22.60
-20.62
-16.94
-11.59
-5.09
1.73
7.93
12.68
15.48
16.20
15.08
12.65
9.57
6.49
3.94
2.28
1.70
2.27
3.89
6.36
9.35
12.46
15.42
18.09
20.61
23.24
26.21
29.57
33.05
36.17
38.36
39.19
38.50
36.35
33.01
28.85
24.23
19.48
14.84
10.51
6.60
3.17
0.23
-2.21
-4.18
-5.79
-7.22
-8.77
-10.76
-13.36
-16.54
-19.94
-22.95
-24.86
-25.10
-23.41
-19.88
-14.88
-8.91
-2.45
4.15
10.66
16.83
22.44
27.22
30.96
33.57
35.03
35.42
34.86
33.44
31.34
28.78
26.05
23.38
20.94
18.69
16.50
14.15
11.50
8.47
5.15
1.69
-1.73
-4.91
-7.75
-10.19
-12.31
-14.22
-16.05
-17.88
-19.74
-21.51
-23.11
-24.42
-25.44
-26.26
-27.06
-28.12
-29.61
-31.60
-33.88
-36.04
-37.56
-37.93
-36.79
-34.11
-30.10
-25.24
-20.09
-15.21
-11.03
-7.85
-5.76
-4.67
-4.40
-4.67
-5.21
-5.79
-6.27
-6.52
-6.51
-6.27
-5.89
-5.49
-5.20
-5.06
-5.01
-4.90
-4.57
-3.93
-3.09
-2.37
-2.17
-2.85
-4.51
-6.94
-9.68
-12.10
-13.70
-14.27
-13.93
-13.04
-12.10
-11.50
-11.39
-11.65
-11.92
-11.76
-10.74
-8.64
-5.50
-1.62
2.54
6.44
9.66
11.92
13.11
13.30
12.70
11.59
10.25
8.93
7.76
6.74
5.87
5.12
4.49
4.01
3.68
3.46
3.32
3.27
3.38
3.73
4.29
4.94
5.45
5.62
5.36
4.74
3.89
2.98
2.02
0.89
-0.63
-2.77
-5.61
-9.01
-12.56
-15.69
-17.83
-18.56
-17.83
-15.89
-13.30
-10.62
-8.29
-6.51
-5.24
-4.32
-3.63
-3.19
-3.09
-3.40
-4.11
-4.99
-5.73
-6.01
-5.68
-4.80
-3.63
-2.48
-1.54
-0.88
-0.40
-0.03
0.26
0.36
0.13
-0.58
-1.83
-3.63
-5.88
-8.43
-11.02
-13.32
-14.95
-15.55
-14.87
-12.92
-9.90
-6.26
-2.52
0.82
3.42
5.10
5.87
5.84
5.20
4.08
2.66
1.10
-0.38
-1.54
-2.20
-2.29
-1.90
-1.27
-0.67
-0.36
-0.46
-0.92
-1.61
-2.35
-3.01
-3.55
-4.02
-4.53
-5.25
-6.29
-7.71
-9.45
-11.33
-13.00
-14.04
-14.08
-12.78
-10.11
-6.26
-1.69
3.02
7.34
10.86
13.42
15.04
15.84
15.95
15.45
14.38
12.80
10.82
8.67
6.60
4.91
3.77
3.24
3.21
3.53
4.01
4.55
5.17
6.03
7.34
9.37
12.28
16.05
20.39
24.69
28.15
30.01
29.83
27.65
24.09
20.09
16.63
14.40
13.66
14.16
15.28
16.16
15.89
13.73
9.39
3.06
-4.46
-12.02
-18.46
-22.87
-24.88
-24.60
-22.54
-19.31
-15.51
-11.61
-8.02
-5.03
-2.87
-1.66
-1.34
-1.70
-2.40
-3.10
-3.60
-3.93
-4.40
-5.44
-7.50
-10.72
-14.86
-19.22
-22.85
-24.80
-24.44
-21.67
-16.88
-10.84
-4.43
1.59
6.66
10.44
12.78
13.67
13.28
11.92
9.99
7.90
5.91
4.11
2.48
1.00
-0.31
-1.36
-2.13
-2.65
-3.06
-3.42
-3.69
-3.68
-3.22
-2.29
-1.17
-0.31
-0.19
-1.12
-3.09
-5.87
-9.06
-12.25
-15.02
-16.91
-17.48
-16.34
-13.39
-8.85
-3.34
2.33
7.36
11.12
13.34
14.03
13.42
11.84
9.64
7.18
4.76
2.62
0.93
-0.17
-0.64
-0.48
0.19
1.20
2.26
3.10
3.54
3.47
2.94
2.07
1.01
-0.09
-1.13
-2.08
-2.99
-4.02
-5.37
-7.23
-9.67
-12.56
-15.49
-17.90
-19.14
-18.72
-16.45
-12.50
-7.43
-1.96
3.16
7.43
10.58
12.61
13.67
13.93
13.54
12.68
11.63
10.78
10.56
11.33
13.17
15.91
19.06
22.03
24.31
25.54
25.71
25.03
23.95
22.95
22.41
22.43
22.75
22.78
21.82
19.22
14.65
8.18
0.19
-8.74
-17.95
-26.73
-34.33
-39.96
-42.91
-42.68
-39.22
-32.99
-24.89
-16.07
-7.60
-0.28
5.50
9.72
12.56
14.28
15.04
14.92
13.92
12.09
9.60
6.86
4.42
2.80
2.33
3.01
4.53
6.39
8.11
9.41
10.18
10.48
10.36
9.84
8.89
7.48
5.59
3.28
0.52
-2.66
-6.20
-9.83
-13.05
-15.22
-15.74
-14.29
-10.93
-6.15
-0.71
4.63
9.24
12.78
15.09
16.19
16.14
15.02
12.97
10.18
7.03
3.92
1.30
-0.49
-1.33
-1.37
-0.95
-0.56
-0.60
-1.29
-2.64
-4.41
-6.27
-7.90
-9.14
-9.99
-10.64
-11.36
-12.46
-14.18
-16.55
-19.38
-22.11
-24.03
-24.30
-22.33
-17.94
-11.50
-3.88
3.81
10.52
15.49
18.45
19.54
19.17
17.81
15.90
13.74
11.57
9.60
8.00
6.84
6.09
5.59
5.12
4.53
3.73
2.73
1.49
-0.04
-1.94
-4.24
-6.84
-9.54
-12.17
-14.63
-16.99
-19.47
-22.30
-25.65
-29.47
-33.50
-37.20
-39.86
-40.72
-39.17
-35.00
-28.55
-20.67
-12.47
-5.05
0.86
4.99
7.52
8.90
9.58
9.89
9.99
9.88
9.56
9.08
8.58
8.25
8.26
8.65
9.37
10.27
11.18
12.00
12.65
13.08
13.15
12.63
11.25
8.85
5.49
1.49
-2.68
-6.52
-9.68
-12.04
-13.72
-15.03
-16.40
-18.25
-20.90
-24.40
-28.39
-32.17
-34.78
-35.33
-33.26
-28.60
-21.91
-14.09
-6.08
1.41
7.95
13.34
17.53
20.46
22.18
22.84
22.74
22.25
21.71
21.34
21.17
21.16
21.29
21.59
22.18
23.11
24.33
25.68
26.94
27.96
28.76
29.43
30.10
30.79
31.37
31.66
31.51
30.87
29.89
28.76
27.59
26.38
24.96
23.06
20.43
16.87
12.33
6.96
1.17
-4.36
-8.74
-11.10
-10.94
-8.25
-3.59
2.08
7.74
12.60
16.17
18.33
19.15
18.79
17.53
15.67
13.62
11.74
10.31
9.44
9.04
8.91
8.78
8.41
7.71
6.66
5.40
4.16
3.17
2.53
2.15
1.75
1.04
-0.16
-1.77
-3.48
-4.94
-5.97
-6.66
-7.33
-8.45
-10.31
-13.04
-16.48
-20.31
-24.09
-27.32
-29.49
-30.17
-29.12
-26.43
-22.54
-18.12
-13.93
-10.62
-8.55
-7.74
-7.90
-8.55
-9.21
-9.52
-9.36
-8.81
-8.06
-7.28
-6.51
-5.65
-4.56
-3.18
-1.56
0.07
1.48
2.53
3.17
3.46
3.47
3.21
2.65
1.74
0.47
-1.09
-2.83
-4.61
-6.35
-7.96
-9.40
-10.68
-11.80
-12.83
-13.91
-15.23
-16.95
-19.20
-21.97
-25.07
-28.14
-30.63
-31.93
-31.46
-28.91
-24.31
-18.12
-11.14
-4.25
1.69
6.17
9.02
10.41
10.74
10.50
10.08
9.77
9.68
9.86
10.27
10.89
11.70
12.68
13.77
14.94
16.14
17.32
18.42
19.37
20.02
20.26
19.99
19.19
17.95
16.45
14.87
13.37
11.98
10.67
9.34
7.93
6.43
4.92
3.49
2.19
0.96
-0.35
-1.92
-3.94
-6.52
-9.56
-12.77
-15.59
-17.32
-17.28
-15.07
-10.77
-5.00
1.28
7.05
11.52
14.32
15.53
15.50
14.67
13.45
12.16
11.00
10.09
9.45
9.05
8.80
8.59
8.39
8.16
7.91
7.63
7.32
6.98
6.64
6.35
6.10
5.85
5.42
4.59
3.19
1.15
-1.48
-4.48
-7.65
-10.81
-13.98
-17.27
-20.87
-24.78
-28.78
-32.28
-34.51
-34.71
-32.44
-27.75
-21.20
-13.70
-6.19
0.59
6.21
10.57
13.74
15.93
17.39
18.38
19.18
19.99
20.92
21.95
22.96
23.80
24.39
24.74
24.88
24.88
24.72
24.37
23.83
23.10
22.17
21.00
19.43
17.27
14.43
10.91
6.96
2.95
-0.77
-4.03
-6.87
-9.62
-12.67
-16.32
-20.69
-25.57
-30.52
-34.91
-38.15
-39.75
-39.50
-37.43
-33.85
-29.24
-24.18
-19.23
-14.86
-11.36
-8.87
-7.32
-6.49
-6.07
-5.69
-5.11
-4.21
-3.05
-1.87
-0.95
-0.48
-0.50
-0.88
-1.33
-1.52
-1.18
-0.23
1.25
3.00
4.68
5.98
6.64
6.52
5.61
4.02
1.98
-0.23
-2.29
-4.05
-5.49
-6.83
-8.39
-10.50
-13.33
-16.76
-20.29
-23.23
-24.76
-24.25
-21.40
-16.34
-9.60
-1.99
5.60
12.37
17.74
21.46
23.61
24.53
24.67
24.47
24.15
23.82
23.42
22.96
22.53
22.30
22.41
22.89
23.60
24.23
24.46
23.99
22.62
20.29
17.04
13.05
8.68
4.30
0.27
-3.17
-6.04
-8.51
-10.85
-13.33
-16.08
-19.03
-21.82
-23.90
-24.60
-23.31
-19.77
-14.16
-7.17
0.18
6.83
12.00
15.33
16.87
16.92
15.90
14.20
12.20
10.20
8.50
7.31
6.71
6.62
6.83
7.05
7.08
6.83
6.30
5.64
4.97
4.37
3.82
3.19
2.24
0.74
-1.48
-4.43
-7.87
-11.45
-14.80
-17.69
-20.16
-22.44
-24.86
-27.67
-30.91
-34.38
-37.65
-40.17
-41.33
-40.65
-37.86
-33.06
-26.75
-19.73
-12.91
-7.05
-2.58
0.44
2.27
3.28
3.77
3.93
3.79
3.32
2.57
1.70
0.98
0.75
1.21
2.41
4.19
6.25
8.26
9.95
11.23
12.08
12.60
12.85
12.84
12.54
11.82
10.61
8.94
6.92
4.74
2.57
0.46
-1.63
-3.83
-6.25
-8.95
-11.87
-14.85
-17.61
-19.76
-20.77
-20.13
-17.50
-12.87
-6.66
0.35
7.29
13.36
18.14
21.51
23.63
24.76
25.13
24.94
24.35
23.53
22.71
22.08
21.76
21.78
22.01
22.24
22.26
21.94
21.27
20.34
19.29
18.20
17.02
15.60
13.74
11.30
8.29
4.93
1.55
-1.45
-3.80
-5.51
-6.83
-8.28
-10.34
-13.28
-16.89
-20.50
-23.15
-23.86
-22.05
-17.71
-11.45
-4.32
2.51
8.11
12.02
14.18
14.88
14.47
13.30
11.63
9.72
7.85
6.33
5.42
5.25
5.76
6.71
7.80
8.73
9.33
9.51
9.32
8.85
8.17
7.33
6.28
4.88
2.99
0.53
-2.47
-5.84
-9.27
-12.47
-15.26
-17.62
-19.68
-21.68
-23.88
-26.46
-29.45
-32.70
-35.83
-38.28
-39.41
-38.61
-35.59
-30.46
-23.76
-16.37
-9.27
-3.29
1.07
3.64
4.59
4.36
3.47
2.41
1.46
0.69
-0.09
-1.09
-2.47
-4.14
-5.84
-7.24
-8.12
-8.47
-8.50
-8.53
-8.82
-9.42
-10.17
-10.77
-10.92
-10.50
-9.61
-8.48
-7.34
-6.30
-5.25
-3.94
-2.15
0.24
3.23
6.69
10.47
14.34
18.00
21.13
23.48
25.02
25.98
26.91
28.42
31.04
35.00
40.10
45.79
51.31
55.80
58.55
59.07
57.16
52.89
46.56
38.66
29.78
20.57
11.67
3.64
-3.18
-8.67
-12.92
-16.19
-18.79
-20.95
-22.80
-24.34
-25.54
-26.41
-27.09
-27.86
-29.02
-30.77
-33.03
-35.51
-37.72
-39.26
-40.02
-40.19
-40.25
-40.68
-41.82
-43.70
-46.02
-48.23
-49.65
-49.62
-47.58
-43.34
-37.05
-29.31
-20.97
-12.93
-5.93
-0.39
3.56
6.08
7.40
7.84
7.67
7.24
6.86
6.77
7.09
7.78
8.68
9.60
10.37
10.89
11.12
11.04
10.68
10.12
9.49
8.88
8.33
7.73
6.87
5.54
3.64
1.25
-1.43
-4.14
-6.66
-8.92
-10.95
-12.91
-15.00
-17.45
-20.48
-24.10
-28.08
-31.84
-34.58
-35.49
-34.07
-30.27
-24.58
-17.79
-10.82
-4.43
0.90
4.98
7.90
9.88
11.22
12.21
13.06
13.93
14.87
15.89
16.93
17.88
18.66
19.20
19.57
19.88
20.28
20.81
21.39
21.84
21.98
21.77
21.24
20.49
19.55
18.28
16.52
14.15
11.28
8.23
5.42
3.12
1.42
0.12
-1.03
-2.31
-3.90
-5.93
-8.49
-11.62
-15.14
-18.55
-21.12
-22.01
-20.62
-16.84
-11.11
-4.28
2.67
8.97
14.14
18.04
20.76
22.48
23.37
23.62
23.40
22.98
22.57
22.44
22.70
23.32
24.12
24.79
25.08
24.83
24.07
22.98
21.80
20.71
19.72
18.72
17.49
15.83
13.65
11.01
8.07
5.04
2.06
-0.79
-3.54
-6.28
-9.14
-12.25
-15.64
-19.17
-22.50
-25.08
-26.25
-25.47
-22.54
-17.70
-11.63
-5.21
0.73
5.57
9.03
11.05
11.72
11.19
9.69
7.54
5.20
3.19
1.98
1.79
2.53
3.85
5.27
6.37
6.90
6.87
6.42
5.77
5.11
4.50
3.88
3.13
2.11
0.73
-1.01
-3.04
-5.19
-7.30
-9.25
-10.93
-12.38
-13.70
-15.16
-17.10
-19.83
-23.42
-27.58
-31.60
-34.49
-35.30
-33.45
-28.93
-22.33
-14.62
-6.86
0.09
5.69
9.80
12.56
14.29
15.36
16.08
16.61
17.02
17.29
17.47
17.64
17.92
18.34
18.85
19.33
19.68
19.91
20.11
20.36
20.58
20.53
19.93
18.60
16.61
14.24
11.84
9.64
7.64
5.69
3.61
1.38
-0.87
-2.91
-4.61
-5.97
-7.19
-8.55
-10.35
-12.78
-15.84
-19.27
-22.50
-24.79
-25.39
-23.75
-19.78
-13.88
-6.85
0.35
6.84
12.03
15.64
17.71
18.46
18.25
17.48
16.57
15.85
15.57
15.85
16.66
17.86
19.24
20.57
21.61
22.26
22.50
22.44
22.23
21.94
21.56
20.96
19.93
18.32
16.09
13.31
10.18
6.95
3.85
1.07
-1.29
-3.24
-4.97
-6.81
-9.08
-12.01
-15.48
-19.02
-21.90
-23.33
-22.80
-20.25
-16.06
-10.97
-5.80
-1.26
2.23
4.47
5.45
5.29
4.19
2.47
0.49
-1.38
-2.81
-3.68
-4.00
-3.93
-3.67
-3.35
-2.96
-2.39
-1.37
0.31
2.81
6.09
9.92
13.87
17.41
20.01
21.30
21.15
19.68
17.20
14.09
10.61
6.81
2.55
-2.32
-7.88
-13.88
-19.81
-24.99
-28.68
-30.36
-29.78
-27.11
-22.86
-17.86
-12.98
-9.01
-6.34
-4.99
-4.60
-4.70
-4.90
-5.00
-4.99
-4.92
-4.78
-4.51
-4.05
-3.41
-2.70
-2.04
-1.50
-1.06
-0.63
-0.17
0.31
0.72
0.98
1.04
0.89
0.54
-0.08
-1.05
-2.45
-4.27
-6.36
-8.46
-10.33
-11.83
-12.99
-14.01
-15.17
-16.74
-18.89
-21.66
-24.87
-28.18
-31.04
-32.80
-32.88
-30.90
-26.86
-21.16
-14.54
-7.86
-1.88
2.88
6.25
8.35
9.48
9.98
10.12
10.10
10.10
10.24
10.69
11.61
13.10
15.18
17.80
20.80
23.99
27.04
29.58
31.16
31.41
30.21
27.73
24.44
20.91
17.58
14.67
12.14
9.88
7.84
6.11
4.82
4.02
3.58
3.20
2.59
1.54
-0.03
-2.05
-4.38
-6.82
-9.08
-10.79
-11.50
-10.83
-8.67
-5.24
-1.02
3.30
7.12
10.03
11.88
12.69
12.64
11.94
10.82
9.51
8.18
7.01
6.10
5.54
5.30
5.31
5.40
5.43
5.29
4.97
4.57
4.15
3.74
3.18
2.23
0.72
-1.36
-3.81
-6.23
-8.27
-9.72
-10.60
-11.19
-11.86
-12.99
-14.83
-17.38
-20.35
-23.21
-25.25
-25.80
-24.44
-21.13
-16.26
-10.55
-4.85
0.06
3.68
5.79
6.51
6.14
5.10
3.76
2.42
1.24
0.31
-0.34
-0.69
-0.81
-0.77
-0.73
-0.79
-0.97
-1.18
-1.23
-0.97
-0.35
0.45
1.11
1.23
0.47
-1.27
-3.82
-6.78
-9.67
-12.04
-13.69
-14.69
-15.38
-16.20
-17.58
-19.78
-22.76
-26.14
-29.33
-31.59
-32.21
-30.74
-27.11
-21.67
-15.12
-8.31
-2.09
2.97
6.60
8.90
10.18
10.84
11.23
11.58
11.93
12.23
12.36
12.26
11.90
11.34
10.65
9.92
9.25
8.72
8.39
8.29
8.34
8.38
8.15
7.45
6.18
4.39
2.25
-0.04
-2.27
-4.31
-6.13
-7.73
-9.21
-10.67
-12.23
-14.03
-16.13
-18.57
-21.33
-24.35
-27.49
-30.56
-33.25
-35.07
-35.47
-33.95
-30.28
-24.73
-18.03
-11.34
-5.88
-2.58
-1.75
-2.90
-4.90
-6.30
-5.97
-3.49
0.54
4.85
7.94
8.82
7.37
4.42
1.25
-0.97
-1.75
-1.36
-0.64
-0.68
-2.45
-6.70
-13.61
-22.24
-29.94
-32.29
-24.14
-1.53
36.11
84.78
136.60
182.25
214.03
228.11
225.03
208.37
182.72
151.98
118.88
85.40
53.38
24.79
1.24
-16.56
-29.20
-38.23
-45.43
-51.98
-58.01
-62.63
-64.57
-62.88
-57.46
-49.18
-39.57
-30.30
-22.64
-17.18
-13.84
-12.14
-11.47
-11.43
-11.89
-12.93
-14.72
-17.33
-20.62
-24.26
-27.84
-31.05
-33.79
-36.24
-38.79
-41.85
-45.62
-49.92
-54.12
-57.28
-58.42
-56.90
-52.65
-46.25
-38.68
-31.04
-24.21
-18.69
-14.50
-11.46
-9.26
-7.65
-6.46
-5.60
-4.93
-4.30
-3.54
-2.58
-1.39
-0.12
1.04
1.95
2.51
2.75
2.77
2.66
2.50
2.31
2.05
1.66
1.06
0.18
-1.04
-2.57
-4.27
-5.95
-7.42
-8.67
-9.89
-11.49
-13.88
-17.31
-21.66
-26.36
-30.56
-33.32
-33.94
-32.13
-28.08
-22.39
-15.83
-9.19
-3.06
2.15
6.30
9.39
11.61
13.17
14.25
15.02
15.54
15.86
16.07
16.31
16.73
17.42
18.36
19.37
20.23
20.79
21.09
21.28
21.56
21.99
22.41
22.48
21.86
20.36
18.06
15.32
12.57
10.20
8.33
6.89
5.63
4.26
2.57
0.36
-2.45
-5.87
-9.72
-13.55
-16.67
-18.27
-17.69
-14.69
-9.56
-3.11
3.61
9.61
14.25
17.32
18.99
19.60
19.52
19.05
18.35
17.56
16.78
16.13
15.71
15.60
15.80
16.20
16.65
17.00
17.15
17.08
16.79
16.31
15.58
14.47
12.87
10.72
8.16
5.44
2.84
0.51
-1.58
-3.63
-5.90
-8.55
-11.60
-14.90
-18.12
-20.77
-22.33
-22.25
-20.24
-16.35
-11.09
-5.30
0.07
4.24
6.88
8.06
8.16
7.60
6.68
5.49
4.04
2.38
0.71
-0.64
-1.32
-1.15
-0.28
0.89
1.82
2.12
1.70
0.78
-0.26
-1.16
-1.87
-2.60
-3.65
-5.17
-7.04
-8.96
-10.58
-11.70
-12.39
-12.87
-13.38
-14.09
-15.07
-16.32
-17.85
-19.68
-21.66
-23.42
-24.34
-23.78
-21.30
-16.91
-11.09
-4.70
1.35
6.35
9.96
12.17
13.27
13.60
13.51
13.23
12.85
12.41
11.86
11.25
10.66
10.23
10.08
10.27
10.75
11.41
12.10
12.66
12.94
12.85
12.30
11.30
9.94
8.35
6.63
4.85
3.02
1.11
-0.88
-2.84
-4.65
-6.17
-7.32
-8.15
-8.81
-9.54
-10.58
-12.15
-14.35
-17.13
-20.22
-23.12
-25.15
-25.63
-24.13
-20.61
-15.52
-9.65
-3.88
1.07
4.77
7.16
8.41
8.77
8.48
7.74
6.74
5.71
4.93
4.68
5.23
6.74
9.26
12.65
16.65
20.97
25.43
29.97
34.64
39.45
44.18
48.38
51.42
52.76
52.16
49.77
46.06
41.61
36.90
32.23
27.68
23.19
18.61
13.73
8.38
2.50
-3.66
-9.59
-14.53
-17.70
-18.64
-17.35
-14.32
-10.33
-6.20
-2.53
0.40
2.48
3.72
4.11
3.53
1.94
-0.59
-3.72
-6.92
-9.61
-11.33
-11.94
-11.60
-10.70
-9.67
-8.83
-8.33
-8.16
-8.22
-8.41
-8.72
-9.19
-9.92
-11.01
-12.49
-14.25
-16.07
-17.67
-18.81
-19.45
-19.72
-19.94
-20.46
-21.54
-23.28
-25.50
-27.82
-29.66
-30.41
-29.60
-27.01
-22.80
-17.45
-11.63
-6.06
-1.29
2.37
4.85
6.26
6.87
6.96
6.78
6.51
6.25
6.01
5.78
5.56
5.39
5.29
5.28
5.35
5.49
5.67
5.84
5.97
6.01
5.91
5.63
5.09
4.19
2.83
0.99
-1.26
-3.67
-5.88
-7.58
-8.59
-8.98
-9.04
-9.15
-9.74
-11.12
-13.39
-16.43
-19.85
-23.06
-25.34
-26.07
-24.88
-21.77
-17.14
-11.70
-6.22
-1.37
2.42
5.01
6.50
7.10
7.07
6.66
6.14
5.77
5.81
6.44
7.64
9.23
10.87
12.26
13.22
13.77
14.09
14.37
14.72
15.14
15.49
15.60
15.33
14.58
13.36
11.77
9.96
8.10
6.35
4.82
3.52
2.35
1.20
-0.07
-1.52
-3.09
-4.58
-5.67
-5.94
-5.05
-2.82
0.66
4.99
9.55
13.65
16.72
18.43
18.77
17.96
16.34
14.27
12.04
9.88
7.99
6.57
5.75
5.61
6.06
6.84
7.58
7.94
7.75
7.07
6.17
5.36
4.82
4.53
4.26
3.71
2.64
1.03
-1.00
-3.22
-5.46
-7.70
-10.07
-12.68
-15.51
-18.32
-20.70
-22.24
-22.65
-21.88
-20.08
-17.54
-14.57
-11.46
-8.39
-5.57
-3.17
-1.39
-0.35
-0.05
-0.41
-1.22
-2.25
-3.24
-3.98
-4.36
-4.37
-4.10
-3.69
-3.31
-3.04
-2.92
-2.96
-3.18
-3.63
-4.39
-5.52
-6.99
-8.68
-10.39
-11.94
-13.22
-14.24
-15.14
-16.16
-17.64
-19.89
-23.06
-26.94
-30.96
-34.23
-35.77
-34.89
-31.47
-26.03
-19.55
-13.07
-7.42
-2.93
0.47
3.12
5.45
7.71
10.00
12.26
14.33
16.06
17.33
18.10
18.36
18.12
17.38
16.15
14.52
12.64
10.69
8.87
7.30
5.96
4.74
3.44
1.94
0.17
-1.80
-3.82
-5.76
-7.44
-8.80
-9.84
-10.65
-11.40
-12.36
-13.77
-15.81
-18.47
-21.51
-24.40
-26.46
-26.98
-25.46
-21.82
-16.40
-9.92
-3.24
2.86
7.85
11.50
13.85
15.10
15.52
15.46
15.21
15.03
15.09
15.48
16.14
17.01
17.97
18.97
19.94
20.85
21.65
22.31
22.85
23.32
23.69
23.92
23.83
23.26
22.06
20.25
17.97
15.51
13.13
11.04
9.24
7.51
5.53
2.95
-0.41
-4.39
-8.52
-12.02
-14.12
-14.24
-12.25
-8.52
-3.71
1.37
6.00
9.70
12.19
13.43
13.50
12.57
10.91
8.83
6.69
4.84
3.58
3.04
3.20
3.85
4.68
5.33
5.59
5.39
4.84
4.08
3.25
2.35
1.30
-0.01
-1.63
-3.51
-5.51
-7.46
-9.29
-10.98
-12.67
-14.52
-16.75
-19.47
-22.62
-25.93
-28.87
-30.76
-30.97
-29.13
-25.36
-20.24
-14.61
-9.37
-5.08
-1.96
0.18
1.67
2.82
3.85
4.79
5.63
6.31
6.83
7.21
7.54
7.93
8.47
9.19
10.03
10.82
11.34
11.44
11.08
10.37
9.50
8.64
7.84
7.01
6.00
4.68
3.03
1.15
-0.80
-2.64
-4.28
-5.68
-6.90
-8.02
-9.17
-10.52
-12.24
-14.41
-16.92
-19.41
-21.29
-21.91
-20.73
-17.64
-12.96
-7.45
-2.00
2.57
5.81
7.71
8.54
8.70
8.53
8.22
7.85
7.51
7.34
7.46
7.97
8.86
10.03
11.31
12.61
13.83
14.98
16.06
17.04
17.88
18.55
19.02
19.33
19.46
19.43
19.24
18.89
18.38
17.75
17.03
16.22
15.32
14.33
13.26
12.13
10.96
9.71
8.30
6.52
4.23
1.37
-1.84
-4.90
-7.17
-8.02
-7.14
-4.61
-0.94
3.16
6.94
9.86
11.60
12.11
11.48
9.91
7.64
4.93
2.07
-0.60
-2.75
-4.11
-4.59
-4.24
-3.38
-2.41
-1.69
-1.43
-1.59
-1.99
-2.39
-2.68
-2.89
-3.18
-3.66
-4.45
-5.50
-6.71
-7.98
-9.19
-10.28
-11.22
-12.02
-12.70
-13.33
-13.98
-14.76
-15.74
-16.97
-18.38
-19.82
-20.95
-21.39
-20.77
-18.90
-15.84
-11.92
-7.57
-3.27
0.62
3.82
6.22
7.76
8.46
8.41
7.81
6.89
5.89
4.99
4.27
3.75
3.42
3.22
3.13
3.15
3.26
3.44
3.64
3.77
3.77
3.54
3.03
2.22
1.17
-0.08
-1.47
-2.93
-4.48
-6.05
-7.58
-9.00
-10.18
-11.04
-11.52
-11.65
-11.51
-11.31
-11.26
-11.66
-12.65
-14.29
-16.34
-18.30
-19.57
-19.53
-17.78
-14.32
-9.55
-4.14
1.10
5.48
8.56
10.22
10.62
10.08
9.05
7.96
7.14
6.78
6.92
7.49
8.32
9.25
10.21
11.16
12.13
13.15
14.22
15.38
16.64
18.06
19.62
21.22
22.70
23.78
24.26
23.98
22.95
21.26
19.08
16.53
13.76
10.87
7.94
5.00
2.00
-1.19
-4.69
-8.54
-12.62
-16.58
-19.95
-22.22
-22.98
-22.04
-19.56
-15.96
-11.90
-8.12
-5.23
-3.58
-3.19
-3.76
-4.88
-6.17
-7.39
-8.45
-9.32
-9.95
-10.18
-9.82
-8.70
-6.83
-4.41
-1.78
0.71
2.82
4.52
5.89
7.07
8.07
8.77
8.94
8.34
6.87
4.54
1.56
-1.84
-5.43
-9.07
-12.77
-16.62
-20.73
-25.14
-29.71
-34.13
-37.87
-40.37
-41.09
-39.69
-36.09
-30.52
-23.49
-15.72
-8.03
-1.20
4.20
7.91
10.01
10.85
10.82
10.30
9.48
8.47
7.31
6.13
5.11
4.43
4.25
4.48
4.94
5.32
5.44
5.19
4.66
4.02
3.40
2.81
2.08
0.95
-0.77
-3.11
-5.84
-8.54
-10.77
-12.19
-12.72
-12.52
-11.94
-11.45
-11.46
-12.23
-13.78
-15.84
-17.88
-19.27
-19.41
-17.92
-14.75
-10.20
-4.79
0.86
6.17
10.68
14.10
16.31
17.39
17.56
17.14
16.46
15.80
15.30
14.96
14.72
14.47
14.17
13.80
13.41
13.05
12.75
12.51
12.29
12.04
11.71
11.28
10.76
10.16
9.52
8.85
8.15
7.42
6.59
5.61
4.38
2.77
0.66
-1.98
-4.99
-7.98
-10.35
-11.47
-10.85
-8.39
-4.45
0.29
4.96
8.84
11.49
12.84
13.02
12.29
10.93
9.21
7.41
5.78
4.54
3.79
3.49
3.50
3.66
3.86
4.09
4.39
4.82
5.42
6.10
6.74
7.14
7.09
6.41
5.05
3.12
0.86
-1.41
-3.48
-5.32
-7.12
-9.23
-12.00
-15.64
-20.05
-24.74
-28.96
-31.84
-32.66
-31.07
-27.24
-21.78
-15.58
-9.54
-4.32
-0.28
2.49
4.10
4.71
4.52
3.75
2.69
1.64
0.90
0.66
0.97
1.72
2.74
3.80
4.76
5.52
6.09
6.49
6.78
6.98
7.07
6.92
6.33
5.08
3.01
0.20
-3.09
-6.41
-9.31
-11.55
-13.21
-14.65
-16.39
-18.91
-22.43
-26.81
-31.57
-35.94
-39.06
-40.14
-38.66
-34.55
-28.25
-20.59
-12.64
-5.35
0.54
4.76
7.36
8.66
9.09
9.07
8.96
9.01
9.28
9.76
10.33
10.87
11.33
11.74
12.20
12.80
13.58
14.51
15.48
16.39
17.12
17.57
17.62
17.17
16.10
14.36
12.03
9.31
6.56
4.16
2.43
1.46
1.11
0.99
0.61
-0.47
-2.49
-5.30
-8.50
-11.43
-13.36
-13.69
-12.03
-8.36
-3.02
3.32
9.83
15.70
20.40
23.73
25.77
26.75
26.89
26.32
25.11
23.45
21.62
19.98
18.88
18.42
18.47
18.70
18.79
18.56
18.00
17.22
16.33
15.36
14.24
12.85
11.09
8.93
6.42
3.76
1.18
-1.07
-2.82
-4.12
-5.24
-6.58
-8.64
-11.70
-15.78
-20.54
-25.30
-29.22
-31.49
-31.51
-29.07
-24.41
-18.19
-11.34
-4.85
0.56
4.54
7.13
8.66
9.57
10.16
10.57
10.85
10.91
10.71
10.29
9.74
9.19
8.82
8.71
8.90
9.25
9.58
9.64
9.26
8.37
7.07
5.55
3.98
2.39
0.65
-1.47
-4.11
-7.24
-10.58
-13.77
-16.47
-18.59
-20.30
-21.98
-24.03
-26.72
-30.05
-33.71
-37.15
-39.65
-40.51
-39.17
-35.40
-29.35
-21.62
-13.14
-4.95
2.03
7.25
10.60
12.36
13.02
13.04
12.72
12.17
11.41
10.50
9.60
8.96
8.79
9.18
10.05
11.19
12.31
13.21
13.76
13.96
13.86
13.50
12.89
11.96
10.59
8.71
6.36
3.67
0.88
-1.74
-3.98
-5.77
-7.13
-8.20
-9.15
-10.19
-11.53
-13.32
-15.63
-18.26
-20.78
-22.54
-22.84
-21.14
-17.24
-11.38
-4.18
3.53
10.92
17.33
22.39
26.04
28.48
30.00
30.94
31.54
31.94
32.26
32.64
33.19
33.96
34.85
35.65
36.04
35.81
34.91
33.49
31.80
30.03
28.27
26.40
24.23
21.59
18.44
14.92
11.26
7.74
4.50
1.49
-1.48
-4.73
-8.52
-12.98
-17.94
-22.97
-27.38
-30.37
-31.21
-29.47
-25.24
-19.07
-11.86
-4.59
1.94
7.26
11.19
13.77
15.11
15.37
14.73
13.44
11.79
10.11
8.68
7.73
7.37
7.56
8.14
8.85
9.34
9.32
8.65
7.33
5.50
3.31
0.85
-1.85
-4.86
-8.26
-12.09
-16.32
-20.83
-25.35
-29.59
-33.25
-36.18
-38.50
-40.52
-42.68
-45.28
-48.35
-51.58
-54.35
-55.92
-55.59
-52.92
-47.77
-40.46
-31.65
-22.29
-13.41
-5.85
-0.11
3.78
6.13
7.46
8.25
8.79
9.21
9.49
9.58
9.57
9.62
9.96
10.74
11.95
13.40
14.83
15.95
16.60
16.79
16.63
16.23
15.63
14.76
13.47
11.66
9.32
6.56
3.63
0.80
-1.69
-3.72
-5.34
-6.68
-7.95
-9.40
-11.24
-13.58
-16.42
-19.58
-22.64
-25.01
-25.94
-24.80
-21.22
-15.30
-7.59
1.00
9.52
17.13
23.31
27.79
30.54
31.67
31.41
30.08
28.09
25.91
23.98
22.64
22.06
22.20
22.86
23.74
24.51
24.92
24.85
24.29
23.33
22.08
20.63
18.94
16.92
14.43
11.41
7.88
3.98
-0.11
-4.17
-8.07
-11.76
-15.26
-18.68
-22.06
-25.33
-28.24
-30.43
-31.41
-30.75
-28.16
-23.65
-17.56
-10.55
-3.49
2.78
7.60
10.59
11.77
11.41
9.94
7.82
5.45
3.13
1.10
-0.50
-1.63
-2.32
-2.71
-2.94
-3.19
-3.57
-4.08
-4.63
-5.04
-5.06
-4.55
-3.46
-2.00
-0.54
0.51
0.84
0.37
-0.76
-2.21
-3.69
-4.99
-6.09
-7.12
-8.34
-10.05
-12.57
-16.05
-20.41
-25.17
-29.45
-32.20
-32.49
-29.85
-24.43
-17.02
-8.77
-0.86
5.81
10.72
13.79
15.22
15.41
14.79
13.76
12.61
11.53
10.58
9.76
9.09
8.60
8.35
8.39
8.68
9.18
9.79
10.41
11.03
11.66
12.36
13.13
13.91
14.53
14.76
14.35
13.12
11.11
8.56
5.89
3.56
1.88
0.87
0.30
-0.25
-1.25
-3.04
-5.75
-9.17
-12.82
-15.89
-17.50
-16.88
-13.64
-7.98
-0.62
7.41
15.04
21.44
26.15
28.99
30.06
29.60
27.94
25.51
22.75
20.09
17.82
16.12
14.99
14.38
14.14
14.20
14.46
14.90
15.48
16.17
16.89
17.49
17.82
17.67
16.91
15.43
13.21
10.30
6.88
3.17
-0.59
-4.25
-7.88
-11.76
-16.19
-21.29
-26.81
-32.00
-35.87
-37.47
-36.22
-32.18
-25.92
-18.44
-10.81
-3.96
1.54
5.45
7.86
9.07
9.38
9.13
8.56
7.87
7.20
6.69
6.38
6.29
6.38
6.50
6.58
6.53
6.31
5.95
5.48
5.00
4.58
4.24
3.86
3.24
2.11
0.32
-2.08
-4.82
-7.54
-9.95
-11.96
-13.74
-15.57
-17.71
-20.29
-23.23
-26.35
-29.33
-31.79
-33.27
-33.26
-31.34
-27.30
-21.32
-13.93
-5.99
1.55
7.82
12.23
14.50
14.69
13.11
10.22
6.54
2.59
-1.20
-4.47
-6.96
-8.54
-9.31
-9.51
-9.49
-9.60
-10.06
-10.89
-11.89
-12.83
-13.50
-13.84
-13.99
-14.15
-14.56
-15.33
-16.41
-17.56
-18.43
-18.74
-18.34
-17.31
-15.88
-14.38
-13.10
-12.19
-11.66
-11.35
-10.96
-10.11
-8.35
-5.31
-0.77
5.17
12.07
19.20
25.69
30.76
33.91
35.01
34.27
32.09
28.93
25.12
20.86
16.32
11.71
7.35
3.58
0.68
-1.28
-2.44
-3.02
-3.22
-3.14
-2.80
-2.25
-1.63
-1.17
-1.06
-1.39
-2.07
-2.88
-3.59
-4.08
-4.42
-4.84
-5.65
-7.12
-9.25
-11.73
-13.88
-14.89
-14.12
-11.35
-6.91
-1.58
3.75
8.32
11.71
13.81
14.70
14.51
13.38
11.53
9.27
7.03
5.23
4.14
3.83
4.11
4.67
5.19
5.46
5.37
4.97
4.35
3.66
2.99
2.39
1.81
1.12
0.14
-1.29
-3.21
-5.51
-7.95
-10.28
-12.36
-14.22
-16.11
-18.30
-21.02
-24.38
-28.24
-32.28
-35.96
-38.67
-39.76
-38.80
-35.63
-30.55
-24.17
-17.32
-10.78
-5.14
-0.64
2.69
5.01
6.56
7.51
8.02
8.20
8.13
7.94
7.78
7.78
8.06
8.63
9.41
10.23
10.96
11.53
12.01
12.49
13.05
13.61
14.02
14.02
13.45
12.29
10.68
8.89
7.20
5.87
4.98
4.46
4.05
3.37
2.02
-0.28
-3.59
-7.64
-11.89
-15.68
-18.29
-19.17
-18.03
-14.92
-10.25
-4.78
0.59
5.00
7.84
8.91
8.40
6.79
4.66
2.55
0.83
-0.25
-0.57
-0.14
1.00
2.75
5.00
7.62
10.48
13.40
16.20
18.71
20.80
22.45
23.68
24.52
24.92
24.69
23.64
21.56
18.38
14.18
9.16
3.68
-1.83
-6.74
-10.37
-12.03
-11.24
-7.93
-2.48
4.26
11.22
17.37
21.96
24.63
25.37
24.43
22.14
18.83
14.86
10.63
6.57
3.12
0.55
-1.08
-1.95
-2.41
-2.82
-3.43
-4.32
-5.43
-6.64
-7.84
-9.02
-10.23
-11.59
-13.21
-15.10
-17.13
-19.05
-20.53
-21.29
-21.23
-20.53
-19.62
-19.01
-19.11
-20.01
-21.37
-22.44
-22.29
-20.11
-15.51
-8.73
-0.53
8.02
15.88
22.31
27.01
29.95
31.31
31.30
30.13
28.02
25.24
22.06
18.70
15.29
11.88
8.53
5.36
2.52
0.13
-1.75
-3.16
-4.17
-4.84
-5.20
-5.32
-5.31
-5.42
-5.91
-6.97
-8.62
-10.71
-12.97
-15.12
-17.03
-18.78
-20.62
-22.89
-25.92
-29.89
-34.72
-40.03
-45.19
-49.34
-51.60
-51.17
-47.63
-41.02
-31.91
-21.21
-9.99
0.78
10.44
18.61
25.23
30.41
34.35
37.33
39.66
41.67
43.60
45.61
47.67
49.59
51.10
51.89
51.77
50.66
48.67
46.02
42.94
39.57
35.85
31.59
26.60
20.82
14.42
7.81
1.48
-4.17
-8.95
-12.93
-16.33
-19.41
-22.40
-25.45
-28.55
-31.56
-34.09
-35.59
-35.44
-33.18
-28.66
-22.22
-14.60
-6.75
0.47
6.47
11.00
14.16
16.19
17.37
17.91
17.97
17.69
17.23
16.82
16.68
16.90
17.43
18.00
18.28
18.00
17.11
15.80
14.35
13.00
11.75
10.37
8.57
6.13
3.10
-0.23
-3.47
-6.27
-8.55
-10.43
-12.22
-14.25
-16.85
-20.18
-24.24
-28.84
-33.53
-37.63
-40.39
-41.10
-39.37
-35.27
-29.36
-22.58
-15.95
-10.33
-6.17
-3.54
-2.17
-1.67
-1.67
-1.91
-2.24
-2.61
-2.97
-3.29
-3.54
-3.70
-3.79
-3.87
-3.99
-4.15
-4.26
-4.14
-3.59
-2.49
-0.84
1.14
3.11
4.70
5.62
5.76
5.22
4.26
3.21
2.38
1.96
1.96
2.31
2.79
3.14
3.07
2.35
0.88
-1.18
-3.38
-5.02
-5.34
-3.82
-0.40
4.50
10.08
15.48
20.03
23.41
25.64
26.91
27.47
27.55
27.34
26.98
26.65
26.41
26.29
26.16
25.83
25.12
23.95
22.36
20.50
18.53
16.54
14.46
12.10
9.22
5.68
1.52
-2.99
-7.44
-11.36
-14.38
-16.31
-17.18
-17.24
-16.89
-16.57
-16.65
-17.25
-18.24
-19.19
-19.51
-18.68
-16.42
-12.81
-8.28
-3.45
1.00
4.54
6.86
7.88
7.72
6.68
5.18
3.67
2.58
2.21
2.66
3.88
5.61
7.53
9.32
10.73
11.59
11.87
11.64
10.99
9.98
8.57
6.64
4.05
0.73
-3.21
-7.50
-11.76
-15.66
-18.96
-21.62
-23.72
-25.42
-26.91
-28.40
-30.09
-32.09
-34.35
-36.55
-38.18
-38.60
-37.30
-34.13
-29.31
-23.47
-17.42
-11.92
-7.54
-4.53
-2.79
-1.96
-1.58
-1.22
-0.58
0.40
1.59
2.81
3.86
4.66
5.18
5.45
5.48
5.28
4.90
4.40
3.92
3.55
3.28
2.95
2.34
1.26
-0.32
-2.23
-4.20
-5.94
-7.28
-8.23
-8.93
-9.58
-10.40
-11.54
-13.10
-15.11
-17.40
-19.61
-21.14
-21.24
-19.30
-15.05
-8.73
-1.08
6.85
14.00
19.66
23.56
25.87
26.99
27.38
27.39
27.24
27.04
26.79
26.47
26.02
25.40
24.66
23.86
23.14
22.57
22.10
21.58
20.77
19.49
17.71
15.52
13.05
10.40
7.65
4.89
2.18
-0.39
-2.81
-5.20
-7.74
-10.58
-13.65
-16.56
-18.71
-19.46
-18.39
-15.48
-11.10
-5.85
-0.39
4.74
9.15
12.60
14.93
16.09
16.15
15.34
14.04
12.69
11.65
11.10
11.04
11.25
11.48
11.49
11.12
10.34
9.17
7.70
5.95
3.96
1.72
-0.76
-3.51
-6.49
-9.69
-13.01
-16.31
-19.39
-22.08
-24.31
-26.14
-27.78
-29.50
-31.61
-34.24
-37.35
-40.67
-43.67
-45.75
-46.33
-45.01
-41.75
-36.86
-30.96
-24.82
-19.15
-14.46
-10.94
-8.53
-6.94
-5.79
-4.77
-3.67
-2.46
-1.20
-0.02
1.05
2.03
2.98
3.98
5.03
6.14
7.24
8.32
9.32
10.25
11.06
11.74
12.22
12.42
12.23
11.54
10.31
8.57
6.52
4.40
2.47
0.86
-0.44
-1.59
-2.79
-4.24
-6.08
-8.37
-11.09
-14.07
-16.91
-19.07
-19.91
-18.98
-16.15
-11.72
-6.34
-0.79
4.23
8.30
11.29
13.32
14.62
15.46
16.01
16.43
16.78
17.13
17.51
17.95
18.45
18.96
19.44
19.81
20.00
19.98
19.75
19.36
18.88
18.40
17.93
17.42
16.74
15.74
14.35
12.60
10.68
8.78
7.06
5.50
3.95
2.20
0.05
-2.58
-5.62
-8.82
-11.85
-14.19
-15.37
-14.94
-12.70
-8.79
-3.70
1.84
7.00
11.14
13.90
15.24
15.31
14.41
12.83
10.86
8.78
6.77
5.00
3.54
2.42
1.63
1.15
0.93
0.92
1.03
1.16
1.20
1.07
0.70
0.05
-0.86
-1.98
-3.25
-4.59
-5.98
-7.47
-9.11
-10.90
-12.73
-14.40
-15.75
-16.71
-17.39
-18.07
-19.04
-20.54
-22.62
-25.18
-27.98
-30.65
-32.74
-33.75
-33.25
-31.04
-27.21
-22.21
-16.71
-11.43
-6.98
-3.72
-1.70
-0.75
-0.55
-0.74
-1.09
-1.50
-2.01
-2.75
-3.77
-5.05
-6.44
-7.73
-8.66
-9.03
-8.70
-7.58
-5.65
-2.95
0.40
4.18
8.14
11.97
15.43
18.28
20.40
21.75
22.41
22.52
22.19
21.57
20.70
19.68
18.59
17.52
16.52
15.55
14.44
12.89
10.62
7.45
3.45
-1.01
-5.32
-8.70
-10.49
-10.32
-8.22
-4.70
-0.54
3.39
6.43
8.28
9.05
9.11
8.91
8.78
8.81
8.93
9.01
8.98
8.90
8.94
9.25
9.86
10.66
11.47
12.12
12.56
12.88
13.19
13.55
13.87
13.89
13.33
11.95
9.74
6.95
3.98
1.25
-0.91
-2.44
-3.43
-4.17
-4.92
-5.93
-7.32
-9.15
-11.31
-13.61
-15.69
-17.11
-17.41
-16.30
-13.71
-9.90
-5.35
-0.68
3.59
7.08
9.65
11.31
12.17
12.31
11.79
10.69
9.14
7.35
5.56
4.04
2.91
2.18
1.75
1.45
1.17
0.87
0.59
0.39
0.32
0.37
0.47
0.50
0.30
-0.23
-1.15
-2.43
-3.97
-5.61
-7.22
-8.72
-10.16
-11.66
-13.33
-15.32
-17.70
-20.47
-23.54
-26.72
-29.67
-31.95
-33.09
-32.75
-30.81
-27.51
-23.31
-18.80
-14.53
-10.88
-8.12
-6.36
-5.59
-5.67
-6.29
-7.05
-7.57
-7.59
-7.06
-6.12
-4.94
-3.61
-2.08
-0.16
2.34
5.62
9.92
15.44
22.36
30.56
39.46
47.98
54.79
58.67
59.02
55.98
50.30
43.00
34.95
26.61
18.15
9.63
1.22
-6.76
-13.96
-20.23
-25.69
-30.57
-35.06
-39.00
-41.75
-42.37
-39.97
-34.09
-25.02
-13.81
-2.04
8.69
17.13
22.70
25.50
26.09
25.20
23.49
21.38
19.09
16.74
14.45
12.39
10.73
9.58
8.92
8.63
8.57
8.69
8.96
9.42
9.98
10.44
10.49
9.83
8.30
5.93
2.94
-0.39
-3.73
-6.87
-9.68
-12.10
-14.20
-16.07
-17.85
-19.65
-21.41
-22.92
-23.79
-23.61
-22.04
-19.01
-14.78
-9.90
-5.09
-1.00
1.92
3.57
4.16
4.05
3.59
2.99
2.35
1.65
0.93
0.28
-0.13
-0.20
0.03
0.40
0.74
0.94
1.01
1.07
1.24
1.49
1.68
1.60
1.06
-0.04
-1.63
-3.53
-5.51
-7.37
-9.03
-10.58
-12.25
-14.37
-17.18
-20.76
-24.89
-29.05
-32.55
-34.67
-34.91
-33.04
-29.27
-24.10
-18.20
-12.28
-6.89
-2.39
1.10
3.62
5.31
6.37
6.98
7.25
7.27
7.08
6.72
6.26
5.76
5.27
4.82
4.40
4.00
3.67
3.49
3.49
3.65
3.85
3.89
3.56
2.78
1.62
0.26
-1.04
-2.09
-2.81
-3.29
-3.71
-4.29
-5.27
-6.77
-8.82
-11.23
-13.61
-15.32
-15.68
-14.14
-10.50
-5.08
1.38
7.94
13.72
18.18
21.19
22.91
23.63
23.65
23.13
22.20
20.99
19.73
18.67
18.07
18.12
18.83
20.05
21.51
22.91
24.00
24.66
24.84
24.59
23.98
23.03
21.75
20.08
18.00
15.54
12.78
9.85
6.78
3.56
0.13
-3.48
-7.03
-10.07
-12.01
-12.36
-10.93
-7.94
-3.97
0.22
3.92
6.65
8.18
8.53
7.89
6.53
4.81
3.04
1.51
0.38
-0.30
-0.60
-0.65
-0.53
-0.29
0.09
0.68
1.48
2.44
3.40
4.11
4.33
3.89
2.72
0.92
-1.27
-3.56
-5.68
-7.44
-8.89
-10.25
-11.97
-14.49
-18.09
-22.61
-27.44
-31.60
-34.01
-33.90
-31.06
-25.95
-19.54
-13.02
-7.43
-3.44
-1.26
-0.65
-1.16
-2.25
-3.49
-4.62
-5.54
-6.28
-6.94
-7.59
-8.30
-9.07
-9.90
-10.80
-11.77
-12.82
-13.95
-15.14
-16.38
-17.71
-19.15
-20.83
-22.82
-25.18
-27.76
-30.22
-32.06
-32.73
-31.89
-29.51
-25.92
-21.76
-17.67
-14.15
-11.35
-9.10
-6.95
-4.34
-0.78
4.03
10.06
16.96
24.18
30.99
36.75
41.01
43.61
44.65
44.45
43.42
41.94
40.36
38.95
37.92
37.38
37.33
37.71
38.29
38.83
39.09
38.94
38.38
37.48
36.31
34.82
32.86
30.18
26.56
21.94
16.41
10.28
3.98
-1.99
-7.20
-11.36
-14.44
-16.60
-18.22
-19.66
-21.15
-22.68
-23.99
-24.62
-24.04
-21.82
-17.73
-11.89
-4.72
3.10
10.78
17.64
23.22
27.40
30.21
31.73
31.97
30.87
28.41
24.68
20.01
14.82
9.56
4.51
-0.24
-4.74
-9.06
-13.19
-17.00
-20.20
-22.51
-23.69
-23.70
-22.68
-20.90
-18.66
-16.14
-13.37
-10.22
-6.57
-2.41
2.06
6.43
10.22
12.96
14.30
14.07
12.22
8.85
4.22
-1.22
-6.81
-11.85
-15.68
-17.97
-18.73
-18.37
-17.44
-16.45
-15.66
-15.03
-14.29
-13.09
-11.22
-8.70
-5.74
-2.69
0.12
2.46
4.27
5.65
6.75
7.75
8.79
9.92
11.17
12.50
13.86
15.13
16.14
16.66
16.48
15.45
13.55
10.84
7.44
3.41
-1.16
-6.16
-11.33
-16.26
-20.52
-23.78
-25.97
-27.30
-28.09
-28.63
-29.00
-29.05
-28.44
-26.78
-23.77
-19.28
-13.36
-6.26
1.59
9.65
17.40
24.36
30.17
34.66
37.78
39.61
40.35
40.19
39.36
38.00
36.13
33.70
30.64
26.95
22.78
18.41
14.23
10.69
8.28
7.35
8.09
10.30
13.45
16.62
18.83
19.24
17.43
13.43
7.66
0.78
-6.48
-13.40
-19.36
-23.95
-26.96
-28.57
-29.22
-29.39
-29.37
-29.01
-27.81
-25.15
-20.70
-14.67
-7.89
-1.57
3.13
5.45
5.34
3.45
0.89
-1.13
-1.66
-0.34
2.62
6.52
10.47
13.64
15.49
15.83
14.79
12.71
10.07
7.36
5.04
3.40
2.49
2.14
1.99
1.67
0.94
-0.19
-1.59
-3.01
-4.29
-5.37
-6.31
-7.18
-8.07
-8.99
-9.96
-11.06
-12.41
-14.21
-16.57
-19.46
-22.67
-25.84
-28.52
-30.25
-30.63
-29.45
-26.73
-22.80
-18.24
-13.73
-9.88
-7.04
-5.20
-4.08
-3.28
-2.50
-1.63
-0.79
-0.16
0.14
0.11
-0.09
-0.24
-0.10
0.50
1.66
3.34
5.38
7.49
9.38
10.75
11.42
11.40
10.81
9.87
8.80
7.84
7.12
6.65
6.36
6.04
5.47
4.51
3.15
1.61
0.13
-1.07
-1.93
-2.60
-3.34
-4.42
-5.97
-7.92
-10.01
-11.80
-12.85
-12.79
-11.46
-8.87
-5.28
-1.10
3.22
7.23
10.59
13.06
14.59
15.25
15.22
14.75
14.08
13.40
12.89
12.65
12.76
13.20
13.92
14.85
15.94
17.18
18.55
19.97
21.33
22.39
23.01
23.13
22.82
22.23
21.47
20.56
19.42
17.99
16.24
14.24
12.05
9.68
7.13
4.44
1.74
-0.68
-2.42
-3.11
-2.59
-0.96
1.38
3.87
5.97
7.35
7.94
7.88
7.41
6.68
5.70
4.35
2.54
0.31
-2.12
-4.38
-6.14
-7.17
-7.47
-7.22
-6.68
-6.12
-5.74
-5.64
-5.79
-6.12
-6.59
-7.16
-7.86
-8.71
-9.68
-10.68
-11.54
-12.14
-12.48
-12.81
-13.51
-14.95
-17.33
-20.42
-23.63
-26.16
-27.32
-26.77
-24.66
-21.53
-18.04
-14.79
-12.14
-10.19
-8.91
-8.20
-7.98
-8.14
-8.55
-9.05
-9.47
-9.69
-9.68
-9.45
-9.09
-8.66
-8.20
-7.73
-7.26
-6.80
-6.39
-6.06
-5.87
-5.83
-6.02
-6.50
-7.30
-8.44
-9.84
-11.36
-12.85
-14.21
-15.41
-16.51
-17.59
-18.71
-19.93
-21.21
-22.41
-23.28
-23.49
-22.72
-20.76
-17.59
-13.41
-8.58
-3.58
1.13
5.22
8.43
10.70
12.08
12.71
12.79
12.48
11.91
11.14
10.20
9.11
7.94
6.72
5.51
4.38
3.38
2.59
2.05
1.78
1.73
1.81
1.94
2.00
1.98
1.89
1.79
1.81
2.06
2.60
3.37
4.16
4.70
4.82
4.57
4.27
4.42
5.48
7.71
11.05
15.14
19.44
23.43
26.72
29.09
30.53
31.10
30.90
30.01
28.54
26.61
24.42
22.19
20.17
18.53
17.30
16.40
15.67
14.96
14.16
13.25
12.24
11.20
10.17
9.20
8.26
7.27
6.09
4.59
2.69
0.37
-2.27
-5.07
-7.82
-10.28
-12.21
-13.41
-13.73
-13.15
-11.80
-9.93
-7.89
-6.08
-4.79
-4.23
-4.43
-5.24
-6.46
-7.83
-9.15
-10.27
-11.14
-11.74
-12.07
-12.11
-11.92
-11.55
-11.13
-10.77
-10.55
-10.47
-10.49
-10.55
-10.64
-10.75
-10.90
-11.12
-11.42
-11.80
-12.25
-12.78
-13.42
-14.24
-15.30
-16.64
-18.11
-19.45
-20.27
-20.17
-18.96
-16.71
-13.76
-10.62
-7.77
-5.51
-3.98
-3.09
-2.71
-2.69
-2.87
-3.12
-3.29
-3.30
-3.12
-2.84
-2.60
-2.57
-2.91
-3.61
-4.61
-5.67
-6.58
-7.16
-7.41
-7.53
-7.84
-8.65
-10.03
-11.74
-13.22
-13.67
-12.39
-9.07
-4.03
1.79
7.04
10.32
10.69
8.04
3.20
-2.09
-5.65
-5.47
-0.41
9.26
21.73
34.05
43.09
46.57
43.94
36.54
27.11
18.80
14.10
14.15
18.55
25.67
33.25
38.97
41.07
38.67
31.98
22.20
11.20
1.02
-6.74
-11.29
-12.83
-12.30
-11.00
-10.16
-10.51
-12.23
-14.96
-18.00
-20.70
-22.63
-23.75
-24.33
-24.83
-25.57
-26.61
-27.66
-28.22
-27.72
-25.80
-22.36
-17.62
-12.03
-6.11
-0.47
4.37
7.95
10.01
10.54
9.82
8.33
6.61
4.96
3.37
1.44
-1.38
-5.48
-10.95
-17.48
-24.58
-31.86
-39.31
-47.28
-56.35
-66.87
-78.59
-90.56
-101.31
-109.35
-113.79
-114.73
-113.35
-111.48
-110.91
-112.68
-116.66
-121.48
-124.79
-123.51
-114.42
-94.70
-62.91
-19.67
31.91
86.69
138.70
182.73
215.66
237.01
248.57
253.31
254.35
254.09
253.89
253.98
253.63
251.37
245.40
234.16
216.88
194.03
167.18
138.72
111.20
86.68
66.30
50.10
37.13
25.87
14.69
2.40
-11.46
-26.56
-42.00
-56.67
-69.67
-80.45
-88.88
-95.15
-99.56
-102.36
-103.67
-103.47
-101.66
-98.24
-93.40
-87.57
-81.33
-75.28
-69.81
-65.01
-60.77
-56.84
-53.04
-49.30
-45.64
-42.12
-38.78
-35.64
-32.70
-29.99
-27.55
-25.36
-23.30
-21.23
-19.02
-16.64
-14.22
-12.01
-10.28
-9.20
-8.80
-8.96
-9.44
-10.01
-10.49
-10.90
-11.37
-12.16
-13.47
-15.37
-17.69
-20.06
-21.93
-22.83
-22.47
-20.81
-18.12
-14.84
-11.44
-8.34
-5.84
-4.08
-3.06
-2.67
-2.70
-2.95
-3.24
-3.51
-3.76
-4.04
-4.38
-4.76
-5.14
-5.50
-5.79
-6.02
-6.15
-6.13
-5.93
-5.60
-5.29
-5.20
-5.59
-6.59
-8.16
-10.06
-11.93
-13.37
-14.11
-14.01
-13.07
-11.40
-9.13
-6.33
-3.09
0.51
4.31
8.02
11.29
13.77
15.20
15.46
14.57
12.62
9.78
6.21
2.14
-2.13
-6.18
-9.59
-11.95
-13.09
-13.12
-12.43
-11.55
-10.94
-10.80
-11.07
-11.49
-11.83
-12.00
-12.14
-12.47
-13.16
-14.27
-15.67
-17.19
-18.67
-19.97
-20.95
-21.37
-20.93
-19.29
-16.26
-11.88
-6.45
-0.55
5.15
10.00
13.55
15.67
16.62
16.89
17.08
17.72
19.10
21.21
23.74
26.27
28.32
29.53
29.74
29.04
27.78
26.40
25.36
24.90
24.97
25.29
25.48
25.22
24.37
22.99
21.19
19.12
16.86
14.47
11.99
9.44
6.90
4.44
2.10
-0.03
-1.93
-3.55
-4.89
-5.88
-6.46
-6.50
-5.88
-4.57
-2.61
-0.20
2.39
4.83
6.84
8.19
8.77
8.55
7.61
6.11
4.31
2.40
0.54
-1.15
-2.67
-4.06
-5.33
-6.48
-7.42
-8.03
-8.17
-7.76
-6.87
-5.71
-4.57
-3.74
-3.44
-3.66
-4.27
-4.97
-5.45
-5.36
-4.45
-2.54
0.37
4.13
8.45
12.93
17.14
20.69
23.28
24.75
25.10
24.47
23.18
21.62
20.13
18.92
18.09
17.59
17.35
17.31
17.42
17.57
17.66
17.51
16.98
16.00
14.62
12.96
11.19
9.44
7.74
6.09
4.39
2.52
0.33
-2.26
-5.24
-8.42
-11.41
-13.76
-15.06
-15.15
-14.15
-12.45
-10.55
-8.91
-7.82
-7.42
-7.65
-8.38
-9.42
-10.57
-11.61
-12.34
-12.59
-12.25
-11.27
-9.70
-7.70
-5.58
-3.69
-2.37
-1.78
-1.85
-2.28
-2.67
-2.69
-2.20
-1.34
-0.48
-0.06
-0.43
-1.73
-3.80
-6.17
-8.20
-9.22
-8.77
-6.74
-3.39
0.69
4.78
8.27
10.74
12.04
12.23
11.46
9.93
7.84
5.41
2.81
0.22
-2.22
-4.44
-6.39
-8.08
-9.50
-10.64
-11.47
-12.01
-12.31
-12.47
-12.56
-12.62
-12.66
-12.66
-12.65
-12.71
-13.00
-13.69
-14.91
-16.72
-19.06
-21.70
-24.26
-26.22
-27.04
-26.32
-23.95
-20.19
-15.65
-11.10
-7.22
-4.44
-2.83
-2.21
-2.25
-2.60
-3.00
-3.25
-3.26
-3.00
-2.52
-1.92
-1.27
-0.57
0.24
1.21
2.36
3.55
4.59
5.31
5.62
5.59
5.36
5.09
4.83
4.51
4.03
3.33
2.40
1.27
-0.05
-1.62
-3.49
-5.57
-7.55
-8.84
-8.80
-6.94
-3.24
1.82
7.36
12.37
16.10
18.21
18.81
18.31
17.19
15.81
14.43
13.17
12.14
11.45
11.17
11.27
11.68
12.31
13.08
13.98
15.01
16.14
17.24
18.16
18.75
18.98
18.91
18.67
18.36
17.99
17.49
16.71
15.49
13.67
11.20
8.09
4.53
0.86
-2.47
-5.01
-6.45
-6.67
-5.80
-4.15
-2.12
-0.09
1.62
2.82
3.40
3.35
2.74
1.70
0.38
-0.99
-2.18
-3.04
-3.46
-3.47
-3.20
-2.85
-2.58
-2.53
-2.74
-3.19
-3.82
-4.58
-5.40
-6.25
-7.08
-7.90
-8.79
-9.90
-11.40
-13.43
-15.94
-18.70
-21.24
-22.99
-23.44
-22.28
-19.54
-15.51
-10.74
-5.88
-1.55
1.81
3.98
4.99
5.10
4.67
3.98
3.21
2.38
1.45
0.43
-0.58
-1.39
-1.78
-1.65
-1.06
-0.25
0.51
0.98
1.09
0.89
0.48
-0.05
-0.70
-1.57
-2.74
-4.26
-6.08
-8.10
-10.22
-12.34
-14.34
-16.01
-17.05
-17.07
-15.82
-13.24
-9.62
-5.51
-1.56
1.69
3.92
5.10
5.41
5.10
4.44
3.66
2.95
2.48
2.36
2.63
3.21
3.95
4.69
5.39
6.09
6.88
7.79
8.74
9.46
9.70
9.28
8.20
6.66
4.95
3.34
1.93
0.75
-0.30
-1.34
-2.52
-4.01
-5.99
-8.55
-11.58
-14.69
-17.26
-18.63
-18.29
-16.12
-12.39
-7.69
-2.73
1.94
5.92
9.09
11.43
12.98
13.79
13.90
13.40
12.49
11.46
10.67
10.43
10.80
11.71
12.89
14.08
15.14
16.12
17.18
18.43
19.84
21.20
22.22
22.63
22.34
21.41
20.06
18.54
17.03
15.68
14.53
13.57
12.68
11.64
10.17
8.07
5.35
2.36
-0.26
-1.81
-1.75
0.00
3.08
6.76
10.24
12.87
14.30
14.54
13.86
12.60
11.10
9.57
8.05
6.49
4.83
3.12
1.52
0.26
-0.51
-0.81
-0.81
-0.79
-0.94
-1.34
-1.92
-2.55
-3.13
-3.66
-4.19
-4.74
-5.33
-5.96
-6.68
-7.60
-8.92
-10.85
-13.51
-16.80
-20.36
-23.57
-25.73
-26.26
-24.94
-21.97
-17.93
-13.52
-9.37
-5.89
-3.26
-1.49
-0.51
-0.19
-0.35
-0.81
-1.40
-1.98
-2.44
-2.70
-2.68
-2.25
-1.41
-0.27
0.91
1.82
2.18
1.97
1.35
0.55
-0.25
-1.01
-1.83
-2.86
-4.13
-5.56
-6.97
-8.23
-9.33
-10.41
-11.71
-13.45
-15.71
-18.32
-20.95
-23.12
-24.33
-24.17
-22.46
-19.28
-14.99
-10.16
-5.36
-1.09
2.38
4.98
6.83
8.11
8.93
9.40
9.52
9.34
8.90
8.32
7.79
7.48
7.50
7.87
8.49
9.17
9.74
10.05
10.11
10.02
9.93
9.87
9.77
9.47
8.77
7.61
6.07
4.37
2.74
1.36
0.22
-0.81
-1.94
-3.34
-5.15
-7.36
-9.85
-12.34
-14.43
-15.63
-15.48
-13.73
-10.37
-5.70
-0.21
5.57
11.16
16.31
20.94
25.10
28.85
32.17
34.90
36.81
37.69
37.44
36.11
33.92
31.21
28.29
25.41
22.72
20.24
17.94
15.78
13.68
11.55
9.32
6.89
4.21
1.31
-1.72
-4.72
-7.58
-10.25
-12.81
-15.41
-18.19
-21.14
-24.02
-26.38
-27.69
-27.51
-25.62
-22.19
-17.64
-12.60
-7.72
-3.51
-0.30
1.83
2.93
3.19
2.77
1.85
0.64
-0.61
-1.62
-2.11
-1.95
-1.23
-0.26
0.62
1.11
1.16
0.90
0.55
0.25
-0.01
-0.36
-0.98
-1.92
-3.18
-4.69
-6.38
-8.19
-10.01
-11.75
-13.33
-14.76
-16.15
-17.67
-19.49
-21.68
-24.11
-26.44
-28.18
-28.75
-27.73
-24.95
-20.63
-15.34
-9.86
-4.92
-1.02
1.68
3.28
4.03
4.17
3.88
3.25
2.37
1.33
0.29
-0.54
-0.93
-0.77
-0.03
1.16
2.58
4.02
5.33
6.43
7.33
8.00
8.40
8.47
8.20
7.57
6.59
5.26
3.61
1.73
-0.22
-2.01
-3.44
-4.45
-5.11
-5.64
-6.29
-7.29
-8.78
-10.67
-12.67
-14.24
-14.68
-13.39
-10.02
-4.73
1.83
8.75
15.09
20.19
23.72
25.69
26.30
25.85
24.64
22.96
21.15
19.44
18.03
17.01
16.36
16.03
15.99
16.21
16.68
17.34
18.06
18.63
18.82
18.44
17.39
15.64
13.23
10.28
6.94
3.40
-0.08
-3.30
-6.14
-8.70
-11.22
-13.97
-17.00
-20.01
-22.32
-23.16
-21.97
-18.72
-13.97
-8.64
-3.69
0.24
2.95
4.58
5.46
5.84
5.84
5.48
4.76
3.83
2.86
2.11
1.70
1.66
1.84
2.06
2.18
2.19
2.16
2.17
2.18
2.05
1.59
0.65
-0.78
-2.56
-4.46
-6.32
-8.01
-9.56
-11.04
-12.57
-14.30
-16.39
-18.94
-21.89
-24.89
-27.32
-28.43
-27.60
-24.63
-19.83
-13.95
-7.90
-2.52
1.74
4.74
6.60
7.57
7.86
7.60
6.92
5.98
4.98
4.16
3.72
3.77
4.25
5.01
5.82
6.52
6.97
7.18
7.20
7.12
6.97
6.73
6.24
5.34
3.88
1.89
-0.45
-2.82
-4.89
-6.47
-7.55
-8.36
-9.19
-10.38
-12.16
-14.58
-17.48
-20.40
-22.68
-23.56
-22.46
-19.23
-14.26
-8.41
-2.66
2.23
5.94
8.56
10.41
11.80
12.86
13.60
13.97
14.02
13.88
13.75
13.84
14.22
14.90
15.79
16.75
17.63
18.37
19.01
19.63
20.34
21.12
21.80
22.07
21.69
20.49
18.52
15.99
13.18
10.33
7.62
5.08
2.68
0.28
-2.24
-5.01
-7.99
-10.95
-13.44
-14.87
-14.71
-12.72
-9.01
-4.12
1.19
6.12
10.05
12.64
13.83
13.74
12.63
10.79
8.53
6.22
4.22
2.83
2.22
2.37
3.06
3.96
4.76
5.28
5.54
5.67
5.85
6.15
6.49
6.69
6.50
5.75
4.40
2.54
0.41
-1.76
-3.76
-5.52
-7.09
-8.67
-10.54
-12.97
-16.04
-19.64
-23.32
-26.42
-28.19
-28.08
-25.86
-21.82
-16.62
-11.15
-6.25
-2.46
0.02
1.34
1.83
1.89
1.83
1.82
1.92
2.11
2.30
2.40
2.35
2.19
1.99
1.87
1.94
2.23
2.74
3.41
4.11
4.69
4.99
4.88
4.28
3.21
1.76
0.08
-1.67
-3.35
-4.87
-6.17
-7.26
-8.16
-8.92
-9.61
-10.32
-11.19
-12.31
-13.78
-15.60
-17.63
-19.55
-20.84
-20.97
-19.51
-16.35
-11.73
-6.27
-0.74
4.15
7.92
10.43
11.78
12.29
12.25
11.91
11.37
10.72
10.04
9.43
9.00
8.87
9.06
9.56
10.34
11.36
12.64
14.19
15.99
17.95
19.86
21.53
22.76
23.43
23.49
22.95
21.85
20.29
18.40
16.37
14.37
12.52
10.77
8.99
6.96
4.50
1.53
-1.87
-5.49
-9.00
-11.98
-13.96
-14.55
-13.53
-11.01
-7.42
-3.42
0.31
3.26
5.21
6.23
6.55
6.41
5.95
5.21
4.16
2.86
1.44
0.14
-0.79
-1.16
-0.94
-0.24
0.74
1.78
2.69
3.34
3.71
3.79
3.62
3.20
2.56
1.64
0.45
-1.02
-2.65
-4.27
-5.66
-6.68
-7.38
-8.00
-8.88
-10.37
-12.65
-15.62
-18.95
-22.15
-24.67
-26.03
-25.88
-24.12
-20.88
-16.59
-11.84
-7.33
-3.65
-1.15
0.12
0.37
0.01
-0.54
-0.97
-1.12
-0.97
-0.64
-0.29
-0.05
0.03
0.01
0.00
0.14
0.53
1.21
2.08
2.95
3.57
3.74
3.31
2.30
0.84
-0.85
-2.58
-4.19
-5.62
-6.83
-7.87
-8.76
-9.51
-10.12
-10.59
-10.98
-11.42
-12.13
-13.37
-15.34
-17.99
-20.95
-23.58
-25.12
-24.92
-22.73
-18.71
-13.43
-7.65
-2.11
2.59
6.10
8.30
9.33
9.49
9.16
8.68
8.23
7.80
7.29
6.66
6.00
5.59
5.73
6.57
8.07
9.92
11.74
13.25
14.34
15.10
15.72
16.30
16.83
17.18
17.17
16.71
15.88
14.86
13.91
13.20
12.79
12.58
12.36
11.87
10.79
8.87
5.96
2.16
-2.11
-6.15
-9.18
-10.57
-10.01
-7.66
-4.04
0.10
4.02
7.13
9.07
9.72
9.15
7.61
5.47
3.18
1.18
-0.23
-0.91
-0.95
-0.58
-0.08
0.35
0.65
0.87
1.12
1.44
1.80
2.06
2.06
1.66
0.81
-0.48
-2.14
-4.06
-6.10
-8.09
-9.89
-11.41
-12.71
-13.97
-15.43
-17.32
-19.67
-22.25
-24.54
-25.87
-25.63
-23.53
-19.71
-14.76
-9.47
-4.66
-0.87
1.66
3.04
3.50
3.35
2.81
2.07
1.21
0.33
-0.49
-1.18
-1.69
-2.02
-2.18
-2.18
-2.09
-1.90
-1.62
-1.20
-0.68
-0.14
0.20
0.08
-0.77
-2.41
-4.70
-7.27
-9.70
-11.65
-13.04
-13.99
-14.83
-15.89
-17.40
-19.44
-21.86
-24.30
-26.27
-27.21
-26.64
-24.33
-20.42
-15.34
-9.72
-4.26
0.47
4.11
6.50
7.69
7.90
7.47
6.78
6.14
5.71
5.51
5.49
5.61
5.90
6.42
7.25
8.36
9.61
10.85
11.90
12.66
13.04
13.00
12.53
11.68
10.63
9.66
9.01
8.83
9.04
9.36
9.42
8.86
7.46
5.31
2.74
0.32
-1.28
-1.50
-0.02
3.03
7.16
11.61
15.61
18.56
20.18
20.51
19.83
18.51
16.89
15.20
13.53
11.84
10.08
8.28
6.58
5.20
4.33
3.99
4.03
4.13
3.97
3.37
2.36
1.11
-0.20
-1.53
-2.96
-4.66
-6.76
-9.22
-11.92
-14.73
-17.58
-20.45
-23.26
-25.75
-27.45
-27.80
-26.37
-23.06
-18.20
-12.44
-6.55
-1.26
2.93
5.80
7.38
7.89
7.65
7.00
6.19
5.38
4.67
4.08
3.65
3.36
3.17
3.02
2.84
2.63
2.47
2.42
2.47
2.48
2.23
1.54
0.36
-1.21
-2.99
-4.81
-6.59
-8.35
-10.22
-12.35
-14.93
-18.06
-21.69
-25.45
-28.64
-30.38
-29.92
-26.93
-21.77
-15.35
-8.84
-3.25
0.89
3.61
5.30
6.41
7.26
7.96
8.48
8.77
8.82
8.68
8.43
8.13
7.83
7.55
7.36
7.28
7.37
7.62
8.00
8.43
8.82
9.05
8.99
8.51
7.52
6.02
4.17
2.19
0.44
-0.88
-1.69
-2.18
-2.72
-3.80
-5.75
-8.71
-12.48
-16.54
-20.15
-22.54
-23.07
-21.44
-17.83
-12.80
-7.22
-1.93
2.51
5.92
8.51
10.69
12.90
15.43
18.37
21.66
25.10
28.48
31.60
34.31
36.48
38.01
38.86
38.98
38.42
37.29
35.80
34.17
32.56
31.02
29.44
27.61
25.37
22.68
19.65
16.55
13.61
10.94
8.48
5.98
3.18
-0.14
-4.01
-8.30
-12.66
-16.59
-19.53
-20.97
-20.61
-18.39
-14.65
-9.97
-5.06
-0.55
3.11
5.74
7.31
7.93
7.76
6.96
5.76
4.45
3.32
2.59
2.32
2.46
2.82
3.17
3.35
3.27
2.94
2.43
1.81
1.16
0.52
-0.13
-0.81
-1.58
-2.48
-3.52
-4.70
-5.98
-7.28
-8.51
-9.61
-10.53
-11.28
-12.00
-12.86
-14.06
-15.75
-18.01
-20.74
-23.68
-26.42
-28.45
-29.25
-28.43
-25.90
-21.90
-17.03
-12.06
-7.73
-4.48
-2.37
-1.14
-0.34
0.40
1.27
2.22
3.11
3.78
4.16
4.29
4.28
4.30
4.52
5.06
6.00
7.27
8.69
10.04
11.08
11.66
11.75
11.36
10.54
9.35
7.88
6.24
4.60
3.13
1.91
0.94
0.08
-0.79
-1.72
-2.58
-3.09
-2.97
-2.07
-0.47
1.50
3.40
4.76
5.29
4.83
3.47
1.52
-0.56
-2.20
-2.86
-2.19
-0.18
2.81
6.14
9.12
11.33
12.68
13.41
13.83
14.20
14.56
14.78
14.72
14.29
13.59
12.80
12.12
11.71
11.62
11.75
11.94
11.97
11.66
10.95
9.91
8.73
7.62
6.70
5.96
5.23
4.31
3.11
1.63
0.01
-1.60
-3.11
-4.54
-5.98
-7.54
-9.26
-11.17
-13.27
-15.51
-17.79
-19.92
-21.57
-22.34
-21.88
-20.05
-17.05
-13.40
-9.78
-6.78
-4.70
-3.49
-2.85
-2.44
-2.10
-1.84
-1.83
-2.15
-2.74
-3.37
-3.76
-3.70
-3.18
-2.35
-1.42
-0.61
0.01
0.45
0.85
1.33
1.98
2.76
3.53
4.07
4.17
3.72
2.74
1.39
-0.12
-1.58
-2.86
-3.92
-4.79
-5.57
-6.38
-7.34
-8.54
-10.01
-11.68
-13.40
-14.89
-15.81
-15.88
-14.91
-12.98
-10.41
-7.73
-5.42
-3.83
-3.00
-2.73
-2.74
-2.79
-2.80
-2.83
-3.01
-3.43
-4.06
-4.82
-5.55
-6.12
-6.34
-6.08
-5.31
-4.09
-2.60
-1.13
0.11
0.98
1.50
1.77
1.85
1.85
1.77
1.67
1.55
1.46
1.37
1.27
1.10
0.79
0.33
-0.27
-0.97
-1.69
-2.38
-3.04
-3.74
-4.60
-5.76
-7.24
-8.83
-10.07
-10.40
-9.39
-6.93
-3.35
0.70
4.51
7.54
9.57
10.69
11.13
11.11
10.80
10.29
9.67
9.04
8.53
8.24
8.20
8.42
8.84
9.46
10.28
11.29
12.49
13.78
15.04
16.13
16.93
17.33
17.31
16.86
16.02
14.86
13.48
11.96
10.41
8.83
7.23
5.60
3.88
2.00
-0.15
-2.64
-5.50
-8.59
-11.62
-14.15
-15.71
-15.98
-14.89
-12.64
-9.71
-6.65
-3.94
-1.90
-0.63
-0.08
-0.10
-0.48
-1.07
-1.77
-2.55
-3.36
-4.16
-4.85
-5.28
-5.36
-5.06
-4.47
-3.80
-3.24
-2.92
-2.81
-2.75
-2.58
-2.26
-1.92
-1.83
-2.23
-3.21
-4.60
-6.10
-7.33
-8.11
-8.42
-8.46
-8.54
-8.93
-9.82
-11.27
-13.14
-15.16
-16.93
-18.00
-18.03
-16.87
-14.64
-11.69
-8.50
-5.54
-3.17
-1.58
-0.73
-0.44
-0.47
-0.61
-0.72
-0.83
-0.99
-1.24
-1.58
-1.94
-2.28
-2.59
-2.90
-3.19
-3.38
-3.34
-2.94
-2.17
-1.14
-0.08
0.81
1.37
1.62
1.62
1.50
1.26
0.89
0.34
-0.41
-1.27
-2.09
-2.74
-3.14
-3.36
-3.61
-4.13
-5.10
-6.53
-8.29
-10.10
-11.63
-12.53
-12.55
-11.52
-9.51
-6.76
-3.72
-0.86
1.44
3.00
3.86
4.25
4.40
4.50
4.67
4.93
5.30
5.77
6.34
6.95
7.55
8.10
8.59
9.05
9.55
10.20
11.05
12.12
13.39
14.80
16.22
17.47
18.37
18.76
18.61
18.00
17.12
16.15
15.22
14.33
13.38
12.15
10.44
8.09
5.07
1.57
-2.05
-5.28
-7.59
-8.57
-8.09
-6.33
-3.76
-0.95
1.61
3.57
4.83
5.40
5.40
4.93
4.11
3.01
1.76
0.47
-0.73
-1.72
-2.47
-2.93
-3.12
-3.02
-2.66
-2.07
-1.34
-0.62
-0.02
0.32
0.32
-0.08
-0.84
-1.91
-3.21
-4.63
-6.05
-7.35
-8.47
-9.43
-10.34
-11.38
-12.71
-14.44
-16.44
-18.44
-20.03
-20.83
-20.58
-19.27
-17.15
-14.62
-12.15
-10.07
-8.52
-7.45
-6.72
-6.15
-5.67
-5.25
-4.90
-4.61
-4.33
-3.94
-3.36
-2.58
-1.67
-0.77
-0.05
0.45
0.74
0.95
1.21
1.61
2.18
2.81
3.31
3.46
3.01
1.76
-0.34
-3.18
-6.46
-9.73
-12.58
-14.67
-15.94
-16.58
-16.96
-17.47
-18.30
-19.40
-20.42
-20.84
-20.20
-18.23
-14.99
-10.90
-6.60
-2.75
0.12
1.79
2.26
1.76
0.62
-0.83
-2.29
-3.49
-4.28
-4.52
-4.16
-3.21
-1.72
0.15
2.15
4.01
5.43
6.26
6.50
6.30
5.95
5.75
5.87
6.40
7.28
8.41
9.65
10.89
12.04
13.03
13.83
14.41
14.73
14.73
14.28
13.21
11.42
8.92
5.94
2.92
0.41
-1.03
-1.07
0.33
2.90
6.12
9.39
12.21
14.29
15.56
16.12
16.09
15.59
14.69
13.47
12.06
10.62
9.25
7.99
6.74
5.45
4.11
2.81
1.75
1.02
0.61
0.41
0.25
0.06
-0.14
-0.33
-0.50
-0.73
-1.14
-1.79
-2.66
-3.66
-4.70
-5.68
-6.52
-7.05
-7.02
-6.13
-4.12
-0.92
3.25
7.96
12.58
16.57
19.53
21.32
22.07
22.09
21.74
21.30
20.85
20.35
19.63
18.60
17.27
15.82
14.44
13.26
12.28
11.37
10.37
9.20
7.88
6.52
5.17
3.80
2.24
0.37
-1.89
-4.36
-6.76
-8.75
