1625580663.00
64.000000
-0.00
-0.00
-0.00
-0.00
-0.00
-0.00
-0.00
-0.00
-0.00
-0.00
0.00
0.01
0.01
-0.00
-0.03
-0.05
-0.05
0.00
0.13
0.36
0.66
1.01
1.37
1.72
2.06
2.40
2.79
3.24
3.80
4.42
5.06
5.66
6.20
6.68
7.15
7.68
8.31
9.14
10.09
11.04
11.88
12.56
13.14
13.76
14.65
15.96
17.91
20.32
22.90
25.38
27.58
29.57
31.68
34.32
37.81
42.54
48.15
54.10
59.83
64.97
69.58
74.14
79.34
85.71
93.76
103.00
112.62
121.73
129.77
136.75
143.30
150.75
157.77
166.64
177.95
191.79
206.97
220.57
228.25
225.36
208.53
176.87
132.76
80.05
23.07
-34.94
-92.44
-149.16
-205.23
-260.37
-313.74
-363.87
-409.83
-450.91
-486.50
-515.74
-537.23
-549.22
-549.96
-538.37
-514.21
-478.67
-433.88
-382.45
-327.02
-269.84
-212.63
-156.66
-102.95
-52.37
-5.90
35.58
71.43
101.35
125.50
144.38
158.69
169.15
176.37
180.75
182.57
182.07
179.51
175.23
169.65
163.18
156.15
148.81
141.30
133.69
126.02
118.33
110.69
103.16
95.80
88.68
81.83
75.25
68.95
62.95
57.25
51.86
46.78
42.03
37.59
33.45
29.61
26.07
22.81
19.83
17.11
14.67
12.48
10.54
8.83
7.35
6.07
4.97
4.05
3.27
2.62
2.09
1.65
1.30
1.03
0.82
0.65
0.53
0.45
0.39
0.37
0.35
0.36
0.38
0.40
0.44
0.48
0.52
0.57
0.61
0.67
0.72
0.78
0.85
0.92
0.99
1.07
1.17
1.27
1.38
1.51
1.65
1.82
2.00
2.20
2.43
2.68
2.95
3.26
3.60
3.97
4.37
4.82
5.30
5.82
6.37
6.97
7.62
8.31
9.04
9.83
10.65
11.53
12.45
13.42
14.44
15.52
16.67
17.88
19.15
20.48
21.81
23.11
24.29
25.27
25.92
26.11
25.71
24.63
22.80
20.21
16.91
12.96
8.54
3.78
-1.12
-5.98
-10.58
-14.72
-18.20
-20.85
-22.61
-23.48
-23.60
-23.13
-22.24
-21.06
-19.63
-17.96
-16.03
-13.86
-11.50
-9.14
-6.96
-5.09
-3.54
-2.22
-0.93
0.55
2.38
4.51
6.61
8.33
9.38
9.73
9.69
9.79
10.56
12.34
15.05
17.89
20.00
20.71
19.93
18.27
16.75
16.48
18.05
21.32
24.93
27.39
27.61
25.49
21.94
18.56
16.75
17.21
19.60
22.03
22.54
19.58
12.24
0.09
-16.88
-38.28
-63.18
-85.17
-99.06
-101.11
-91.04
-72.77
-53.24
-39.28
-34.18
-36.19
-39.76
-39.72
-33.82
-23.88
-14.05
-7.60
-4.68
-2.41
2.83
12.76
25.39
36.81
43.36
43.76
39.52
33.62
28.72
25.87
24.54
23.07
20.16
15.33
9.03
2.12
-4.54
-10.55
-16.17
-22.05
-29.05
-37.54
-47.05
-56.31
-63.85
-68.65
-70.64
-70.71
-70.08
-69.57
-69.03
-67.48
-63.62
-56.73
-47.14
-36.16
-25.56
-16.66
-9.98
-5.24
-1.66
1.61
5.28
9.88
15.72
22.74
30.39
37.66
43.34
46.50
46.75
44.28
39.67
33.66
26.98
20.44
14.90
11.05
9.19
9.01
9.92
11.39
13.23
15.40
17.62
19.02
18.48
15.23
9.44
2.42
-3.94
-8.08
-9.49
-8.85
-7.60
-7.15
-8.35
-11.22
-15.12
-19.18
-22.64
-24.93
-25.59
-24.22
-20.62
-15.16
-8.93
-3.52
-0.32
0.21
-1.27
-3.40
-4.87
-5.16
-4.66
-4.29
-4.91
-6.99
-10.53
-15.23
-20.56
-25.71
-29.49
-30.52
-27.68
-20.72
-10.44
1.62
13.91
25.32
35.13
42.67
47.05
47.34
43.20
35.35
25.64
16.48
9.89
6.78
6.96
9.56
13.61
18.42
23.52
28.35
32.11
34.01
33.67
31.53
28.74
26.64
25.95
26.35
26.65
25.38
21.62
15.45
7.88
0.29
-6.17
-10.88
-13.53
-14.04
-12.50
-9.39
-5.78
-3.07
-2.44
-4.24
-7.75
-11.59
-14.63
-16.74
-18.95
-22.75
-29.21
-38.23
-48.35
-57.15
-62.02
-61.12
-54.00
-41.75
-26.79
-12.07
-0.07
8.01
12.47
14.50
15.46
16.21
16.96
17.47
17.47
16.96
16.13
15.30
14.68
14.24
13.88
13.41
12.74
11.99
11.65
12.52
15.53
21.28
29.61
39.35
48.50
54.90
57.01
54.56
48.49
40.55
32.37
24.82
17.84
10.82
3.42
-3.83
-9.60
-12.34
-11.28
-6.98
-1.33
3.28
4.78
2.07
-4.85
-15.09
-27.25
-39.74
-50.86
-59.24
-64.07
-65.49
-64.58
-63.07
-62.70
-64.53
-68.40
-72.90
-75.80
-74.76
-68.13
-55.47
-37.82
-17.44
2.93
20.85
34.93
45.07
52.03
56.82
60.10
61.94
62.05
60.29
56.99
53.13
50.02
48.74
49.69
52.27
55.11
56.50
55.11
50.55
43.55
35.67
28.66
23.69
21.00
19.93
19.46
18.72
17.38
15.54
13.47
11.36
9.34
7.68
6.91
7.53
9.65
12.57
14.87
14.96
11.80
5.51
-2.61
-10.63
-16.80
-20.23
-21.09
-20.42
-19.57
-19.73
-21.58
-25.26
-30.41
-36.38
-42.36
-47.52
-51.10
-52.55
-51.67
-48.68
-44.22
-39.14
-34.23
-29.90
-26.09
-22.35
-18.05
-12.80
-6.53
0.38
7.28
13.52
18.52
21.96
23.69
23.76
22.28
19.50
15.93
12.34
9.73
8.98
10.40
13.44
16.84
19.08
19.21
17.21
13.99
10.76
8.31
6.49
4.43
1.10
-3.89
-10.08
-16.40
-21.82
-25.75
-27.93
-28.10
-25.70
-20.02
-10.79
1.22
14.12
25.37
32.84
35.55
33.94
29.34
23.21
16.49
9.40
1.93
-5.78
-13.19
-19.68
-24.97
-29.42
-33.73
-38.43
-43.24
-46.99
-48.11
-45.52
-39.35
-31.07
-22.86
-16.65
-13.22
-11.90
-11.03
-8.76
-3.99
3.07
11.03
17.86
21.67
21.48
17.60
11.50
5.23
0.64
-1.22
-0.44
2.08
5.18
8.10
10.77
13.65
17.22
21.47
25.66
28.72
29.82
28.80
26.31
23.35
20.69
18.46
16.32
13.93
11.45
9.61
9.24
10.66
13.28
15.75
16.65
15.21
11.71
7.27
3.22
0.56
-0.54
-0.62
-0.55
-1.06
-2.47
-4.67
-7.31
-10.04
-12.66
-15.18
-17.82
-20.87
-24.49
-28.47
-32.27
-35.15
-36.44
-35.94
-33.96
-31.18
-28.30
-25.66
-23.05
-19.85
-15.35
-9.29
-2.12
5.10
11.23
15.50
17.87
18.88
19.20
19.20
18.78
17.66
15.79
13.75
12.47
12.69
14.27
16.06
16.31
13.66
7.92
0.25
-7.29
-12.66
-14.75
-13.85
-11.56
-10.17
-11.67
-17.01
-25.47
-35.01
-42.97
-47.45
-48.25
-46.92
-46.12
-48.06
-53.45
-61.23
-69.16
-74.65
-75.50
-70.08
-57.48
-37.54
-11.17
19.47
51.22
80.71
105.33
123.90
136.62
144.27
147.16
144.58
135.15
117.91
93.61
65.14
37.07
14.18
-0.24
-5.53
-3.79
1.09
5.06
5.47
1.60
-5.42
-13.57
-20.96
-26.50
-29.93
-31.45
-31.29
-29.51
-26.13
-21.42
-16.18
-11.66
-9.11
-9.27
-11.87
-15.69
-18.93
-19.95
-17.88
-12.97
-6.51
-0.36
3.77
4.98
3.56
0.90
-1.28
-1.68
-0.14
2.39
4.40
4.71
3.01
-0.11
-3.54
-6.30
-7.94
-8.51
-8.34
-7.77
-7.04
-6.51
-6.74
-8.46
-12.29
-18.33
-25.79
-33.23
-38.98
-41.88
-41.91
-40.21
-38.68
-38.96
-41.69
-45.97
-49.80
-50.86
-47.57
-39.83
-29.10
-17.82
-8.49
-2.86
-1.37
-3.19
-6.45
-8.86
-8.30
-3.30
6.51
20.36
36.34
51.69
63.13
67.71
64.04
53.28
39.30
27.33
21.62
23.23
29.44
35.39
37.16
34.47
31.02
32.18
41.21
56.73
73.00
83.31
83.81
75.72
64.27
55.22
51.48
51.77
52.19
49.16
42.01
33.43
27.66
27.59
32.77
39.53
43.11
40.46
31.94
20.92
11.54
6.07
3.64
0.97
-5.32
-16.40
-30.36
-43.62
-53.27
-58.84
-62.29
-66.05
-70.98
-75.45
-76.60
-72.55
-63.97
-53.90
-45.92
-41.99
-41.36
-41.25
-38.50
-31.36
-20.16
-7.00
5.28
14.13
18.13
17.22
12.75
7.05
2.64
1.16
2.71
5.82
8.30
8.47
6.01
1.97
-1.97
-4.42
-4.87
-3.65
-1.43
1.24
4.09
7.03
9.93
12.59
14.76
16.36
17.32
17.56
16.95
15.43
13.28
11.37
10.93
12.97
17.82
24.67
31.95
37.95
41.36
41.46
37.88
30.38
19.12
5.06
-9.71
-22.38
-30.58
-33.59
-32.89
-31.58
-32.65
-37.40
-44.75
-51.91
-56.08
-56.09
-52.90
-48.76
-45.63
-43.92
-42.28
-38.48
-30.78
-19.08
-5.07
8.49
19.23
26.21
30.22
33.16
36.81
41.88
47.68
52.63
55.19
54.55
50.82
44.68
36.90
28.20
19.30
11.24
5.23
2.25
2.38
4.50
6.60
6.70
3.74
-2.00
-9.14
-16.05
-21.57
-25.37
-27.82
-29.41
-30.32
-30.36
-29.06
-26.18
-22.00
-17.42
-13.66
-11.82
-12.44
-15.24
-19.24
-23.16
-25.77
-26.40
-25.07
-22.41
-19.62
-18.03
-18.84
-22.72
-29.48
-38.04
-46.70
-53.72
-58.00
-59.33
-58.30
-55.72
-52.15
-47.61
-41.89
-35.05
-27.72
-20.98
-15.74
-12.07
-8.99
-4.90
1.58
10.80
21.80
32.77
41.84
47.90
50.90
51.76
51.75
51.96
52.86
54.25
55.51
56.03
55.62
54.62
53.80
53.79
54.64
55.70
55.84
54.14
50.34
45.00
39.11
33.56
28.68
24.31
20.13
16.03
12.21
8.88
5.99
3.16
-0.11
-4.17
-8.97
-14.21
-19.57
-24.82
-29.86
-34.40
-37.98
-40.10
-40.63
-40.09
-39.53
-40.08
-42.27
-45.87
-50.00
-53.70
-56.36
-57.86
-58.27
-57.55
-55.36
-51.31
-45.27
-37.68
-29.34
-21.13
-13.51
-6.45
0.44
7.43
14.58
21.57
28.06
33.82
38.85
43.30
47.13
50.10
51.82
52.00
50.70
48.41
45.83
43.63
42.22
41.63
41.55
41.44
40.74
39.04
36.28
32.76
29.12
25.91
23.39
21.23
18.78
15.42
10.98
5.95
1.04
-3.22
-6.83
-10.28
-14.01
-17.97
-21.58
-24.16
-25.40
-25.74
-26.01
-26.91
-28.50
-30.34
-31.91
-33.16
-34.78
-37.67
-42.40
-48.71
-55.59
-61.72
-66.14
-68.63
-69.61
-69.71
-69.25
-68.13
-65.82
-61.78
-55.79
-48.09
-39.29
-30.14
-21.29
-13.12
-5.85
0.52
6.02
10.78
15.02
18.99
22.88
26.66
30.10
32.76
34.35
34.99
35.14
35.54
36.79
39.15
42.46
46.25
49.94
52.93
54.73
54.95
53.29
49.69
44.25
37.47
30.12
23.10
17.15
12.58
9.11
6.04
2.64
-1.49
-6.12
-10.60
-14.19
-16.44
-17.40
-17.46
-17.09
-16.60
-16.19
-16.09
-16.68
-18.45
-21.67
-26.22
-31.52
-36.81
-41.43
-45.07
-47.58
-48.87
-48.75
-47.10
-44.02
-39.94
-35.48
-31.17
-27.32
-23.82
-20.39
-16.69
-12.50
-7.79
-2.69
2.48
7.34
11.51
14.80
17.23
18.94
19.95
20.01
18.77
16.06
12.20
8.02
4.52
2.37
1.54
1.54
1.81
2.15
2.72
3.82
5.41
7.15
8.53
9.37
10.06
11.32
13.73
17.25
21.12
24.25
25.79
25.52
23.89
21.65
19.35
17.15
14.88
12.28
9.22
5.84
2.29
-1.37
-5.22
-9.34
-13.67
-17.92
-21.65
-24.54
-26.56
-27.96
-29.18
-30.56
-32.27
-34.16
-35.84
-36.78
-36.48
-34.57
-30.91
-25.69
-19.34
-12.47
-5.76
0.18
4.99
8.57
11.17
13.14
14.81
16.22
17.27
17.82
17.94
17.96
18.25
19.01
20.07
21.09
21.84
22.36
22.84
23.36
23.66
23.32
22.05
20.05
17.84
16.03
14.87
14.16
13.56
12.90
12.32
12.05
12.08
11.95
11.08
9.19
6.71
4.53
3.39
3.37
3.64
3.00
0.52
-3.81
-9.24
-14.77
-19.80
-24.39
-29.06
-34.19
-39.59
-44.52
-48.21
-50.29
-51.04
-51.03
-50.64
-49.75
-47.78
-44.24
-39.13
-33.03
-26.65
-20.39
-14.05
-7.22
0.15
7.26
12.69
15.08
13.93
10.02
5.06
0.88
-1.36
-1.54
-0.22
1.94
4.74
8.44
13.36
19.35
25.48
30.31
32.46
31.35
27.42
22.01
16.78
13.01
11.23
11.17
12.12
13.40
14.68
15.95
17.15
17.90
17.33
14.43
8.66
0.39
-9.04
-17.74
-24.17
-27.77
-29.06
-29.27
-29.56
-30.55
-32.24
-34.41
-36.96
-40.05
-43.74
-47.60
-50.65
-51.76
-50.34
-46.73
-42.11
-37.84
-34.64
-32.32
-29.87
-26.18
-20.73
-13.78
-6.14
1.36
8.35
14.89
21.26
27.70
34.13
40.20
45.36
48.99
50.53
49.64
46.50
41.87
37.04
33.37
31.71
32.02
33.35
34.34
33.74
30.96
26.13
19.94
13.27
7.10
2.45
0.14
0.47
2.95
6.29
8.81
9.21
7.22
3.64
-0.23
-3.42
-5.94
-8.71
-12.94
-19.26
-27.27
-35.63
-42.83
-47.89
-50.87
-52.76
-54.86
-58.17
-62.87
-68.41
-73.76
-77.94
-80.26
-80.52
-78.82
-75.50
-70.98
-65.78
-60.39
-55.24
-50.65
-46.88
-44.17
-42.74
-42.83
-44.51
-47.56
-51.48
-55.64
-59.42
-62.23
-63.56
-62.84
-59.50
-53.27
-44.52
-34.41
-24.68
-17.10
-12.84
-12.12
-14.13
-17.27
-19.52
-18.78
-13.35
-2.33
13.90
33.67
54.41
73.21
87.77
96.97
101.17
102.21
102.89
106.29
114.84
129.50
149.06
170.43
189.57
203.12
209.51
209.11
203.35
193.64
180.84
165.70
149.67
135.22
125.13
120.96
121.75
123.97
123.16
116.36
103.77
88.62
75.18
66.29
62.16
60.98
61.00
61.97
65.35
72.87
84.57
97.88
108.58
113.05
110.28
102.40
93.14
85.49
79.77
73.88
64.85
51.04
33.35
14.69
-1.61
-13.50
-20.88
-25.23
-28.36
-31.86
-37.04
-45.62
-59.97
-82.68
-115.10
-156.03
-201.10
-243.62
-276.48
-294.44
-295.44
-280.58
-253.11
-216.93
-175.54
-131.50
-86.60
-42.40
-0.85
35.18
61.94
75.62
73.61
56.12
27.21
-5.72
-33.90
-50.35
-52.66
-44.13
-32.28
-25.51
-29.60
-45.82
-71.12
-100.03
-126.76
-146.66
-156.78
-156.07
-145.69
-129.27
-112.17
-99.89
-95.73
-99.57
-108.16
-117.09
-122.80
-123.41
-117.95
-105.66
-85.85
-59.04
-28.28
0.90
22.36
32.17
30.77
22.90
15.39
13.97
21.06
35.44
53.58
71.51
86.28
96.64
102.81
105.93
107.35
108.06
108.34
107.84
106.01
102.53
97.58
91.81
86.07
80.95
76.56
72.40
67.60
61.46
53.66
44.55
34.92
25.83
18.33
13.54
12.70
17.16
27.80
44.25
64.09
82.94
95.35
96.69
85.00
62.12
33.24
5.29
-15.34
-24.69
-22.06
-9.58
9.22
30.91
53.09
74.58
95.02
114.29
132.12
148.24
162.32
174.01
182.54
186.53
183.72
171.58
148.18
113.33
69.27
20.46
-27.71
-70.67
-105.95
-133.46
-154.66
-171.19
-184.07
-193.51
-199.29
-201.35
-199.61
-193.72
-183.14
-167.76
-148.95
-129.98
-115.12
-107.72
-108.31
-114.12
-120.54
-123.44
-120.92
-113.63
-103.45
-91.92
-79.63
-66.55
-52.99
-39.94
-28.64
-19.44
-11.26
-1.91
10.68
27.28
46.91
67.33
86.08
101.38
112.38
118.94
121.23
119.48
114.05
105.68
95.43
84.66
74.50
65.61
57.94
50.94
43.93
36.52
28.86
21.59
15.46
10.91
7.84
5.62
3.38
0.44
-3.44
-8.09
-13.14
-18.37
-23.78
-29.50
-35.51
-41.43
-46.51
-49.96
-51.30
-50.57
-48.27
-44.96
-40.95
-36.11
-30.01
-22.32
-13.18
-3.28
6.27
14.35
20.25
23.96
26.05
27.50
29.19
31.69
35.01
38.84
42.69
46.17
49.10
51.49
53.41
54.89
55.94
56.53
56.65
56.32
55.52
54.18
52.06
48.94
44.64
39.23
32.98
26.39
19.94
13.98
8.59
3.66
-1.02
-5.53
-9.80
-13.63
-16.89
-19.57
-21.95
-24.38
-27.22
-30.56
-34.13
-37.40
-39.66
-40.29
-38.91
-35.46
-30.27
-23.93
-17.15
-10.51
-4.36
1.28
6.63
11.94
17.38
22.90
28.21
32.92
36.66
39.24
40.60
40.86
40.18
38.76
36.76
34.35
31.71
29.05
26.60
24.54
22.87
21.39
19.77
17.63
14.81
11.51
8.21
5.53
3.89
3.35
3.55
3.89
3.79
2.88
1.16
-1.12
-3.58
-5.90
-7.92
-9.65
-11.29
-13.07
-15.23
-17.89
-21.08
-24.67
-28.45
-32.05
-35.03
-36.88
-37.18
-35.76
-32.74
-28.57
-23.79
-18.90
-14.18
-9.65
-5.18
-0.66
3.93
8.45
12.65
16.29
19.27
21.60
23.37
24.71
25.64
26.12
26.11
25.68
24.97
24.20
23.54
23.04
22.54
21.82
20.74
19.33
17.82
16.55
15.71
15.27
14.93
14.31
13.09
11.16
8.60
5.55
2.17
-1.49
-5.40
-9.49
-13.65
-17.71
-21.46
-24.70
-27.28
-29.11
-30.22
-30.79
-31.18
-31.86
-33.30
-35.79
-39.35
-43.74
-48.49
-53.07
-56.88
-59.43
-60.31
-59.24
-56.11
-51.00
-44.18
-36.02
-26.99
-17.52
-7.97
1.42
10.47
18.93
26.48
32.66
37.08
39.63
40.59
40.62
40.49
40.82
41.84
43.34
44.90
46.04
46.39
45.75
43.99
41.03
36.91
31.89
26.48
21.46
17.57
15.33
14.70
15.18
15.93
16.16
15.40
13.54
10.76
7.30
3.30
-1.22
-6.17
-11.25
-15.97
-19.78
-22.33
-23.74
-24.49
-25.25
-26.56
-28.64
-31.45
-34.84
-38.78
-43.30
-48.31
-53.40
-57.73
-60.22
-59.90
-56.39
-50.00
-41.72
-32.82
-24.34
-16.86
-10.30
-4.23
1.87
8.22
14.66
20.71
25.83
29.75
32.51
34.44
35.87
36.90
37.34
36.91
35.41
33.03
30.27
27.78
26.04
25.11
24.63
24.03
22.82
20.91
18.65
16.67
15.53
15.43
16.06
16.73
16.69
15.47
13.11
10.04
6.87
4.04
1.64
-0.53
-2.79
-5.35
-8.27
-11.47
-14.88
-18.50
-22.40
-26.63
-31.09
-35.59
-39.85
-43.67
-46.89
-49.45
-51.25
-52.16
-52.00
-50.56
-47.71
-43.45
-37.90
-31.33
-24.12
-16.66
-9.35
-2.58
3.42
8.56
12.88
16.54
19.66
22.29
24.37
25.79
26.51
26.68
26.58
26.59
26.91
27.57
28.29
28.70
28.51
27.63
26.24
24.64
23.12
21.79
20.59
19.35
17.93
16.29
14.56
12.92
11.46
10.13
8.78
7.27
5.50
3.45
1.08
-1.60
-4.58
-7.88
-11.45
-15.22
-19.04
-22.75
-26.29
-29.64
-32.76
-35.74
-38.81
-42.25
-46.25
-50.51
-54.38
-56.99
-57.60
-55.50
-50.65
-43.75
-35.88
-28.21
-21.04
-14.14
-7.11
0.26
8.50
17.31
25.59
32.07
35.47
36.25
35.74
35.25
35.72
38.33
42.98
48.38
52.88
54.76
54.85
55.15
57.88
65.18
79.85
102.58
131.31
161.37
185.86
200.16
202.30
193.65
169.04
130.68
86.94
48.29
28.28
23.33
26.36
31.88
33.42
28.69
18.77
5.12
-11.38
-30.04
-50.58
-70.20
-85.71
-95.29
-98.48
-95.43
-87.54
-76.95
-65.64
-55.62
-46.80
-38.66
-31.19
-24.55
-18.67
-13.86
-10.92
-10.70
-14.11
-20.48
-28.28
-35.96
-42.11
-45.89
-47.41
-47.53
-47.21
-47.18
-47.17
-46.52
-44.90
-42.59
-40.39
-39.42
-40.42
-43.23
-46.87
-49.66
-50.17
-47.89
-43.36
-37.95
-33.05
-29.55
-27.44
-26.03
-24.38
-21.81
-18.15
-13.77
-9.39
-5.77
-3.56
-3.13
-4.62
-7.93
-12.91
-19.27
-26.54
-34.04
-40.80
-45.83
-48.36
-48.17
-45.69
-41.74
-37.22
-32.66
-28.09
-23.25
-18.03
-12.89
-8.90
-7.43
-9.50
-15.40
-24.57
-35.91
-48.28
-60.85
-73.11
-84.58
-94.40
-101.26
-103.71
-100.81
-92.81
-81.23
-68.55
-57.42
-49.79
-46.54
-47.41
-51.40
-57.10
-62.97
-67.47
-69.13
-66.69
-59.43
-47.45
-31.80
-14.27
2.91
17.53
27.87
33.01
33.02
28.96
22.58
15.76
9.98
5.87
3.25
1.46
-0.10
-1.71
-3.26
-4.48
-5.26
-5.62
-5.74
-5.59
-4.93
-3.30
-0.30
4.23
10.14
17.13
24.89
33.25
42.11
51.44
61.33
72.08
84.24
98.24
113.86
129.79
143.67
152.88
155.72
152.20
144.03
133.62
122.58
110.78
96.20
76.16
48.91
15.08
-21.98
-57.19
-85.70
-104.78
-114.69
-118.34
-119.53
-121.02
-123.39
-125.03
-123.27
-115.92
-102.62
-85.32
-67.72
-53.80
-46.22
-45.10
-47.89
-50.35
-48.28
-39.19
-22.99
-1.55
22.49
46.84
69.99
90.67
107.21
117.40
119.27
112.26
98.03
80.18
63.02
50.04
42.94
41.43
43.86
48.13
52.54
56.07
58.49
59.95
60.79
61.14
60.88
59.74
57.43
53.81
49.02
43.48
37.74
32.39
27.86
24.34
21.79
20.01
18.77
17.83
16.94
15.88
14.42
12.43
9.93
7.12
4.35
1.99
0.34
-0.51
-0.74
-0.69
-0.79
-1.43
-2.77
-4.74
-6.98
-9.07
-10.61
-11.43
-11.60
-11.51
-11.68
-12.65
-14.78
-18.16
-22.50
-27.20
-31.44
-34.39
-35.41
-34.13
-30.60
-25.20
-18.50
-11.19
-3.88
2.98
9.17
14.59
19.27
23.20
26.34
28.58
29.88
30.29
30.00
29.24
28.26
27.21
26.15
25.09
24.10
23.28
22.72
22.46
22.36
22.17
21.56
20.31
18.39
15.99
13.40
10.89
8.63
6.60
4.67
2.76
0.87
-0.88
-2.34
-3.45
-4.37
-5.34
-6.67
-8.50
-10.76
-13.20
-15.59
-17.78
-19.80
-21.82
-24.04
-26.63
-29.65
-33.05
-36.67
-40.19
-43.15
-44.92
-44.90
-42.71
-38.38
-32.33
-25.25
-17.85
-10.71
-4.10
1.98
7.63
12.91
17.75
22.07
25.79
28.89
31.33
33.08
34.04
34.08
33.10
31.11
28.57
26.12
24.35
23.47
23.27
23.30
23.03
22.03
20.05
17.61
15.52
14.42
14.37
14.90
15.25
14.83
13.32
10.74
8.27
7.29
8.57
11.74
15.51
18.61
20.50
21.58
22.89
26.68
35.04
48.91
67.76
90.12
114.52
139.92
165.30
181.44
179.92
156.88
116.10
67.12
19.79
-20.11
-51.52
-76.52
-97.29
-115.15
-128.61
-135.23
-133.77
-125.51
-113.66
-102.09
-94.05
-90.44
-90.41
-91.85
-92.79
-92.23
-90.31
-87.52
-84.16
-80.37
-76.39
-72.20
-67.39
-61.33
-53.28
-42.57
-28.83
-12.48
4.69
19.60
28.59
28.82
19.47
2.71
-16.27
-30.58
-34.00
-23.81
-2.42
23.13
43.53
50.36
38.70
8.11
-37.42
-90.74
-143.01
-185.06
-208.89
-209.80
-188.12
-150.09
-106.40
-68.49
-43.99
-33.58
-31.74
-30.60
-24.70
-13.73
-1.81
5.91
6.82
2.35
-3.19
-5.65
-3.51
1.15
4.25
2.61
-3.72
-11.11
-14.16
-8.52
7.00
29.67
54.49
76.31
91.53
98.41
96.79
87.26
71.56
53.22
37.72
30.89
35.96
51.37
70.63
85.43
89.92
83.83
72.31
62.66
60.05
64.95
73.52
80.22
81.09
75.72
66.89
58.86
55.20
57.00
62.42
67.65
68.87
64.32
55.23
45.17
37.95
35.35
35.89
35.33
29.02
14.28
-8.00
-33.64
-57.27
-74.53
-83.41
-84.06
-77.68
-65.46
-48.24
-27.11
-4.00
18.18
36.80
50.97
62.34
74.37
90.28
110.96
134.29
156.15
172.13
179.95
180.26
175.42
167.16
154.77
135.43
106.61
68.95
26.56
-13.50
-44.35
-62.45
-69.15
-69.96
-71.89
-80.09
-96.01
-118.75
-145.81
-174.56
-203.07
-230.05
-254.98
-277.76
-298.16
-308.17
-300.72
-273.07
-229.43
-178.84
-129.01
-83.18
-40.33
1.78
43.44
80.32
106.36
118.47
118.26
113.19
112.95
124.59
148.75
179.27
205.65
218.95
216.26
198.56
172.95
147.51
127.05
111.54
97.46
80.04
56.41
26.96
-5.43
-36.53
-63.40
-85.53
-104.35
-121.93
-139.76
-157.76
-174.12
-186.02
-190.26
-184.79
-169.38
-145.48
-115.21
-80.91
-44.86
-9.40
22.47
47.40
62.31
65.62
58.50
45.04
30.92
20.99
17.01
16.88
16.06
10.16
-2.46
-19.83
-37.57
-51.72
-60.97
-67.12
-73.44
-81.92
-91.30
-97.48
-95.86
-84.43
-65.45
-44.75
-29.08
-23.02
-27.07
-37.69
-49.25
-56.04
-54.12
-42.36
-22.31
2.50
27.92
50.70
69.47
84.60
97.20
107.60
114.44
115.18
107.60
91.64
70.26
48.73
32.79
26.58
31.39
45.67
65.76
86.88
103.96
112.43
109.29
94.13
69.50
40.47
13.17
-6.71
-15.53
-12.32
1.31
22.10
46.28
70.98
94.97
118.56
142.59
166.87
189.11
205.00
209.86
201.29
181.07
154.81
129.60
110.41
97.77
87.83
74.92
55.07
28.51
-0.18
-24.30
-38.27
-40.12
-31.96
-18.42
-4.13
8.32
18.86
28.68
38.27
46.14
48.91
42.97
26.89
2.99
-22.87
-43.49
-53.69
-52.81
-45.18
-38.42
-40.03
-54.17
-80.13
-112.81
-144.97
-169.57
-181.74
-179.65
-164.35
-139.47
-110.62
-84.77
-68.83
-67.77
-82.81
-110.83
-145.25
-178.40
-203.97
-218.64
-222.35
-217.19
-206.00
-191.06
-173.57
-153.78
-131.52
-106.82
-80.33
-53.49
-28.29
-6.83
9.21
19.21
23.91
25.42
26.41
29.32
35.48
44.58
54.95
64.40
71.49
76.32
80.32
85.27
91.90
99.00
103.80
103.18
95.13
79.64
58.58
34.86
11.61
-8.31
-22.91
-31.50
-35.32
-37.43
-41.56
-49.85
-60.92
-69.78
-70.28
-59.11
-38.81
-17.82
-7.19
-15.16
-42.99
-84.14
-127.38
-162.06
-182.39
-188.67
-185.35
-177.45
-167.54
-155.08
-137.88
-114.40
-85.42
-54.07
-24.64
-0.85
15.36
23.94
26.13
23.70
18.49
12.38
7.35
5.18
6.93
12.55
20.86
30.01
38.09
43.68
46.03
45.09
41.63
37.25
34.07
33.96
37.28
42.13
44.95
42.21
32.55
17.97
2.88
-8.20
-12.89
-11.89
-7.94
-3.92
-1.27
0.68
4.47
13.75
32.00
61.20
100.14
143.30
181.46
204.32
204.43
180.44
137.76
86.30
36.61
-3.72
-31.47
-47.04
-52.98
-52.88
-51.07
-52.29
-60.54
-77.29
-100.27
-123.69
-140.37
-144.77
-135.11
-113.63
-85.24
-55.43
-28.69
-8.03
4.99
10.08
8.19
1.64
-6.17
-11.64
-12.15
-6.77
4.06
19.79
40.77
68.17
102.95
144.00
186.88
224.31
248.45
254.05
240.74
212.94
177.63
141.30
107.90
78.79
54.39
35.44
23.12
17.60
16.52
14.68
5.99
-13.48
-43.35
-78.63
-111.82
-135.74
-146.05
-141.89
-125.45
-100.65
-71.73
-42.63
-16.23
5.74
23.01
36.14
46.09
53.48
58.53
61.30
61.29
57.79
49.63
36.45
19.10
0.24
-16.16
-27.33
-29.84
-21.96
-2.48
24.77
52.90
71.14
70.12
44.64
-3.91
-66.98
-131.56
-183.98
-214.46
-219.40
-201.94
-169.84
-132.74
-98.73
-71.98
-52.63
-38.05
-25.55
-14.15
-5.42
-2.05
-5.74
-15.36
-26.60
-33.92
-32.91
-22.19
-3.13
21.10
46.91
70.87
89.82
101.22
103.67
97.62
85.52
71.01
57.36
45.85
35.34
23.27
7.53
-11.94
-32.83
-51.73
-65.82
-74.07
-77.02
-75.65
-70.12
-59.44
-42.32
-18.46
10.37
40.51
67.66
88.52
101.93
108.87
111.44
111.56
110.19
107.36
102.69
96.02
87.74
78.69
69.88
62.11
55.91
51.39
48.30
46.12
44.10
41.50
37.77
32.73
26.68
20.29
14.42
9.79
6.87
5.71
6.09
7.63
9.96
12.82
16.08
19.61
23.20
26.45
28.84
29.89
29.37
27.41
24.49
21.21
18.07
15.23
12.64
10.11
7.62
5.35
3.58
2.53
2.17
2.21
2.32
2.17
1.62
0.72
-0.43
-1.71
-3.11
-4.66
-6.46
-8.56
-10.96
-13.63
-16.43
-19.21
-21.88
-24.41
-26.89
-29.49
-32.40
-35.76
-39.61
-43.82
-48.11
-52.05
-55.06
-56.59
-56.24
-53.83
-49.49
-43.61
-36.72
-29.33
-21.87
-14.64
-7.74
-1.25
4.83
10.48
15.67
20.34
24.45
28.01
31.05
33.59
35.58
36.93
37.51
37.30
36.36
34.90
33.18
31.39
29.59
27.70
25.54
22.89
19.65
15.89
11.82
7.74
3.94
0.60
-2.29
-4.89
-7.46
-10.24
-13.35
-16.82
-20.52
-24.24
-27.76
-30.82
-33.26
-35.01
-36.18
-37.07
-38.08
-39.53
-41.52
-43.87
-46.08
-47.56
-47.75
-46.33
-43.29
-38.96
-33.72
-27.94
-21.73
-15.03
-7.78
-0.04
7.81
15.11
21.10
25.25
27.37
27.75
26.95
25.61
24.24
22.94
21.32
18.74
14.71
9.23
3.05
-2.61
-6.52
-7.79
-6.40
-3.31
-0.03
1.87
1.16
-2.73
-9.87
-19.92
-31.61
-43.18
-52.49
-57.52
-56.78
-49.99
-37.88
-22.36
-5.69
10.83
26.86
42.74
58.72
74.25
87.68
97.27
101.77
98.65
87.91
72.00
54.41
37.07
20.63
2.36
-19.00
-42.02
-63.18
-77.57
-81.57
-74.42
-58.25
-36.71
-13.39
9.75
31.88
52.86
71.51
85.13
90.85
87.47
76.16
59.91
43.14
27.46
13.21
0.20
-11.95
-23.50
-33.82
-42.22
-48.27
-51.70
-52.68
-51.48
-48.47
-44.20
-39.30
-34.21
-29.23
-24.44
-19.66
-14.96
-10.57
-6.99
-4.76
-4.13
-4.88
-6.62
-8.99
-11.88
-15.46
-19.87
-25.05
-30.57
-35.72
-39.74
-42.10
-42.62
-41.43
-38.89
-35.29
-30.92
-25.98
-20.65
-15.09
-9.44
-3.86
1.52
6.51
10.91
14.51
17.18
18.93
19.95
20.46
20.67
20.65
20.38
19.81
18.96
17.93
16.91
16.06
15.42
14.96
14.56
14.11
13.58
13.02
12.48
12.00
11.48
10.75
9.59
7.87
5.58
2.86
-0.06
-3.00
-5.86
-8.62
-11.33
-14.01
-16.72
-19.55
-22.61
-25.97
-29.51
-32.86
-35.43
-36.61
-35.98
-33.46
-29.35
-24.17
-18.44
-12.55
-6.73
-1.03
4.52
9.89
14.98
19.68
23.88
27.46
30.35
32.52
33.95
34.67
34.70
34.10
32.96
31.42
29.69
27.99
26.54
25.41
24.53
23.74
22.77
21.50
19.90
18.08
16.18
14.30
12.36
10.22
7.70
4.67
1.18
-2.66
-6.62
-10.47
-14.02
-17.11
-19.67
-21.75
-23.56
-25.36
-27.49
-30.15
-33.31
-36.72
-39.88
-42.24
-43.33
-42.85
-40.78
-37.30
-32.73
-27.37
-21.54
-15.43
-9.22
-3.06
2.86
8.35
13.20
17.21
20.25
22.27
23.35
23.66
23.43
22.90
22.25
21.60
21.01
20.53
20.21
20.06
20.06
20.10
19.97
19.49
18.51
17.07
15.34
13.60
12.09
10.92
10.06
9.36
8.66
7.83
6.78
5.48
3.88
1.96
-0.26
-2.66
-5.10
-7.43
-9.60
-11.65
-13.72
-15.99
-18.59
-21.57
-24.83
-28.17
-31.29
-33.81
-35.35
-35.59
-34.38
-31.76
-27.99
-23.43
-18.51
-13.62
-9.02
-4.79
-0.90
2.80
6.40
9.88
13.15
16.07
18.55
20.57
22.15
23.26
23.80
23.65
22.81
21.48
20.06
19.01
18.64
18.95
19.71
20.56
21.16
21.35
21.09
20.43
19.42
18.13
16.64
15.05
13.45
11.89
10.36
8.79
7.12
5.28
3.25
1.03
-1.37
-3.91
-6.58
-9.32
-12.14
-15.07
-18.20
-21.54
-25.01
-28.40
-31.34
-33.45
-34.37
-33.91
-32.08
-29.05
-25.06
-20.41
-15.32
-9.94
-4.43
1.09
6.37
11.16
15.23
18.47
20.90
22.73
24.19
25.51
26.84
28.25
29.68
30.89
31.39
30.53
27.62
22.32
14.87
6.15
-2.51
-9.83
-15.03
-17.96
-19.04
-18.95
-18.21
-17.13
-15.79
-14.29
-12.80
-11.63
-11.00
-11.05
-11.68
-12.69
-13.83
-14.93
-15.94
-16.92
-18.06
-19.53
-21.49
-23.89
-26.54
-29.02
-30.86
-31.64
-31.13
-29.34
-26.50
-22.97
-19.05
-14.93
-10.68
-6.29
-1.81
2.61
6.74
10.31
13.12
15.14
16.46
17.26
17.71
17.91
17.92
17.73
17.38
16.94
16.50
16.19
16.05
16.10
16.28
16.51
16.68
16.73
16.58
16.15
15.40
14.32
12.97
11.47
9.98
8.54
7.12
5.59
3.86
1.88
-0.24
-2.31
-4.19
-5.85
-7.42
-9.08
-11.05
-13.44
-16.21
-19.23
-22.31
-25.25
-27.83
-29.81
-30.90
-30.86
-29.51
-26.89
-23.29
-19.13
-14.86
-10.78
-6.94
-3.20
0.59
4.45
8.16
11.39
13.80
15.25
15.82
15.73
15.24
14.57
13.84
13.14
12.55
12.15
11.98
11.97
12.03
12.08
12.11
12.17
12.31
12.52
12.68
12.65
12.31
11.61
10.65
9.53
8.35
7.11
5.74
4.14
2.21
-0.02
-2.46
-4.92
-7.21
-9.24
-10.97
-12.52
-14.10
-15.89
-18.02
-20.53
-23.31
-26.15
-28.70
-30.58
-31.48
-31.17
-29.63
-26.99
-23.49
-19.38
-14.92
-10.33
-5.81
-1.59
2.16
5.34
7.94
10.01
11.63
12.86
13.70
14.15
14.23
14.01
13.62
13.22
12.97
12.99
13.30
13.86
14.52
15.10
15.40
15.28
14.67
13.61
12.22
10.71
9.25
7.92
6.71
5.50
4.12
2.44
0.42
-1.91
-4.46
-7.15
-9.94
-12.83
-15.87
-19.07
-22.41
-25.83
-29.21
-32.41
-35.21
-37.40
-38.73
-38.96
-37.97
-35.72
-32.32
-27.95
-22.89
-17.40
-11.77
-6.26
-1.09
3.59
7.71
11.24
14.21
16.63
18.49
19.82
20.66
21.11
21.28
21.27
21.11
20.80
20.38
19.91
19.53
19.36
19.45
19.68
19.88
19.84
19.45
18.71
17.70
16.51
15.19
13.71
12.06
10.25
8.34
6.41
4.51
2.63
0.72
-1.25
-3.35
-5.59
-7.97
-10.47
-13.03
-15.56
-18.03
-20.44
-22.97
-25.85
-29.24
-33.11
-37.10
-40.61
-42.98
-43.71
-42.65
-39.94
-35.98
-31.20
-25.97
-20.57
-15.19
-9.97
-4.97
-0.27
4.16
8.31
12.13
15.55
18.41
20.58
21.99
22.71
22.89
22.81
22.71
22.79
23.10
23.58
24.10
24.54
24.79
24.82
24.63
24.24
23.67
22.96
22.14
21.22
20.18
18.96
17.53
15.85
14.00
12.07
10.19
8.42
6.74
5.06
3.28
1.28
-0.97
-3.48
-6.20
-9.04
-11.91
-14.65
-17.13
-19.26
-21.11
-22.95
-25.16
-28.07
-31.75
-35.95
-40.06
-43.36
-45.24
-45.35
-43.65
-40.35
-35.79
-30.36
-24.46
-18.47
-12.74
-7.45
-2.74
1.43
5.08
8.25
10.93
13.15
14.94
16.39
17.59
18.59
19.37
19.87
20.07
20.05
19.95
20.01
20.37
21.05
21.90
22.70
23.22
23.38
23.18
22.74
22.19
21.60
20.99
20.29
19.46
18.48
17.31
16.00
14.55
13.01
11.38
9.69
7.94
6.12
4.21
2.23
0.21
-1.84
-3.94
-6.16
-8.57
-11.22
-14.15
-17.40
-20.99
-24.91
-29.03
-32.97
-36.19
-38.10
-38.24
-36.51
-33.17
-28.73
-23.77
-18.69
-13.67
-8.75
-3.94
0.69
4.97
8.69
11.65
13.75
14.96
15.41
15.29
14.86
14.36
14.00
13.85
13.89
14.05
14.20
14.28
14.29
14.29
14.32
14.38
14.43
14.41
14.27
13.95
13.45
12.81
12.08
11.29
10.45
9.52
8.42
7.12
5.59
3.88
2.03
0.09
-1.92
-4.00
-6.13
-8.28
-10.41
-12.51
-14.65
-16.99
-19.67
-22.74
-26.07
-29.32
-32.03
-33.73
-34.12
-33.08
-30.76
-27.42
-23.41
-19.02
-14.49
-9.99
-5.61
-1.42
2.57
6.39
9.99
13.30
16.12
18.29
19.63
20.15
20.00
19.46
18.78
18.21
17.86
17.79
18.01
18.46
19.07
19.73
20.29
20.65
20.72
20.49
19.95
19.10
17.95
16.52
14.86
13.05
11.16
9.26
7.40
5.65
4.02
2.49
1.00
-0.55
-2.25
-4.12
-6.11
-8.13
-10.12
-12.05
-14.00
-16.08
-18.34
-20.83
-23.53
-26.39
-29.26
-31.90
-33.96
-35.05
-34.84
-33.20
-30.27
-26.39
-22.03
-17.56
-13.24
-9.18
-5.40
-1.86
1.42
4.47
7.26
9.72
11.75
13.20
13.96
14.01
13.50
12.70
11.94
11.44
11.31
11.49
11.86
12.29
12.65
12.88
12.91
12.75
12.44
12.07
11.71
11.37
10.97
10.36
9.42
8.10
6.48
4.71
2.90
1.16
-0.51
-2.12
-3.73
-5.31
-6.89
-8.42
-9.88
-11.25
-12.52
-13.77
-15.15
-16.84
-19.01
-21.74
-24.91
-28.17
-31.03
-32.95
-33.50
-32.55
-30.20
-26.83
-22.88
-18.73
-14.58
-10.48
-6.40
-2.32
1.67
5.48
8.96
12.03
14.65
16.83
18.56
19.85
20.66
21.01
20.98
20.69
20.29
19.95
19.73
19.62
19.56
19.52
19.49
19.49
19.53
19.57
19.52
19.26
18.75
18.00
17.09
16.11
15.12
14.11
13.06
11.91
10.62
9.12
7.40
5.47
3.41
1.35
-0.56
-2.24
-3.70
-5.04
-6.51
-8.35
-10.73
-13.60
-16.71
-19.58
-21.65
-22.44
-21.72
-19.56
-16.27
-12.30
-8.05
-3.82
0.25
4.10
7.69
10.95
13.78
16.05
17.68
18.65
19.00
18.82
18.16
17.10
15.73
14.20
12.72
11.52
10.78
10.56
10.80
11.32
11.89
12.32
12.47
12.25
11.70
10.93
10.06
9.24
8.51
7.79
6.91
5.64
3.83
1.42
-1.54
-4.89
-8.49
-12.25
-16.11
-20.03
-23.96
-27.78
-31.31
-34.37
-36.84
-38.76
-40.29
-41.58
-42.66
-43.30
-43.08
-41.57
-38.52
-34.01
-28.43
-22.27
-15.97
-9.81
-3.91
1.67
6.86
11.55
15.68
19.24
22.27
24.78
26.74
28.05
28.66
28.67
28.30
27.88
27.68
27.75
27.97
28.06
27.77
26.98
25.77
24.35
22.97
21.76
20.67
19.55
18.22
16.57
14.65
12.68
10.93
9.59
8.64
7.92
7.13
6.05
4.64
3.06
1.55
0.27
-0.77
-1.77
-3.01
-4.77
-7.16
-10.18
-13.68
-17.42
-21.15
-24.54
-27.30
-29.11
-29.74
-29.07
-27.15
-24.22
-20.62
-16.72
-12.78
-8.94
-5.23
-1.65
1.77
4.87
7.49
9.47
10.75
11.38
11.52
11.33
10.96
10.52
10.10
9.80
9.75
10.04
10.72
11.72
12.88
13.99
14.80
15.14
14.99
14.41
13.60
12.75
12.00
11.32
10.63
9.79
8.72
7.39
5.88
4.30
2.73
1.20
-0.32
-1.88
-3.53
-5.28
-7.10
-8.95
-10.80
-12.63
-14.45
-16.31
-18.19
-20.06
-21.81
-23.29
-24.29
-24.63
-24.12
-22.67
-20.29
-17.15
-13.47
-9.52
-5.51
-1.56
2.25
5.81
8.97
11.54
13.39
14.56
15.24
15.65
15.96
16.18
16.18
15.82
15.05
13.96
12.71
11.44
10.27
9.20
8.23
7.32
6.43
5.49
4.38
3.02
1.37
-0.52
-2.53
-4.48
-6.25
-7.75
-8.93
-9.85
-10.59
-11.27
-12.00
-12.90
-13.99
-15.25
-16.62
-18.07
-19.58
-21.19
-22.93
-24.75
-26.52
-27.98
-28.78
-28.64
-27.40
-25.10
-21.99
-18.41
-14.64
-10.85
-7.08
-3.35
0.23
3.51
6.27
8.42
9.97
11.11
11.99
12.70
13.22
13.48
13.45
13.18
12.79
12.40
12.07
11.75
11.34
10.74
9.90
8.87
7.73
6.60
5.55
4.58
3.64
2.64
1.48
0.12
-1.45
-3.24
-5.20
-7.28
-9.42
-11.51
-13.46
-15.16
-16.65
-18.02
-19.47
-21.21
-23.34
-25.77
-28.21
-30.27
-31.50
-31.60
-30.46
-28.19
-25.06
-21.41
-17.59
-13.83
-10.32
-7.08
-4.11
-1.33
1.34
3.91
6.38
8.67
10.74
12.59
14.23
15.65
16.87
17.87
18.69
19.37
20.01
20.69
21.45
22.27
23.07
23.75
24.18
24.22
23.70
22.55
20.78
18.50
15.91
13.21
10.50
7.81
5.12
2.49
-0.00
-2.21
-4.08
-5.65
-7.13
-8.72
-10.55
-12.66
-14.94
-17.29
-19.59
-21.78
-23.75
-25.30
-26.16
-26.08
-24.87
-22.57
-19.40
-15.73
-11.93
-8.24
-4.80
-1.56
1.51
4.45
7.20
9.62
11.58
12.98
13.81
14.20
14.34
14.46
14.72
15.19
15.76
16.27
16.56
16.56
16.35
16.06
15.83
15.64
15.37
14.86
13.97
12.72
11.26
9.77
8.35
6.99
5.57
3.97
2.09
0.00
-2.18
-4.31
-6.29
-8.10
-9.76
-11.35
-12.95
-14.67
-16.60
-18.84
-21.43
-24.38
-27.64
-31.02
-34.25
-36.93
-38.66
-39.05
-37.94
-35.39
-31.72
-27.39
-22.83
-18.37
-14.14
-10.12
-6.23
-2.42
1.24
4.63
7.58
9.96
11.74
13.01
13.91
14.57
15.10
15.54
15.94
16.38
16.92
17.59
18.36
19.06
19.48
19.44
18.89
17.91
16.64
15.22
13.71
12.05
10.15
7.90
5.29
2.36
-0.79
-4.04
-7.27
-10.36
-13.20
-15.71
-17.92
-19.94
-22.06
-24.52
-27.51
-30.95
-34.52
-37.76
-40.11
-41.20
-40.80
-38.89
-35.57
-31.04
-25.56
-19.48
-13.18
-7.03
-1.28
3.92
8.51
12.49
15.81
18.42
20.30
21.52
22.24
22.61
22.76
22.75
22.59
22.31
21.99
21.66
21.38
21.08
20.67
20.05
19.19
18.09
16.79
15.33
13.74
12.02
10.16
8.14
5.89
3.36
0.49
-2.67
-6.01
-9.39
-12.67
-15.80
-18.88
-22.07
-25.58
-29.54
-33.92
-38.45
-42.65
-45.92
-47.74
-47.78
-45.98
-42.52
-37.75
-32.08
-25.89
-19.49
-13.14
-7.00
-1.22
4.11
8.90
13.09
16.61
19.41
21.46
22.80
23.53
23.79
23.75
23.54
23.25
22.96
22.67
22.38
22.09
21.81
21.51
21.15
20.64
19.88
18.78
17.32
15.57
13.65
11.62
9.50
7.23
4.68
1.78
-1.46
-4.89
-8.35
-11.61
-14.57
-17.21
-19.62
-21.95
-24.38
-27.07
-30.18
-33.71
-37.51
-41.19
-44.18
-45.83
-45.62
-43.26
-38.90
-32.98
-26.09
-18.82
-11.53
-4.41
2.47
9.11
15.37
21.09
26.07
30.14
33.26
35.44
36.78
37.39
37.40
36.94
36.15
35.21
34.29
33.49
32.87
32.38
31.91
31.34
30.53
29.43
28.04
26.38
24.51
22.45
20.22
17.83
15.32
12.73
10.17
7.70
5.34
3.08
0.86
-1.34
-3.52
-5.68
-7.88
-10.25
-12.94
-16.12
-19.84
-24.00
-28.32
-32.31
-35.37
-36.94
-36.60
-34.25
-30.11
-24.64
-18.43
-11.97
-5.56
0.74
6.96
13.12
19.13
24.76
29.68
33.58
36.30
37.84
38.39
38.19
37.53
36.60
35.56
34.50
33.52
32.69
32.06
31.59
31.15
30.55
29.59
28.16
26.28
24.02
21.53
18.95
16.36
13.77
11.17
8.45
5.53
2.31
-1.21
-4.90
-8.60
-12.08
-15.21
-18.00
-20.57
-23.13
-25.89
-28.97
-32.43
-36.19
-40.03
-43.61
-46.44
-48.00
-47.87
-45.87
-42.12
-37.00
-31.04
-24.74
-18.45
-12.37
-6.58
-1.11
3.96
8.49
12.29
15.18
17.05
17.95
18.03
17.57
16.87
16.21
15.74
15.52
15.52
15.68
15.95
16.30
16.68
17.02
17.22
17.19
16.89
16.35
15.65
14.84
13.94
12.89
11.53
9.74
7.47
4.76
1.80
-1.20
-4.09
-6.78
-9.34
-11.94
-14.81
-18.13
-21.98
-26.25
-30.55
-34.33
-36.98
-38.02
-37.24
-34.74
-30.79
-25.76
-20.01
-13.80
-7.42
-1.14
4.77
10.11
14.77
18.77
22.07
24.63
26.35
27.19
27.27
26.90
26.42
26.14
26.14
26.29
26.39
26.29
25.95
25.45
24.93
24.50
24.21
24.07
24.00
23.90
23.67
23.19
22.37
21.13
19.45
17.37
14.99
12.44
9.82
7.20
4.57
1.92
-0.79
-3.51
-6.20
-8.89
-11.69
-14.85
-18.58
-22.91
-27.60
-32.14
-35.88
-38.28
-39.03
-38.09
-35.63
-31.91
-27.20
-21.73
-15.74
-9.48
-3.19
2.87
8.57
13.79
18.44
22.44
25.65
28.00
29.51
30.26
30.44
30.25
29.85
29.36
28.87
28.49
28.26
28.20
28.24
28.26
28.14
27.80
27.22
26.40
25.39
24.20
22.81
21.15
19.19
16.92
14.40
11.79
9.22
6.80
4.50
2.24
-0.08
-2.47
-4.87
-7.16
-9.23
-11.09
-12.90
-14.92
-17.37
-20.42
-24.10
-28.23
-32.47
-36.30
-39.16
-40.55
-40.18
-38.11
-34.65
-30.32
-25.59
-20.76
-15.92
-11.03
-5.97
-0.80
4.36
9.27
13.68
17.41
20.30
22.27
23.32
23.53
23.11
22.39
21.76
21.52
21.80
22.52
23.41
24.22
24.73
24.86
24.60
23.98
23.04
21.79
20.28
18.61
16.90
15.27
13.70
12.11
10.35
8.26
5.77
2.89
-0.25
-3.43
-6.40
-8.94
-10.97
-12.55
-13.91
-15.31
-17.02
-19.24
-22.03
-25.30
-28.77
-31.97
-34.36
-35.39
-34.71
-32.27
-28.35
-23.45
-18.11
-12.76
-7.61
-2.74
1.84
6.11
9.99
13.42
16.32
18.64
20.34
21.42
21.89
21.82
21.32
20.56
19.68
18.83
18.07
17.44
16.96
16.59
16.28
15.95
15.50
14.84
13.94
12.78
11.39
9.90
8.44
7.19
6.29
5.73
5.34
4.84
3.97
2.57
0.67
-1.57
-3.96
-6.37
-8.77
-11.15
-13.47
-15.71
-17.90
-20.15
-22.63
-25.49
-28.65
-31.80
-34.45
-36.07
-36.32
-35.17
-32.80
-29.55
-25.75
-21.66
-17.46
-13.24
-9.11
-5.16
-1.45
1.95
5.00
7.62
9.72
11.20
12.02
12.23
12.01
11.57
11.14
10.85
10.74
10.81
11.05
11.44
11.98
12.57
13.10
13.41
13.42
13.12
12.59
11.91
11.11
10.14
8.94
7.52
5.94
4.35
2.91
1.69
0.66
-0.25
-1.18
-2.23
-3.49
-5.01
-6.76
-8.66
-10.60
-12.44
-14.12
-15.63
-17.13
-18.80
-20.82
-23.19
-25.71
-27.93
-29.37
-29.59
-28.42
-25.97
-22.58
-18.69
-14.67
-10.76
-7.09
-3.68
-0.57
2.19
4.57
6.61
8.37
9.92
11.26
12.35
13.09
13.39
13.23
12.70
11.96
11.26
10.80
10.70
10.99
11.55
12.24
12.95
13.63
14.26
14.80
15.13
15.09
14.57
13.55
12.15
10.53
8.73
6.64
3.96
0.39
-4.14
-9.42
-14.99
-20.36
-25.17
-29.33
-32.94
-36.16
-39.12
-41.80
-44.07
-45.78
-46.90
-47.51
-47.74
-47.65
-47.09
-45.75
-43.30
-39.55
-34.60
-28.83
-22.73
-16.83
-11.47
-6.73
-2.47
1.59
5.69
10.02
14.57
19.15
23.41
27.03
29.82
31.83
33.26
34.32
35.10
35.52
35.43
34.74
33.61
32.28
30.99
29.83
28.73
27.49
26.00
24.28
22.43
20.56
18.61
16.39
13.67
10.38
6.63
2.66
-1.30
-5.17
-8.97
-12.80
-16.60
-20.18
-23.23
-25.47
-26.83
-27.52
-27.99
-28.74
-30.08
-31.98
-34.06
-35.75
-36.49
-35.92
-34.07
-31.21
-27.72
-24.01
-20.33
-16.87
-13.80
-11.29
-9.52
-8.61
-8.54
-9.17
-10.27
-11.59
-12.92
-14.13
-15.17
-16.04
-16.71
-17.11
-17.19
-16.91
-16.29
-15.39
-14.25
-12.91
-11.31
-9.46
-7.40
-5.24
-3.14
-1.22
0.53
2.14
3.70
5.20
6.54
7.64
8.50
9.17
9.70
9.99
9.84
9.05
7.61
5.68
3.64
1.74
0.00
-1.79
-3.91
-6.43
-9.03
-11.10
-11.99
-11.31
-9.14
-5.91
-2.16
1.69
5.49
9.31
13.23
17.24
21.13
24.62
27.46
29.52
30.80
31.38
31.25
30.34
28.60
26.09
23.03
19.79
16.76
14.18
12.16
10.64
9.51
8.65
7.97
7.35
6.64
5.74
4.62
3.34
2.04
0.84
-0.29
-1.45
-2.82
-4.48
-6.38
-8.35
-10.14
-11.57
-12.56
-13.12
-13.36
-13.39
-13.43
-13.66
-14.26
-15.30
-16.76
-18.44
-20.09
-21.43
-22.21
-22.25
-21.41
-19.69
-17.15
-14.01
-10.55
-7.08
-3.82
-0.85
1.85
4.39
6.80
9.02
10.86
12.10
12.55
12.22
11.26
9.97
8.68
7.65
7.01
6.78
6.85
7.14
7.52
7.94
8.36
8.74
9.07
9.32
9.47
9.53
9.53
9.54
9.60
9.68
9.67
9.41
8.81
7.84
6.56
5.04
3.33
1.42
-0.72
-3.06
-5.49
-7.87
-10.07
-12.12
-14.23
-16.66
-19.61
-23.09
-26.84
-30.35
-33.08
-34.54
-34.48
-32.89
-30.00
-26.19
-21.84
-17.27
-12.68
-8.20
-3.91
0.17
4.00
7.65
11.16
14.52
17.60
20.15
21.90
22.69
22.59
21.90
21.01
20.24
19.71
19.39
19.17
18.94
18.64
18.15
17.31
15.93
13.88
11.25
8.34
5.53
3.09
1.09
-0.68
-2.51
-4.66
-7.13
-9.76
-12.26
-14.39
-16.06
-17.32
-18.34
-19.36
-20.57
-22.09
-23.97
-26.07
-28.13
-29.76
-30.55
-30.17
-28.50
-25.63
-21.87
-17.54
-12.95
-8.26
-3.59
1.01
5.41
9.44
12.91
15.72
17.85
19.39
20.47
21.23
21.77
22.13
22.35
22.40
22.28
22.02
21.68
21.37
21.21
21.24
21.44
21.64
21.66
21.32
20.55
19.42
18.04
16.52
14.91
13.20
11.32
9.23
6.94
4.53
2.15
-0.10
-2.11
-3.91
-5.61
-7.35
-9.29
-11.57
-14.28
-17.44
-20.96
-24.63
-28.07
-30.76
-32.20
-32.02
-30.14
-26.75
-22.31
-17.32
-12.20
-7.17
-2.25
2.61
7.44
12.12
16.40
19.99
22.61
24.18
24.82
24.79
24.40
23.89
23.36
22.81
22.25
21.73
21.38
21.30
21.51
21.82
22.00
21.77
21.02
19.78
18.21
16.55
14.99
13.64
12.49
11.44
10.36
9.13
7.68
5.97
4.04
1.97
-0.13
-2.15
-3.99
-5.58
-6.96
-8.24
-9.56
-11.09
-12.96
-15.26
-17.99
-21.10
-24.35
-27.39
-29.73
-30.92
-30.64
-28.88
-25.87
-22.02
-17.70
-13.19
-8.65
-4.17
0.17
4.22
7.87
11.05
13.76
16.04
17.86
19.14
19.77
19.68
18.97
17.86
16.69
15.77
15.32
15.35
15.75
16.27
16.70
16.87
16.76
16.43
15.98
15.48
14.94
14.27
13.44
12.45
11.38
10.34
9.40
8.57
7.73
6.77
5.58
4.13
2.45
0.61
-1.27
-3.14
-4.97
-6.79
-8.68
-10.71
-12.95
-15.39
-18.03
-20.88
-23.93
-27.10
-30.16
-32.64
-34.03
-33.83
-31.88
-28.37
-23.82
-18.85
-13.96
-9.39
-5.09
-0.90
3.31
7.48
11.36
14.63
17.07
18.64
19.49
19.89
20.08
20.14
20.05
19.70
19.08
18.28
17.49
16.89
16.58
16.49
16.46
16.32
15.90
15.14
14.07
12.76
11.34
9.92
8.55
7.18
5.72
4.04
2.08
-0.12
-2.45
-4.76
-6.97
-9.09
-11.12
-13.06
-14.85
-16.46
-17.96
-19.51
-21.42
-23.90
-26.98
-30.37
-33.50
-35.76
-36.61
-35.81
-33.42
-29.77
-25.26
-20.27
-15.08
-9.86
-4.72
0.22
4.85
9.03
12.65
15.61
17.87
19.46
20.48
21.06
21.35
21.43
21.35
21.14
20.78
20.34
19.89
19.50
19.19
18.92
18.62
18.18
17.57
16.81
15.94
14.99
13.93
12.72
11.35
9.83
8.25
6.67
5.11
3.52
1.80
-0.15
-2.35
-4.76
-7.27
-9.74
-12.05
-14.12
-15.94
-17.58
-19.18
-20.95
-23.08
-25.65
-28.61
-31.66
-34.33
-36.07
-36.41
-35.13
-32.33
-28.41
-23.87
-19.15
-14.50
-9.97
-5.51
-1.11
3.14
7.06
10.50
13.31
15.45
16.86
17.54
17.53
16.95
16.07
15.24
14.71
14.60
14.84
15.22
15.52
15.61
15.46
15.13
14.68
14.14
13.50
12.72
11.75
10.54
9.09
7.47
5.79
4.17
2.70
1.37
0.12
-1.16
-2.55
-4.03
-5.57
-7.11
-8.67
-10.29
-12.02
-13.86
-15.73
-17.58
-19.42
-21.38
-23.63
-26.27
-29.24
-32.22
-34.71
-36.17
-36.16
-34.48
-31.27
-26.88
-21.85
-16.67
-11.68
-7.02
-2.64
1.55
5.56
9.33
12.66
15.40
17.45
18.83
19.61
19.92
19.88
19.60
19.16
18.64
18.12
17.70
17.49
17.54
17.80
18.18
18.49
18.54
18.24
17.61
16.71
15.62
14.39
13.03
11.57
10.04
8.48
6.90
5.23
3.41
1.38
-0.76
-2.90
-4.87
-6.62
-8.19
-9.68
-11.22
-12.92
-14.86
-17.16
-19.91
-23.12
-26.61
-29.95
-32.54
-33.76
-33.24
-30.93
-27.13
-22.39
-17.28
-12.21
-7.42
-2.93
1.29
5.25
8.89
12.02
14.50
16.21
17.17
17.48
17.36
16.97
16.44
15.83
15.17
14.56
14.12
13.97
14.15
14.55
15.01
15.29
15.25
14.86
14.20
13.38
12.48
11.52
10.47
9.31
8.09
6.84
5.64
4.50
3.39
2.25
1.01
-0.35
-1.82
-3.35
-4.87
-6.34
-7.75
-9.11
-10.46
-11.84
-13.31
-14.94
-16.90
-19.28
-22.13
-25.28
-28.32
-30.70
-31.84
-31.36
-29.15
-25.41
-20.56
-15.10
-9.48
-4.09
0.80
4.98
8.34
10.87
12.71
14.06
15.16
16.18
17.10
17.72
17.75
16.97
15.38
13.25
11.02
9.12
7.75
6.83
6.07
5.12
3.77
2.02
0.05
-1.97
-3.87
-5.60
-7.09
-8.23
-8.84
-8.76
-7.94
-6.57
-4.93
-3.40
-2.21
-1.38
-0.74
0.00
1.00
2.29
3.73
5.09
6.17
6.82
6.95
6.49
5.34
3.42
0.71
-2.74
-6.71
-10.80
-14.50
-17.27
-18.61
-18.26
-16.24
-12.85
-8.56
-3.86
0.88
5.47
9.85
14.07
18.12
21.95
25.42
28.35
30.60
32.09
32.86
33.00
32.66
32.01
31.20
30.36
29.60
29.01
28.59
28.23
27.79
27.06
25.87
24.14
21.94
19.38
16.65
13.90
11.23
8.70
6.30
3.98
1.67
-0.69
-3.15
-5.68
-8.24
-10.78
-13.27
-15.68
-17.99
-20.13
-22.08
-23.82
-25.40
-26.93
-28.56
-30.44
-32.62
-35.07
-37.58
-39.82
-41.37
-41.86
-41.04
-38.85
-35.42
-31.06
-26.08
-20.79
-15.43
-10.18
-5.17
-0.46
3.92
8.03
11.88
15.39
18.42
20.78
22.28
22.90
22.73
21.99
20.94
19.79
18.70
17.71
16.81
15.94
15.04
14.07
13.03
11.95
10.83
9.65
8.33
6.84
5.17
3.38
1.52
-0.40
-2.43
-4.66
-7.11
-9.74
-12.43
-15.01
-17.39
-19.52
-21.50
-23.48
-25.65
-28.15
-30.99
-33.98
-36.78
-38.90
-39.89
-39.46
-37.57
-34.39
-30.26
-25.52
-20.50
-15.43
-10.45
-5.64
-1.05
3.23
7.11
10.44
13.10
15.04
16.29
16.95
17.18
17.10
16.83
16.48
16.14
15.91
15.88
16.05
16.39
16.78
17.17
17.50
17.79
18.00
18.06
17.88
17.34
16.39
15.12
13.69
12.31
11.14
10.25
9.58
8.95
8.15
7.02
5.49
3.58
1.41
-0.89
-3.25
-5.64
-8.08
-10.59
-13.22
-15.99
-18.97
-22.17
-25.51
-28.75
-31.44
-33.11
-33.36
-32.02
-29.22
-25.36
-20.87
-16.16
-11.51
-7.02
-2.73
1.37
5.23
8.76
11.84
14.36
16.24
17.53
18.29
18.63
18.68
18.52
18.21
17.83
17.47
17.24
17.21
17.38
17.68
18.05
18.39
18.65
18.81
18.85
18.76
18.58
18.37
18.12
17.84
17.45
16.85
15.96
14.78
13.40
11.97
10.63
9.49
8.57
7.82
7.11
6.29
5.20
3.73
1.86
-0.36
-2.77
-5.23
-7.59
-9.77
-11.76
-13.60
-15.40
-17.33
-19.52
-22.03
-24.74
-27.35
-29.44
-30.58
-30.54
-29.29
-27.01
-23.98
-20.46
-16.63
-12.60
-8.45
-4.23
-0.06
3.92
7.51
10.52
12.79
14.27
15.02
15.22
15.05
14.67
14.20
13.68
13.20
12.82
12.65
12.73
13.04
13.51
14.01
14.44
14.70
14.74
14.53
14.16
13.76
13.49
13.44
13.59
13.78
13.81
13.53
12.91
12.04
11.09
10.17
9.36
8.69
8.13
7.61
7.00
6.16
4.93
3.23
1.12
-1.22
-3.53
-5.63
-7.41
-8.94
-10.34
-11.80
-13.47
-15.46
-17.80
-20.44
-23.24
-25.92
-28.09
-29.35
-29.38
-28.02
-25.40
-21.84
-17.77
-13.60
-9.65
-6.08
-2.91
-0.10
2.39
4.58
6.45
7.97
9.10
9.87
10.27
10.35
10.11
9.63
9.00
8.36
7.90
7.73
7.95
8.50
9.21
9.93
10.50
10.84
10.99
10.99
10.89
10.72
10.44
10.05
9.53
8.94
8.31
7.68
7.07
6.40
5.64
4.74
3.68
2.46
1.07
-0.53
-2.33
-4.33
-6.40
-8.42
-10.28
-11.92
-13.42
-14.87
-16.41
-18.13
-20.05
-22.12
-24.26
-26.27
-27.87
-28.70
-28.47
-27.00
-24.37
-20.90
-17.02
-13.14
-9.49
-6.10
-2.88
0.23
3.21
5.91
8.18
9.89
11.04
11.75
12.16
12.39
12.47
12.39
12.14
11.77
11.37
11.07
10.95
11.01
11.18
11.33
11.37
11.25
10.94
10.47
9.87
9.20
8.52
7.90
7.37
6.93
6.53
6.12
5.63
5.06
4.43
3.82
3.26
2.75
2.15
1.31
0.07
-1.60
-3.58
-5.64
-7.45
-8.83
-9.76
-10.43
-11.19
-12.37
-14.18
-16.63
-19.54
-22.63
-25.55
-27.94
-29.49
-29.98
-29.31
-27.60
-25.09
-22.10
-18.94
-15.83
-12.84
-9.93
-7.03
-4.12
-1.25
1.47
3.85
5.76
7.13
7.92
8.24
8.19
7.95
7.72
7.63
7.78
8.16
8.65
9.08
9.27
9.12
8.63
7.93
7.18
6.54
6.11
5.91
5.90
6.03
6.20
6.34
6.37
6.20
5.78
5.12
4.32
3.49
2.83
2.39
2.15
1.98
1.65
1.03
0.09
-1.11
-2.44
-3.79
-5.12
-6.45
-7.81
-9.20
-10.64
-12.21
-14.05
-16.29
-18.96
-21.88
-24.66
-26.77
-27.75
-27.39
-25.80
-23.30
-20.30
-17.12
-13.92
-10.73
-7.52
-4.38
-1.44
1.12
3.23
4.93
6.31
7.46
8.39
9.04
9.36
9.37
9.18
8.88
8.53
8.13
7.69
7.27
6.99
6.99
7.27
7.70
8.07
8.20
8.03
7.59
6.95
6.11
5.06
3.77
2.30
0.79
-0.63
-1.91
-3.15
-4.50
-6.08
-7.91
-9.89
-11.84
-13.60
-15.11
-16.39
-17.56
-18.82
-20.34
-22.23
-24.49
-26.92
-29.22
-31.02
-31.98
-31.85
-30.51
-28.04
-24.62
-20.56
-16.18
-11.78
-7.61
-3.80
-0.39
2.66
5.43
8.04
10.49
12.74
14.64
15.99
16.68
16.71
16.21
15.46
14.71
14.15
13.90
13.95
14.31
14.93
15.72
16.54
17.18
17.46
17.28
16.72
15.90
14.97
13.96
12.82
11.45
9.83
8.08
6.40
4.96
3.83
2.89
1.97
0.86
-0.58
-2.41
-4.58
-7.02
-9.62
-12.26
-14.81
-17.22
-19.46
-21.67
-24.02
-26.66
-29.60
-32.57
-35.16
-36.85
-37.22
-36.10
-33.60
-30.04
-25.84
-21.38
-16.89
-12.53
-8.35
-4.38
-0.61
2.95
6.31
9.40
12.14
14.40
16.08
17.21
17.85
18.13
18.18
18.14
18.10
18.17
18.46
18.99
19.73
20.54
21.22
21.62
21.63
21.24
20.50
19.51
18.40
17.26
16.18
15.18
14.21
13.14
11.87
10.34
8.63
6.94
5.47
4.37
3.60
2.94
2.04
0.60
-1.52
-4.17
-7.01
-9.64
-11.80
-13.52
-15.05
-16.77
-19.02
-21.94
-25.42
-29.16
-32.74
-35.69
-37.58
-38.11
-37.12
-34.73
-31.19
-26.88
-22.17
-17.31
-12.43
-7.55
-2.65
2.24
7.00
11.49
15.51
18.85
21.37
23.02
23.84
24.03
23.82
23.47
23.16
23.00
23.03
23.23
23.58
24.01
24.43
24.73
24.82
24.65
24.28
23.78
23.26
22.76
22.28
21.74
21.06
20.18
19.10
17.85
16.50
15.13
13.78
12.51
11.27
9.97
8.46
6.60
4.32
1.62
-1.35
-4.39
-7.29
-9.93
-12.25
-14.36
-16.43
-18.68
-21.28
-24.32
-27.69
-31.12
-34.22
-36.51
-37.58
-37.09
-34.98
-31.40
-26.73
-21.48
-16.11
-10.97
-6.15
-1.62
2.75
7.00
11.07
14.71
17.66
19.73
20.92
21.41
21.44
21.28
21.09
20.86
20.53
20.01
19.31
18.54
17.84
17.23
16.62
15.83
14.65
13.04
11.13
9.11
7.18
5.33
3.47
1.45
-0.77
-3.07
-5.22
-7.06
-8.63
-10.19
-12.03
-14.46
-17.57
-21.26
-25.35
-29.67
-34.09
-38.54
-42.94
-47.16
-51.08
-54.61
-57.69
-60.26
-62.18
-63.19
-63.00
-61.37
-58.28
-53.96
-48.79
-43.19
-37.46
-31.75
-26.17
-20.91
-16.24
-12.43
-9.55
-7.36
-5.36
-3.00
0.06
3.89
8.30
13.09
18.22
23.83
30.14
37.30
45.26
53.70
62.18
70.21
77.28
82.95
86.86
88.81
88.75
86.88
83.47
78.87
73.42
67.43
61.23
55.17
49.52
44.39
39.67
35.12
30.47
25.54
20.32
14.96
9.72
4.78
0.27
-3.85
-7.69
-11.48
-15.37
-19.47
-23.69
-27.80
-31.40
-34.07
-35.48
-35.43
-33.91
-31.07
-27.20
-22.65
-17.75
-12.76
-7.85
-3.08
1.53
5.90
9.91
13.35
16.01
17.80
18.76
19.11
19.12
18.98
18.76
18.43
17.87
17.07
16.14
15.24
14.58
14.18
13.95
13.68
13.17
12.31
11.15
9.80
8.43
7.11
5.90
4.79
3.76
2.78
1.85
0.97
0.15
-0.62
-1.30
-1.94
-2.60
-3.39
-4.43
-5.76
-7.34
-9.10
-10.95
-12.85
-14.87
-17.06
-19.46
-22.10
-24.94
-28.04
-31.40
-35.02
-38.76
-42.26
-45.03
-46.54
-46.48
-44.83
-41.89
-38.09
-33.89
-29.54
-25.13
-20.61
-15.95
-11.23
-6.59
-2.21
1.79
5.32
8.37
10.88
12.80
14.06
14.67
14.71
14.38
13.93
13.57
13.43
13.54
13.83
14.20
14.54
14.83
15.02
15.13
15.15
15.04
14.77
14.33
13.76
13.12
12.49
11.84
11.11
10.21
9.14
7.99
6.94
6.17
5.78
5.65
5.53
5.15
4.33
3.07
1.53
-0.07
-1.60
-3.02
-4.39
-5.80
-7.33
-9.04
-11.01
-13.32
-16.07
-19.23
-22.62
-25.85
-28.40
-29.83
-29.89
-28.59
-26.17
-23.01
-19.41
-15.61
-11.69
-7.68
-3.59
0.51
4.48
8.15
11.35
13.97
16.01
17.49
18.46
18.99
19.14
19.01
18.70
18.35
18.06
17.90
17.90
18.07
18.36
18.67
18.88
18.86
18.51
17.85
16.96
16.00
15.14
14.47
14.02
13.70
13.41
13.04
12.49
11.71
10.71
9.52
8.23
6.91
5.56
4.15
2.61
0.89
-1.00
-3.00
-5.02
-7.02
-9.02
-11.11
-13.37
-15.84
-18.48
-21.18
-23.91
-26.63
-29.36
-32.01
-34.37
-36.03
-36.56
-35.69
-33.45
-30.14
-26.23
-22.10
-17.96
-13.82
-9.61
-5.34
-1.19
2.63
5.85
8.37
10.19
11.44
12.26
12.75
13.01
13.12
13.20
13.36
13.68
14.13
14.57
14.82
14.69
14.15
13.25
12.15
10.99
9.90
8.91
7.99
7.10
6.15
5.07
3.86
2.52
1.14
-0.18
-1.39
-2.50
-3.58
-4.74
-6.06
-7.57
-9.20
-10.84
-12.41
-13.86
-15.22
-16.58
-18.06
-19.80
-21.86
-24.26
-26.82
-29.23
-31.04
-31.83
-31.30
-29.43
-26.41
-22.63
-18.48
-14.25
-10.10
-6.07
-2.20
1.46
4.79
7.67
10.08
12.06
13.76
15.25
16.57
17.62
18.29
18.52
18.35
17.95
17.50
17.19
17.10
17.23
17.49
17.81
18.11
18.30
18.31
18.08
17.53
16.66
15.53
14.28
13.00
11.75
10.53
9.29
8.01
6.76
5.56
4.50
3.53
2.59
1.53
0.28
-1.13
-2.60
-4.00
-5.28
-6.45
-7.63
-8.93
-10.46
-12.25
-14.35
-16.81
-19.63
-22.72
-25.87
-28.69
-30.75
-31.66
-31.20
-29.40
-26.46
-22.72
-18.52
-14.13
-9.75
-5.49
-1.44
2.36
5.87
9.01
11.76
14.09
16.03
17.62
18.87
19.73
20.16
20.14
19.69
19.01
18.30
17.79
17.63
17.82
18.27
18.82
19.30
19.54
19.44
18.95
18.11
17.06
16.00
15.09
14.39
13.85
13.42
12.96
12.46
11.88
11.19
10.36
9.33
8.06
6.57
4.92
3.17
1.35
-0.57
-2.66
-4.98
-7.52
-10.20
-12.85
-15.34
-17.59
-19.68
-21.74
-23.95
-26.40
-29.01
-31.50
-33.46
-34.46
-34.21
-32.62
-29.84
-26.17
-21.98
-17.59
-13.21
-8.97
-4.94
-1.23
2.11
4.97
7.36
9.36
11.07
12.54
13.78
14.72
15.27
15.47
15.45
15.45
15.66
16.20
16.97
17.82
18.50
18.88
18.91
18.64
18.16
17.59
16.98
16.35
15.70
15.04
14.35
13.65
12.91
12.10
11.17
10.05
8.73
7.26
5.74
4.31
3.04
1.92
0.84
-0.36
-1.84
-3.69
-5.88
-8.23
-10.51
-12.50
-14.09
-15.34
-16.48
-17.80
-19.57
-21.85
-24.50
-27.21
-29.55
-31.15
-31.73
-31.17
-29.48
-26.79
-23.34
-19.45
-15.46
-11.64
-8.19
-5.13
-2.37
0.23
2.75
5.15
7.24
8.82
9.75
10.10
10.11
10.07
10.22
10.59
11.05
11.44
11.65
11.69
11.70
11.74
11.81
11.76
11.46
10.86
10.06
9.25
8.61
8.13
7.65
6.95
5.89
4.53
3.06
1.75
0.69
-0.16
-1.03
-2.15
-3.66
-5.48
-7.42
-9.22
-10.71
-11.90
-12.90
-13.92
-15.15
-16.73
-18.70
-20.96
-23.33
-25.47
-27.05
-27.73
-27.34
-25.90
-23.58
-20.63
-17.31
-13.79
-10.16
-6.53
-2.94
0.53
3.82
6.87
9.61
11.92
13.67
14.73
15.05
14.80
14.23
13.69
13.43
13.49
13.78
14.12
14.36
14.48
14.57
14.71
14.96
15.27
15.53
15.59
15.40
14.98
14.41
13.82
13.28
12.80
12.30
11.67
10.82
9.79
8.69
7.69
6.84
6.06
5.16
3.95
2.35
0.45
-1.55
-3.45
-5.15
-6.64
-8.04
-9.48
-11.15
-13.14
-15.52
-18.22
-21.05
-23.67
-25.68
-26.70
-26.53
-25.14
-22.74
-19.67
-16.25
-12.73
-9.24
-5.80
-2.42
0.90
4.04
6.87
9.26
11.13
12.51
13.44
14.02
14.33
14.44
14.42
14.34
14.25
14.21
14.29
14.52
14.95
15.55
16.23
16.82
17.14
17.09
16.66
15.98
15.21
14.49
13.88
13.34
12.77
12.11
11.29
10.32
9.22
8.04
6.88
5.80
4.89
4.10
3.32
2.32
0.90
-1.03
-3.39
-5.94
-8.39
-10.49
-12.15
-13.45
-14.62
-15.95
-17.67
-19.91
-22.64
-25.68
-28.72
-31.37
-33.21
-33.91
-33.25
-31.22
-28.01
-23.94
-19.44
-14.91
-10.62
-6.73
-3.22
-0.03
2.95
5.76
8.41
10.80
12.83
14.41
15.47
16.06
16.31
16.39
16.47
16.63
16.84
17.03
17.10
17.03
16.81
16.50
16.08
15.50
14.67
13.52
12.10
10.51
8.96
7.58
6.44
5.48
4.58
3.62
2.53
1.33
0.09
-1.13
-2.30
-3.48
-4.74
-6.15
-7.68
-9.27
-10.78
-12.11
-13.25
-14.22
-15.15
-16.17
-17.42
-18.99
-20.98
-23.33
-25.88
-28.27
-30.06
-30.83
-30.27
-28.37
-25.31
-21.48
-17.26
-12.94
-8.71
-4.64
-0.80
2.77
6.00
8.84
11.25
13.20
14.67
15.66
16.16
16.25
16.07
15.81
15.65
15.72
16.04
16.53
17.04
17.45
17.67
17.69
17.52
17.25
16.97
16.76
16.69
16.77
16.94
17.08
17.07
16.79
16.24
15.49
14.66
13.89
13.21
12.57
11.91
11.15
10.31
9.41
8.44
7.31
5.90
4.08
1.91
-0.50
-2.90
-5.12
-7.09
-8.84
-10.51
-12.23
-14.09
-16.17
-18.50
-21.10
-23.88
-26.58
-28.81
-30.12
-30.19
-28.90
-26.41
-23.07
-19.29
-15.43
-11.69
-8.17
-4.92
-1.90
0.89
3.46
5.79
7.83
9.56
10.93
11.98
12.74
13.30
13.71
14.02
14.24
14.41
14.59
14.85
15.21
15.59
15.86
15.95
15.83
15.59
15.36
15.20
15.13
15.04
14.86
14.51
14.02
13.44
12.84
12.19
11.46
10.64
9.74
8.79
7.81
6.76
5.59
4.23
2.74
1.18
-0.34
-1.76
-3.09
-4.40
-5.71
-7.05
-8.41
-9.84
-11.40
-13.14
-15.05
-17.04
-18.97
-20.79
-22.56
-24.41
-26.41
-28.50
-30.31
-31.40
-31.35
-29.98
-27.40
-23.96
-20.11
-16.23
-12.56
-9.19
-6.11
-3.27
-0.60
1.92
4.28
6.47
8.45
10.17
11.54
12.48
12.91
12.84
12.36
11.70
11.13
10.90
11.14
11.79
12.63
13.37
13.76
13.65
13.10
12.28
11.44
10.78
10.35
10.07
9.78
9.30
8.55
7.54
6.37
5.14
3.90
2.68
1.48
0.30
-0.86
-2.03
-3.25
-4.61
-6.14
-7.86
-9.71
-11.58
-13.39
-15.10
-16.71
-18.30
-20.00
-21.94
-24.17
-26.55
-28.72
-30.19
-30.49
-29.40
-27.01
-23.72
-20.02
-16.33
-12.86
-9.66
-6.67
-3.82
-1.09
1.53
4.02
6.36
8.47
10.23
11.49
12.17
12.30
12.07
11.68
11.36
11.20
11.22
11.35
11.50
11.61
11.65
11.64
11.56
11.44
11.25
10.99
10.69
10.38
10.06
9.67
9.10
8.21
6.92
5.27
3.47
1.80
0.48
-0.38
-0.88
-1.27
-1.80
-2.66
-3.90
-5.41
-7.04
-8.66
-10.23
-11.80
-13.47
-15.35
-17.47
-19.82
-22.28
-24.72
-26.95
-28.76
-29.92
-30.18
-29.36
-27.40
-24.44
-20.80
-16.87
-13.02
-9.48
-6.32
-3.47
-0.85
1.62
3.91
5.92
7.54
8.74
9.56
10.10
10.50
10.89
11.24
11.51
11.62
11.55
11.39
11.29
11.39
11.73
12.22
12.70
12.96
12.90
12.53
11.96
11.35
10.83
10.46
10.20
9.95
9.56
8.90
7.95
6.76
5.50
4.36
3.48
2.89
2.51
2.14
1.62
0.76
-0.53
-2.24
-4.29
-6.49
-8.65
-10.59
-12.29
-13.86
-15.50
-17.46
-19.82
-22.51
-25.27
-27.69
-29.29
-29.70
-28.75
-26.46
-23.16
-19.30
-15.35
-11.66
-8.37
-5.41
-2.64
0.06
2.72
5.25
7.56
9.60
11.34
12.84
14.10
15.14
15.91
16.41
16.64
16.69
16.71
16.84
17.19
17.76
18.43
19.00
19.27
19.15
18.66
17.95
17.18
16.44
15.74
14.98
14.06
12.93
11.60
10.12
8.56
6.97
5.41
3.93
2.58
1.34
0.14
-1.14
-2.64
-4.41
-6.40
-8.44
-10.37
-12.13
-13.75
-15.40
-17.28
-19.56
-22.27
-25.34
-28.58
-31.71
-34.46
-36.50
-37.53
-37.31
-35.73
-32.88
-29.03
-24.59
-19.93
-15.30
-10.82
-6.50
-2.33
1.65
5.32
8.54
11.24
13.42
15.11
16.37
17.28
17.89
18.21
18.27
18.07
17.65
17.09
16.54
16.19
16.16
16.40
16.76
16.98
16.85
16.35
15.60
14.80
14.09
13.44
12.73
11.77
10.43
8.74
6.84
4.95
3.25
1.80
0.55
-0.67
-2.03
-3.64
-5.47
-7.40
-9.29
-11.05
-12.73
-14.48
-16.50
-18.94
-21.87
-25.16
-28.49
-31.42
-33.40
-34.02
-33.08
-30.69
-27.22
-23.14
-18.80
-14.40
-9.99
-5.59
-1.28
2.74
6.28
9.23
11.64
13.64
15.35
16.83
18.03
18.89
19.37
19.54
19.54
19.54
19.63
19.85
20.16
20.51
20.82
21.04
21.11
20.98
20.62
20.03
19.25
18.40
17.57
16.80
16.07
15.32
14.45
13.41
12.22
10.97
9.76
8.62
7.57
6.51
5.38
4.11
2.69
1.17
-0.43
-2.07
-3.77
-5.53
-7.37
-9.30
-11.37
-13.72
-16.49
-19.76
-23.44
-27.18
-30.48
-32.78
-33.75
-33.24
-31.38
-28.42
-24.60
-20.18
-15.37
-10.47
-5.74
-1.40
2.43
5.80
8.81
11.56
14.05
16.21
17.95
19.19
19.96
20.34
20.50
20.53
20.54
20.55
20.53
20.43
20.19
19.80
19.34
18.94
18.68
18.62
18.64
18.59
18.33
17.79
17.03
16.21
15.45
14.80
14.21
13.54
12.69
11.63
10.40
9.16
8.00
6.98
6.07
5.17
4.14
2.88
1.35
-0.43
-2.40
-4.50
-6.65
-8.86
-11.12
-13.46
-15.92
-18.58
-21.48
-24.62
-27.88
-31.05
-33.81
-35.80
-36.71
-36.38
-34.76
-31.99
-28.30
-24.00
-19.40
-14.78
-10.35
-6.18
-2.29
1.38
4.85
8.10
10.99
13.45
15.37
16.80
17.79
18.46
18.93
19.30
19.65
20.04
20.46
20.88
21.22
21.41
21.41
21.17
20.71
20.02
19.10
17.99
16.73
15.38
13.94
12.35
10.49
8.32
5.86
3.32
0.95
-1.05
-2.63
-3.91
-5.15
-6.58
-8.33
-10.32
-12.41
-14.36
-16.05
-17.48
-18.78
-20.23
-22.08
-24.50
-27.44
-30.62
-33.57
-35.73
-36.62
-35.97
-33.76
-30.21
-25.68
-20.58
-15.28
-10.04
-4.99
-0.16
4.48
8.96
13.19
17.01
20.24
22.69
24.33
25.24
25.60
25.64
25.54
25.42
25.31
25.20
25.04
24.82
24.51
24.07
23.46
22.60
21.42
19.89
18.05
16.04
14.04
12.17
10.45
8.78
7.01
5.05
2.92
0.68
-1.57
-3.80
-6.06
-8.44
-10.97
-13.62
-16.26
-18.72
-20.91
-22.81
-24.56
-26.36
-28.45
-31.03
-34.13
-37.59
-41.03
-43.90
-45.64
-45.85
-44.35
-41.27
-36.92
-31.77
-26.24
-20.69
-15.31
-10.15
-5.19
-0.33
4.46
9.11
13.43
17.18
20.10
22.11
23.23
23.66
23.62
23.32
22.92
22.52
22.18
21.96
21.86
21.81
21.69
21.37
20.77
19.82
18.57
17.06
15.33
13.47
11.58
9.80
8.24
6.91
5.69
4.38
2.82
1.01
-0.89
-2.63
-4.00
-4.98
-5.79
-6.75
-8.11
-9.94
-12.08
-14.23
-16.11
-17.62
-18.81
-19.93
-21.26
-23.03
-25.30
-27.96
-30.68
-33.01
-34.47
-34.68
-33.49
-30.98
-27.42
-23.21
-18.73
-14.25
-9.92
-5.80
-1.92
1.66
4.84
7.52
9.64
11.22
12.31
12.99
13.34
13.41
13.22
12.86
12.43
12.04
11.79
11.75
11.91
12.23
12.65
13.14
13.67
14.21
14.75
15.25
15.65
15.92
16.01
15.89
15.55
15.04
14.37
13.58
12.70
11.81
10.98
10.29
9.76
9.37
8.99
8.49
7.70
6.58
5.11
3.34
1.37
-0.70
-2.80
-4.83
-6.78
-8.65
-10.50
-12.45
-14.59
-17.04
-19.86
-23.08
-26.57
-29.99
-32.84
-34.48
-34.39
-32.35
-28.57
-23.61
-18.15
-12.81
-7.90
-3.48
0.56
4.29
7.73
10.80
13.40
15.52
17.17
18.39
19.23
19.74
19.98
20.05
20.03
19.98
19.90
19.77
19.61
19.44
19.31
19.25
19.24
19.19
19.01
18.65
18.12
17.48
16.77
15.97
15.01
13.83
12.38
10.71
8.93
7.19
5.59
4.20
2.97
1.80
0.52
-0.99
-2.84
-5.00
-7.34
-9.69
-11.87
-13.79
-15.48
-17.06
-18.70
-20.58
-22.79
-25.36
-28.20
-31.09
-33.78
-35.91
-37.18
-37.31
-36.18
-33.83
-30.46
-26.37
-21.89
-17.26
-12.64
-8.11
-3.69
0.53
4.44
7.86
10.62
12.62
13.85
14.41
14.53
14.42
14.29
14.31
14.55
15.09
15.94
17.07
18.39
19.74
20.92
21.76
22.13
22.02
21.46
20.58
19.53
18.44
17.51
16.85
16.49
16.35
16.22
15.89
15.18
14.09
12.71
11.22
9.75
8.32
6.87
5.31
3.58
1.75
-0.08
-1.75
-3.21
-4.53
-5.88
-7.43
-9.29
-11.50
-13.98
-16.61
-19.29
-21.92
-24.33
-26.26
-27.38
-27.38
-26.15
-23.81
-20.70
-17.20
-13.60
-10.03
-6.43
-2.71
1.18
5.17
9.07
12.65
15.71
18.12
19.87
21.03
21.75
22.24
22.65
23.13
23.73
24.47
25.26
26.00
26.56
26.88
26.97
26.87
26.67
26.41
26.08
25.59
24.87
23.89
22.72
21.48
20.28
19.14
17.98
16.64
15.00
13.04
10.85
8.59
6.41
4.33
2.27
0.08
-2.36
-5.06
-7.94
-10.83
-13.61
-16.18
-18.55
-20.74
-22.88
-25.09
-27.51
-30.28
-33.44
-36.89
-40.34
-43.40
-45.59
-46.50
-45.91
-43.85
-40.59
-36.55
-32.17
-27.81
-23.65
-19.70
-15.87
-12.11
-8.43
-4.94
-1.75
1.06
3.51
5.65
7.55
9.23
10.62
11.68
12.37
12.77
13.02
13.28
13.66
14.15
14.66
15.02
15.10
14.79
14.15
13.28
12.36
11.55
10.96
10.53
10.15
9.65
8.90
7.89
6.68
5.42
4.22
3.11
2.03
0.87
-0.47
-2.07
-3.93
-6.00
-8.18
-10.39
-12.55
-14.65
-16.72
-18.79
-20.94
-23.18
-25.50
-27.87
-30.22
-32.41
-34.27
-35.57
-36.02
-35.45
-33.79
-31.17
-27.81
-24.01
-19.98
-15.81
-11.59
-7.36
-3.26
0.52
3.71
6.14
7.72
8.52
8.75
8.68
8.58
8.62
8.87
9.32
9.88
10.48
11.06
11.56
11.91
12.01
11.80
11.28
10.57
9.83
9.22
8.85
8.71
8.68
8.60
8.25
7.49
6.29
4.78
3.20
1.81
0.74
-0.08
-0.82
-1.75
-3.03
-4.69
-6.60
-8.61
-10.61
-12.59
-14.61
-16.76
-19.12
-21.64
-24.17
-26.40
-27.97
-28.54
-27.89
-26.04
-23.19
-19.67
-15.84
-11.97
-8.24
-4.69
-1.35
1.78
4.66
7.27
9.57
11.53
13.09
14.24
14.93
15.16
14.97
14.49
13.88
13.38
13.13
13.18
13.43
13.70
13.84
13.79
13.62
13.48
13.49
13.64
13.80
13.85
13.65
13.23
12.66
12.00
11.26
10.39
9.36
8.23
7.17
6.35
5.88
5.69
5.58
5.29
4.57
3.34
1.67
-0.26
-2.25
-4.15
-5.92
-7.64
-9.38
-11.20
-13.06
-14.90
-16.67
-18.40
-20.15
-21.97
-23.79
-25.37
-26.39
-26.57
-25.77
-24.05
-21.61
-18.70
-15.56
-12.35
-9.16
-6.07
-3.07
-0.15
2.70
5.38
7.78
9.66
10.87
11.39
11.33
10.92
10.40
9.93
9.60
9.42
9.41
9.62
10.08
10.77
11.59
12.37
12.94
13.18
13.10
12.77
12.31
11.86
11.49
11.25
11.14
11.14
11.19
11.20
11.05
10.64
9.91
8.92
7.81
6.77
5.96
5.43
5.13
4.89
4.53
3.87
2.85
1.45
-0.26
-2.18
-4.17
-6.10
-7.85
-9.42
-10.93
-12.66
-14.89
-17.75
-21.15
-24.65
-27.65
-29.59
-30.13
-29.30
-27.35
-24.66
-21.57
-18.23
-14.73
-11.14
-7.58
-4.24
-1.30
1.16
3.17
4.86
6.36
7.72
8.92
9.83
10.37
10.48
10.24
9.82
9.44
9.35
9.65
10.35
11.29
12.28
13.12
13.69
14.00
14.10
14.04
13.82
13.38
12.76
11.99
11.24
10.61
10.20
9.94
9.75
9.46
9.00
8.32
7.43
6.33
5.03
3.54
1.91
0.21
-1.45
-2.98
-4.32
-5.50
-6.60
-7.79
-9.25
-11.15
-13.55
-16.41
-19.55
-22.66
-25.36
-27.26
-28.07
-27.62
-25.93
-23.23
-19.92
-16.42
-13.11
-10.16
-7.58
-5.21
-2.91
-0.61
1.60
3.56
5.09
6.11
6.72
7.05
7.27
7.48
7.66
7.78
7.82
7.87
8.01
8.32
8.81
9.37
9.83
10.08
10.09
9.92
9.71
9.54
9.44
9.35
9.19
8.92
8.51
7.95
7.24
6.35
5.24
3.89
2.33
0.62
-1.18
-2.99
-4.77
-6.49
-8.13
-9.69
-11.22
-12.77
-14.48
-16.49
-18.87
-21.58
-24.43
-27.09
-29.20
-30.44
-30.57
-29.56
-27.51
-24.66
-21.29
-17.68
-13.96
-10.22
-6.48
-2.78
0.79
4.07
6.85
8.97
10.35
11.04
11.22
11.14
11.01
10.96
11.03
11.16
11.30
11.41
11.52
11.68
11.91
12.16
12.36
12.45
12.41
12.28
12.16
12.11
12.18
12.33
12.49
12.57
12.46
12.13
11.58
10.88
10.14
9.41
8.74
8.06
7.26
6.26
5.01
3.52
1.84
0.05
-1.85
-3.84
-5.87
-7.88
-9.76
-11.47
-13.08
-14.78
-16.78
-19.27
-22.28
-25.58
-28.77
-31.34
-32.87
-33.10
-32.04
-29.85
-26.80
-23.16
-19.18
-15.06
-10.98
-7.11
-3.59
-0.45
2.31
4.76
6.98
9.00
10.78
12.30
13.55
14.53
15.30
15.91
16.42
16.89
17.35
17.83
18.33
18.87
19.39
19.84
20.13
20.16
19.89
19.30
18.49
17.62
16.83
16.24
15.85
15.55
15.23
14.79
14.20
13.48
12.70
11.84
10.87
9.78
8.57
7.31
6.00
4.66
3.22
1.64
-0.10
-1.97
-3.87
-5.75
-7.58
-9.37
-11.20
-13.14
-15.29
-17.72
-20.40
-23.22
-25.90
-28.02
-29.15
-28.97
-27.39
-24.59
-20.92
-16.78
-12.52
-8.29
-4.16
-0.13
3.77
7.45
10.79
13.73
16.20
18.24
19.87
21.10
21.91
22.31
22.36
22.16
21.89
21.68
21.64
21.75
21.92
22.02
21.92
21.54
20.85
19.87
18.66
17.29
15.86
14.44
13.07
11.76
10.44
9.03
7.48
5.79
4.02
2.21
0.37
-1.52
-3.48
-5.50
-7.50
-9.39
-11.13
-12.74
-14.31
-15.92
-17.66
-19.55
-21.61
-23.84
-26.14
-28.27
-29.90
-30.67
-30.33
-28.80
-26.24
-22.94
-19.20
-15.23
-11.16
-7.06
-3.01
0.85
4.36
7.38
9.83
11.75
13.19
14.24
14.97
15.44
15.70
15.80
15.80
15.77
15.80
15.95
16.23
16.58
16.91
17.13
17.17
17.03
16.72
16.28
15.70
14.96
14.04
12.95
11.76
10.53
9.33
8.19
7.09
6.03
5.02
4.04
3.03
1.86
0.31
-1.80
-4.54
-7.84
-11.37
-14.74
-17.48
-19.27
-19.93
-19.52
-18.20
-16.20
-13.78
-11.13
-8.43
-5.80
-3.35
-1.15
0.77
2.34
3.53
4.29
4.61
4.52
4.12
3.59
3.13
2.91
3.03
3.49
4.18
4.91
5.50
5.81
5.80
5.49
4.97
4.30
3.51
2.57
1.46
0.18
-1.24
-2.76
-4.36
-5.98
-7.61
-9.20
-10.74
-12.28
-13.88
-15.68
-17.78
-20.20
-22.89
-25.66
-28.26
-30.34
-31.56
-31.63
-30.40
-27.91
-24.45
-20.40
-16.17
-12.07
-8.25
-4.68
-1.27
2.05
5.27
8.26
10.82
12.77
14.03
14.64
14.73
14.46
13.98
13.42
12.86
12.39
12.12
12.11
12.35
12.77
13.24
13.61
13.78
13.70
13.37
12.80
12.05
11.16
10.19
9.12
7.91
6.48
4.81
2.94
1.00
-0.83
-2.43
-3.79
-5.03
-6.32
-7.83
-9.64
-11.73
-14.03
-16.47
-19.07
-21.85
-24.77
-27.67
-30.27
-32.17
-33.06
-32.79
-31.40
-29.08
-26.05
-22.47
-18.44
-14.07
-9.46
-4.77
-0.11
4.42
8.79
12.92
16.67
19.84
22.28
23.94
24.93
25.46
25.74
25.91
26.00
25.99
25.80
25.42
24.86
24.13
23.27
22.29
21.24
20.16
19.11
18.11
17.17
16.25
15.29
14.25
13.08
11.78
10.37
8.90
7.44
6.06
4.81
3.72
2.76
1.83
0.84
-0.32
-1.72
-3.33
-5.11
-7.00
-8.93
-10.86
-12.78
-14.67
-16.58
-18.54
-20.61
-22.87
-25.31
-27.87
-30.38
-32.61
-34.25
-35.00
-34.63
-33.05
-30.36
-26.79
-22.73
-18.57
-14.64
-11.04
-7.73
-4.51
-1.21
2.19
5.54
8.53
10.88
12.45
13.34
13.74
13.88
13.88
13.71
13.30
12.61
11.79
11.04
10.64
10.66
11.03
11.52
11.88
11.95
11.67
11.14
10.44
9.70
8.96
8.23
7.51
6.79
6.06
5.34
4.58
3.74
2.75
1.52
0.05
-1.62
-3.34
-4.93
-6.28
-7.42
-8.51
-9.75
-11.28
-13.08
-15.03
-16.98
-18.77
-20.36
-21.76
-23.01
-24.18
-25.37
-26.70
-28.28
-30.12
-32.06
-33.75
-34.76
-34.69
-33.39
-30.91
-27.51
-23.51
-19.18
-14.73
-10.33
-6.09
-2.15
1.39
4.49
7.17
9.45
11.33
12.73
13.56
13.81
13.59
13.12
12.69
12.51
12.63
13.01
13.54
14.14
14.80
15.53
16.35
17.21
18.00
18.60
18.93
18.97
18.76
18.35
17.83
17.22
16.55
15.83
15.09
14.35
13.64
12.97
12.30
11.59
10.80
9.90
8.95
8.02
7.19
6.49
5.88
5.24
4.44
3.40
2.15
0.84
-0.43
-1.59
-2.71
-3.91
-5.34
-7.10
-9.19
-11.52
-13.92
-16.09
-17.69
-18.34
-17.76
-15.90
-12.92
-9.20
-5.21
-1.33
2.24
5.42
8.21
10.65
12.73
14.44
15.81
16.88
17.76
18.49
19.09
19.52
19.75
19.74
19.53
19.19
18.83
18.51
18.23
17.95
17.57
17.01
16.28
15.44
14.60
13.82
13.12
12.43
11.69
10.81
9.75
8.50
7.09
5.59
4.09
2.70
1.45
0.30
-0.84
-2.12
-3.63
-5.37
-7.28
-9.22
-11.04
-12.64
-14.01
-15.18
-16.27
-17.43
-18.80
-20.48
-22.45
-24.57
-26.57
-28.09
-28.81
-28.46
-26.99
-24.50
-21.30
-17.73
-14.11
-10.65
-7.42
-4.46
-1.77
0.63
2.69
4.37
5.71
6.78
7.68
8.50
9.26
9.93
10.46
10.82
10.97
10.93
10.73
10.42
10.08
9.77
9.53
9.36
9.24
9.14
9.02
8.89
8.74
8.56
8.28
7.88
7.35
6.74
6.11
5.49
4.88
4.20
3.40
2.47
1.45
0.41
-0.56
-1.45
-2.27
-3.07
-3.88
-4.72
-5.63
-6.64
-7.79
-9.09
-10.55
-12.17
-13.99
-16.06
-18.38
-20.82
-23.10
-24.81
-25.60
-25.20
-23.54
-20.76
-17.10
-12.91
-8.53
-4.37
-0.72
2.23
4.49
6.26
7.85
9.51
11.36
13.31
15.16
16.70
17.81
18.50
18.89
19.10
19.27
19.49
19.81
20.22
20.71
21.16
21.50
21.61
21.43
20.93
20.12
19.08
17.88
16.62
15.38
14.19
13.07
12.03
11.01
9.98
8.86
7.61
6.26
4.87
3.54
2.36
1.30
0.25
-0.91
-2.31
-4.00
-5.92
-7.99
-10.15
-12.35
-14.56
-16.73
-18.87
-21.07
-23.42
-26.07
-29.01
-32.07
-34.83
-36.81
-37.56
-36.88
-34.83
-31.72
-27.96
-23.91
-19.87
-15.95
-12.21
-8.65
-5.27
-2.06
0.96
3.81
6.45
8.84
10.89
12.46
13.48
13.91
13.86
13.50
13.06
12.78
12.78
13.13
13.82
14.74
15.70
16.44
16.75
16.51
15.75
14.68
13.54
12.54
11.74
11.05
10.30
9.33
8.08
6.64
5.18
3.86
2.75
1.82
0.87
-0.30
-1.87
-3.87
-6.18
-8.62
-10.98
-13.19
-15.25
-17.29
-19.47
-21.89
-24.63
-27.65
-30.85
-33.99
-36.74
-38.72
-39.51
-38.87
-36.73
-33.30
-28.94
-24.14
-19.29
-14.70
-10.49
-6.69
-3.20
0.05
3.13
6.06
8.74
11.07
12.94
14.32
15.24
15.78
16.10
16.34
16.61
16.99
17.49
18.12
18.80
19.38
19.71
19.64
19.12
18.21
17.08
15.93
14.87
13.88
12.86
11.65
10.15
8.36
6.39
4.35
2.31
0.29
-1.77
-3.87
-5.98
-8.06
-10.09
-12.13
-14.33
-16.87
-19.85
-23.30
-27.13
-31.21
-35.30
-39.08
-42.15
-44.06
-44.45
-43.16
-40.31
-36.21
-31.30
-25.98
-20.49
-15.01
-9.61
-4.39
0.57
5.16
9.33
13.01
16.15
18.69
20.59
21.87
22.65
23.11
23.45
23.84
24.38
25.06
25.78
26.43
26.87
27.04
26.95
26.63
26.16
25.59
24.97
24.27
23.50
22.68
21.80
20.83
19.73
18.44
16.93
15.19
13.26
11.20
9.09
7.04
5.13
3.39
1.71
-0.03
-1.99
-4.28
-6.83
-9.52
-12.19
-14.81
-17.45
-20.27
-23.39
-26.82
-30.44
-33.98
-37.11
-39.47
-40.74
-40.63
-38.99
-35.87
-31.48
-26.24
-20.58
-14.90
-9.44
-4.30
0.58
5.27
9.79
14.07
17.95
21.25
23.81
25.60
26.70
27.26
27.44
27.37
27.17
26.92
26.67
26.50
26.42
26.43
26.46
26.44
26.30
26.02
25.58
25.02
24.40
23.78
23.21
22.70
22.22
21.65
20.90
19.91
18.67
17.24
15.72
14.17
12.64
11.12
9.58
7.96
6.20
4.23
1.99
-0.48
-3.10
-5.66
-8.00
-10.03
-11.83
-13.61
-15.64
-18.15
-21.20
-24.67
-28.26
-31.58
-34.15
-35.59
-35.60
-34.07
-31.12
-27.06
-22.31
-17.27
-12.25
-7.38
-2.68
1.90
6.32
10.53
14.35
17.65
20.33
22.35
23.79
24.72
25.26
25.47
25.46
25.32
25.17
25.14
25.29
25.59
25.94
26.20
26.22
25.88
25.16
24.11
22.86
21.60
20.52
19.72
19.20
18.86
18.48
17.87
16.85
15.36
13.46
11.32
9.14
7.15
5.48
4.15
3.03
1.88
0.44
-1.44
-3.77
-6.37
-8.99
-11.37
-13.39
-15.10
-16.66
-18.33
-20.30
-22.67
-25.42
-28.38
-31.28
-33.76
-35.43
-35.95
-35.10
-32.88
-29.48
-25.25
-20.59
-15.84
-11.27
-6.99
-3.03
0.67
4.17
7.47
10.51
13.12
15.15
16.47
17.12
17.25
17.13
16.95
16.82
16.75
16.70
16.67
16.69
16.78
16.92
17.03
17.04
16.90
16.68
16.49
16.44
16.49
16.53
16.34
15.77
14.78
13.45
11.95
10.48
9.18
8.10
7.22
6.42
5.54
4.43
3.05
1.46
-0.19
-1.68
-2.90
-3.88
-4.80
-5.89
-7.33
-9.14
-11.15
-13.10
-14.79
-16.11
-17.16
-18.14
-19.28
-20.78
-22.71
-25.00
-27.42
-29.59
-31.04
-31.37
-30.35
-28.05
-24.77
-20.99
-17.15
-13.57
-10.32
-7.32
-4.43
-1.55
1.34
4.19
6.86
9.24
11.18
12.58
13.38
13.60
13.37
12.86
12.28
11.84
11.64
11.69
11.97
12.36
12.80
13.25
13.60
13.76
13.62
13.13
12.30
11.26
10.17
9.17
8.29
7.48
6.66
5.80
4.95
4.17
3.49
2.83
2.09
1.16
0.04
-1.20
-2.44
-3.61
-4.65
-5.60
-6.51
-7.41
-8.35
-9.34
-10.39
-11.52
-12.74
-14.09
-15.62
-17.37
-19.33
-21.43
-23.54
-25.42
-26.79
-27.36
-26.94
-25.46
-23.03
-19.91
-16.45
-12.98
-9.73
-6.80
-4.13
-1.63
0.77
3.11
5.34
7.37
9.09
10.43
11.35
11.88
12.10
12.15
12.19
12.33
12.66
13.20
13.94
14.78
15.59
16.20
16.45
16.25
15.66
14.80
13.88
13.06
12.41
11.86
11.31
10.64
9.85
9.00
8.20
7.48
6.83
6.16
5.37
4.44
3.40
2.36
1.37
0.44
-0.51
-1.58
-2.89
-4.46
-6.25
-8.08
-9.78
-11.19
-12.28
-13.14
-14.02
-15.16
-16.80
-19.00
-21.65
-24.46
-27.04
-28.98
-29.93
-29.67
-28.19
-25.67
-22.41
-18.83
-15.26
-11.94
-8.94
-6.22
-3.68
-1.26
1.05
3.17
4.95
6.31
7.22
7.73
7.97
8.10
8.19
8.32
8.52
8.84
9.31
9.90
10.58
11.22
11.69
11.94
11.98
11.90
11.76
11.60
11.47
11.36
11.29
11.23
11.10
10.79
10.22
9.38
8.38
7.33
6.35
5.44
4.49
3.37
2.01
0.43
-1.31
-3.10
-4.90
-6.67
-8.42
-10.13
-11.75
-13.24
-14.56
-15.75
-16.93
-18.27
-19.94
-22.03
-24.53
-27.28
-29.96
-32.22
-33.66
-34.02
-33.17
-31.18
-28.33
-24.95
-21.39
-17.89
-14.58
-11.47
-8.58
-5.89
-3.44
-1.23
0.72
2.47
4.03
5.42
6.60
7.55
8.28
8.87
9.43
10.01
10.61
11.13
11.47
11.57
11.45
11.22
10.99
10.84
10.75
10.66
10.49
10.20
9.76
9.20
8.52
7.70
6.72
5.57
4.32
3.07
1.93
0.93
0.04
-0.88
-2.00
-3.47
-5.29
-7.38
-9.59
-11.69
-13.53
-15.06
-16.38
-17.72
-19.39
-21.59
-24.39
-27.58
-30.76
-33.41
-35.08
-35.46
-34.48
-32.27
-29.08
-25.24
-21.05
-16.80
-12.70
-8.84
-5.24
-1.84
1.39
4.43
7.16
9.48
11.33
12.76
13.91
14.94
15.91
16.77
17.36
17.57
17.43
17.10
16.84
16.84
17.10
17.45
17.64
17.46
16.89
16.03
15.04
14.05
13.07
12.06
11.06
10.12
9.34
8.70
8.09
7.29
6.11
4.53
2.68
0.81
-0.93
-2.48
-3.96
-5.52
-7.25
-9.14
-11.11
-13.08
-15.04
-17.09
-19.38
-22.07
-25.22
-28.78
-32.48
-35.91
-38.53
-39.87
-39.64
-37.83
-34.73
-30.80
-26.49
-22.15
-17.94
-13.89
-10.00
-6.31
-2.87
0.29
3.16
5.72
8.01
10.01
11.69
13.05
14.08
14.84
15.42
15.90
16.38
16.87
17.36
17.80
18.09
18.17
17.97
17.50
16.81
16.01
15.20
14.46
13.81
13.20
12.56
11.85
11.03
10.10
9.10
8.00
6.76
5.35
3.72
1.91
-0.00
-1.95
-3.86
-5.72
-7.57
-9.43
-11.34
-13.28
-15.22
-17.17
-19.23
-21.54
-24.28
-27.52
-31.11
-34.64
-37.55
-39.22
-39.23
-37.48
-34.22
-29.92
-25.08
-20.08
-15.11
-10.23
-5.44
-0.79
3.61
7.62
11.11
14.03
16.36
18.19
19.59
20.69
21.52
22.15
22.62
22.96
23.24
23.50
23.75
23.91
23.85
23.45
22.64
21.51
20.26
19.10
18.15
17.39
16.62
15.63
14.23
12.40
10.26
8.05
5.97
4.12
2.46
0.78
-1.11
-3.34
-5.90
-8.64
-11.40
-14.10
-16.71
-19.28
-21.87
-24.50
-27.21
-29.99
-32.77
-35.38
-37.43
-38.48
-38.11
-36.14
-32.71
-28.21
-23.09
-17.69
-12.16
-6.54
-0.89
4.64
9.78
14.29
18.00
20.92
23.16
24.81
25.95
26.62
26.88
26.82
26.60
26.40
26.36
26.53
26.88
27.30
27.65
27.82
27.70
27.30
26.62
25.75
24.74
23.60
22.31
20.84
19.13
17.20
15.09
12.90
10.73
8.69
6.81
5.06
3.33
1.48
-0.60
-2.98
-5.63
-8.42
-11.19
-13.83
-16.29
-18.66
-21.16
-24.00
-27.37
-31.21
-35.22
-38.83
-41.38
-42.36
-41.46
-38.76
-34.63
-29.57
-24.08
-18.57
-13.24
-8.18
-3.36
1.30
5.83
10.23
14.40
18.22
21.50
24.12
26.00
27.17
27.72
27.82
27.64
27.39
27.19
27.10
27.11
27.16
27.16
27.04
26.75
26.28
25.62
24.78
23.78
22.64
21.32
19.82
18.13
16.30
14.42
12.60
10.93
9.45
8.15
6.91
5.66
4.28
2.67
0.77
-1.45
-3.92
-6.55
-9.19
-11.70
-14.07
-16.36
-18.75
-21.43
-24.55
-28.09
-31.86
-35.46
-38.36
-39.99
-39.94
-38.05
-34.49
-29.71
-24.30
-18.78
-13.49
-8.53
-3.83
0.73
5.24
9.65
13.86
17.66
20.88
23.35
24.98
25.74
25.77
25.30
24.64
24.09
23.85
23.92
24.18
24.42
24.47
24.26
23.83
23.28
22.71
22.10
21.43
20.67
19.84
19.02
18.30
17.69
17.08
16.31
15.20
13.69
11.89
10.00
8.24
6.72
5.37
3.99
2.37
0.37
-1.99
-4.58
-7.22
-9.77
-12.22
-14.63
-17.12
-19.74
-22.49
-25.33
-28.20
-31.02
-33.66
-35.87
-37.31
-37.60
-36.48
-33.88
-30.05
-25.36
-20.27
-15.14
-10.16
-5.42
-0.98
3.16
6.89
10.14
12.85
14.99
16.61
17.79
18.66
19.29
19.76
20.05
20.12
19.96
19.57
19.05
18.54
18.12
17.84
17.61
17.37
17.01
16.55
16.05
15.57
15.08
14.52
13.75
12.68
11.27
9.60
7.79
5.99
4.29
2.74
1.38
0.21
-0.73
-1.41
-1.91
-2.40
-3.15
-4.38
-6.21
-8.55
-11.15
-13.72
-16.02
-17.96
-19.65
-21.29
-23.10
-25.24
-27.78
-30.52
-33.10
-34.96
-35.57
-34.54
-31.86
-27.86
-23.12
-18.22
-13.54
-9.23
-5.23
-1.47
2.08
5.38
8.35
10.94
13.14
14.92
16.26
17.13
17.54
17.57
17.32
16.94
16.56
16.24
16.04
15.94
15.92
15.95
15.96
15.88
15.66
15.29
14.78
14.18
13.56
12.97
12.41
11.88
11.34
10.75
10.12
9.45
8.76
8.03
7.23
6.32
5.29
4.15
2.98
1.79
0.56
-0.78
-2.32
-4.09
-6.09
-8.20
-10.26
-12.14
-13.75
-15.12
-16.32
-17.55
-19.00
-20.87
-23.23
-25.98
-28.82
-31.30
-32.90
-33.24
-32.13
-29.70
-26.30
-22.39
-18.34
-14.40
-10.62
-7.01
-3.55
-0.26
2.81
5.60
8.08
10.24
12.05
13.48
14.49
15.08
15.32
15.33
15.20
15.01
14.80
14.57
14.35
14.20
14.17
14.25
14.36
14.36
14.07
13.37
12.29
10.99
9.69
8.58
7.74
7.13
6.57
5.93
5.11
4.16
3.23
2.48
1.98
1.65
1.30
0.70
-0.32
-1.80
-3.66
-5.68
-7.69
-9.55
-11.24
-12.77
-14.22
-15.68
-17.28
-19.14
-21.33
-23.76
-26.16
-28.11
-29.17
-29.03
-27.65
-25.19
-21.99
-18.37
-14.56
-10.71
-6.90
-3.22
0.22
3.35
6.11
8.52
10.61
12.40
13.87
14.96
15.60
15.77
15.52
14.98
14.28
13.53
12.79
12.07
11.33
10.59
9.82
9.03
8.23
7.42
6.62
5.84
5.08
4.29
3.41
2.41
1.35
0.32
-0.53
-1.17
-1.63
-2.06
-2.65
-3.49
-4.55
-5.74
-6.96
-8.16
-9.41
-10.80
-12.46
-14.45
-16.82
-19.56
-22.63
-25.90
-29.15
-31.99
-33.99
-34.77
-34.08
-31.94
-28.62
-24.54
-20.15
-15.83
-11.82
-8.16
-4.83
-1.73
1.21
3.99
6.60
8.93
10.86
12.29
13.13
13.39
13.16
12.58
11.87
11.17
10.62
10.27
10.06
9.94
9.82
9.62
9.35
9.00
8.64
8.33
8.12
8.05
8.11
8.28
8.51
8.81
9.16
9.55
9.93
10.20
10.26
10.00
9.40
8.46
7.22
5.63
3.66
1.26
-1.54
-4.61
-7.76
-10.84
-13.86
-16.98
-20.39
-24.14
-27.99
-31.44
-33.87
-34.79
-34.03
-31.75
-28.37
-24.34
-20.00
-15.52
-10.96
-6.35
-1.80
2.48
6.31
9.54
12.12
14.10
15.55
16.50
16.98
17.01
16.69
16.18
15.66
15.32
15.20
15.29
15.44
15.48
15.27
14.73
13.89
12.87
11.85
10.97
10.32
9.91
9.64
9.36
8.91
8.19
7.19
5.94
4.52
3.05
1.62
0.29
-0.97
-2.24
-3.65
-5.27
-7.08
-8.98
-10.82
-12.50
-14.05
-15.63
-17.47
-19.72
-22.32
-24.99
-27.26
-28.67
-28.89
-27.81
-25.55
-22.33
-18.40
-13.96
-9.22
-4.33
0.48
5.02
9.11
12.63
15.52
17.77
19.41
20.46
21.03
21.19
21.10
20.87
20.65
20.52
20.54
20.69
20.87
20.97
20.90
20.63
20.21
19.70
19.14
18.52
17.81
16.98
16.06
15.10
14.12
13.12
12.06
10.87
9.62
8.40
7.32
6.44
5.74
5.08
4.27
3.18
1.68
-0.25
-2.55
-5.13
-7.82
-10.45
-12.87
-14.99
-16.89
-18.73
-20.75
-23.10
-25.73
-28.35
-30.48
-31.59
-31.32
-29.61
-26.63
-22.76
-18.42
-13.93
-9.44
-5.03
-0.71
3.46
7.34
10.78
13.60
15.71
17.11
17.91
18.29
18.40
18.35
18.21
18.00
17.75
17.50
17.27
17.09
16.94
16.78
16.55
16.24
15.84
15.36
14.79
14.14
13.36
12.40
11.19
9.71
7.99
6.16
4.39
2.82
1.48
0.30
-0.88
-2.26
-3.94
-5.95
-8.22
-10.59
-12.95
-15.17
-17.20
-19.04
-20.75
-22.46
-24.30
-26.32
-28.39
-30.20
-31.24
-31.08
-29.49
-26.56
-22.67
-18.33
-13.96
-9.76
-5.77
-1.92
1.80
5.33
8.53
11.28
13.53
15.35
16.81
17.92
18.65
18.91
18.67
18.02
17.13
16.28
15.69
15.49
15.68
16.12
16.62
17.01
17.16
17.04
16.65
16.01
15.18
14.22
13.19
12.21
11.31
10.49
9.68
8.75
7.65
6.40
5.11
3.87
2.74
1.65
0.48
-0.89
-2.54
-4.42
-6.45
-8.53
-10.61
-12.69
-14.82
-17.05
-19.47
-22.13
-25.03
-28.05
-30.84
-32.95
-33.89
-33.36
-31.37
-28.25
-24.50
-20.63
-16.95
-13.52
-10.27
-7.07
-3.88
-0.77
2.18
4.91
7.39
9.61
11.55
13.14
14.32
15.06
15.45
15.57
15.57
15.51
15.43
15.39
15.39
15.48
15.65
15.83
15.91
15.78
15.39
14.77
14.02
13.24
12.47
11.69
10.85
9.89
8.79
7.61
6.41
5.29
4.27
3.38
2.59
1.84
1.05
0.17
-0.91
-2.25
-3.88
-5.77
-7.77
-9.74
-11.50
-13.00
-14.31
-15.60
-17.06
-18.84
-20.98
-23.42
-26.02
-28.58
-30.79
-32.30
-32.76
-32.00
-30.05
-27.16
-23.66
-19.85
-15.87
-11.81
-7.69
-3.61
0.26
3.77
6.82
9.43
11.68
13.58
15.08
16.08
16.54
16.49
16.09
15.56
15.08
14.84
14.89
15.24
15.80
16.43
16.89
17.02
16.71
15.99
14.98
13.82
12.66
11.57
10.56
9.60
8.69
7.81
6.98
6.18
5.38
4.55
3.64
2.60
1.38
-0.07
-1.76
-3.73
-5.92
-8.27
-10.65
-12.92
-14.96
-16.75
-18.37
-20.01
-21.86
-24.07
-26.62
-29.32
-31.81
-33.67
-34.59
-34.35
-32.94
-30.51
-27.26
-23.46
-19.33
-15.10
-10.92
-6.93
-3.25
0.10
3.10
5.81
8.23
10.31
11.97
13.10
13.67
13.78
13.64
13.48
13.47
13.66
13.98
14.29
14.52
14.64
14.72
14.81
14.89
14.87
14.61
13.99
12.99
11.69
10.22
8.75
7.39
6.19
5.19
4.35
3.62
2.90
2.06
0.99
-0.41
-2.15
-4.12
-6.22
-8.37
-10.56
-12.87
-15.34
-17.99
-20.74
-23.52
-26.26
-28.97
-31.61
-34.05
-36.01
-37.08
-36.91
-35.34
-32.54
-28.91
-24.92
-20.95
-17.15
-13.44
-9.67
-5.72
-1.59
2.59
6.57
10.12
13.04
15.23
16.67
17.48
17.78
17.73
17.47
17.14
16.84
16.65
16.64
16.80
17.12
17.48
17.74
17.80
17.61
17.17
16.53
15.77
14.94
14.07
13.15
12.23
11.38
10.64
10.04
9.48
8.79
7.81
6.47
4.85
3.16
1.61
0.28
-0.92
-2.19
-3.75
-5.75
-8.15
-10.77
-13.38
-15.76
-17.80
-19.56
-21.24
-23.12
-25.49
-28.44
-31.85
-35.31
-38.25
-40.12
-40.53
-39.37
-36.78
-33.05
-28.52
-23.52
-18.33
-13.23
-8.38
-3.91
0.17
3.90
7.35
10.54
13.36
15.71
17.46
18.60
19.27
19.65
19.95
20.29
20.70
21.13
21.55
21.96
22.41
22.98
23.67
24.41
25.01
25.31
25.18
24.58
23.58
22.29
20.86
19.39
17.99
16.72
15.60
14.56
13.50
12.30
10.87
9.22
7.46
5.73
4.14
2.74
1.49
0.29
-0.95
-2.31
-3.79
-5.44
-7.25
-9.25
-11.44
-13.78
-16.18
-18.54
-20.80
-23.01
-25.33
-27.93
-30.90
-34.08
-37.09
-39.34
-40.29
-39.57
-37.14
-33.26
-28.37
-22.97
-17.45
-12.08
-7.00
-2.24
2.20
6.30
10.05
13.39
16.27
18.63
20.51
21.95
23.03
23.84
24.39
24.70
24.78
24.72
24.61
24.55
24.58
24.62
24.58
24.35
23.89
23.20
22.33
21.29
20.12
18.82
17.44
16.01
14.59
13.22
11.91
10.65
9.41
8.19
6.93
5.56
4.02
2.25
0.20
-2.05
-4.41
-6.75
-8.94
-10.90
-12.66
-14.30
-15.98
-17.90
-20.25
-23.12
-26.50
-30.21
-33.89
-37.02
-39.09
-39.67
-38.54
-35.79
-31.74
-26.86
-21.59
-16.29
-11.16
-6.32
-1.81
2.38
6.25
9.80
13.02
15.83
18.18
19.98
21.23
22.00
22.40
22.55
22.58
22.56
22.56
22.65
22.85
23.11
23.35
23.39
23.11
22.46
21.49
20.30
19.06
17.85
16.75
15.78
14.91
14.07
13.18
12.11
10.77
9.17
7.41
5.63
4.00
2.57
1.30
0.05
-1.34
-2.95
-4.76
-6.68
-8.60
-10.47
-12.32
-14.23
-16.23
-18.34
-20.54
-22.84
-25.29
-28.00
-30.93
-33.87
-36.37
-37.86
-37.90
-36.32
-33.32
-29.33
-24.81
-20.15
-15.48
-10.84
-6.20
-1.59
2.84
6.91
10.44
13.32
15.51
17.02
17.99
18.56
18.93
19.26
19.64
20.05
20.40
20.60
20.64
20.57
20.44
20.33
20.19
19.94
19.45
18.70
17.74
16.71
15.74
14.89
14.18
13.55
12.95
12.37
11.84
11.35
10.86
10.22
9.28
7.97
6.31
4.49
2.73
1.19
-0.13
-1.37
-2.72
-4.30
-6.13
-8.12
-10.10
-11.98
-13.75
-15.50
-17.31
-19.31
-21.57
-24.14
-27.01
-30.08
-33.11
-35.75
-37.59
-38.23
-37.50
-35.45
-32.30
-28.41
-24.08
-19.54
-14.94
-10.41
-6.10
-2.15
1.39
4.52
7.37
10.01
12.45
14.63
16.43
17.78
18.75
19.48
20.13
20.77
21.40
21.94
22.33
22.54
22.56
22.38
21.98
21.34
20.49
19.57
18.72
18.03
17.50
16.99
16.34
15.47
14.36
13.10
11.80
10.47
9.07
7.55
5.86
4.06
2.25
0.56
-0.96
-2.30
-3.55
-4.83
-6.19
-7.68
-9.28
-10.92
-12.55
-14.14
-15.71
-17.33
-19.15
-21.32
-23.95
-27.05
-30.38
-33.53
-35.99
-37.25
-37.04
-35.38
-32.54
-28.92
-24.85
-20.56
-16.17
-11.77
-7.45
-3.32
0.52
4.04
7.26
10.18
12.79
14.99
16.69
17.87
18.58
18.94
19.13
19.25
19.36
19.46
19.55
19.62
19.65
19.61
19.49
19.22
18.79
18.19
17.42
16.50
15.46
14.35
13.24
12.15
11.09
10.00
8.78
7.36
5.71
3.90
2.05
0.26
-1.42
-3.03
-4.62
-6.30
-8.08
-9.99
-11.96
-13.96
-15.95
-17.93
-20.01
-22.30
-24.94
-27.92
-31.05
-33.95
-36.13
-37.14
-36.71
-34.86
-31.85
-28.02
-23.70
-19.11
-14.41
-9.74
-5.26
-1.19
2.32
5.22
7.64
9.76
11.79
13.81
15.76
17.50
18.87
19.79
20.24
20.30
20.01
19.44
18.63
17.66
16.65
15.70
14.94
14.37
13.96
13.60
13.21
12.77
12.30
11.84
11.44
11.10
10.74
10.30
9.72
9.00
8.21
7.42
6.66
5.86
4.86
3.46
1.54
-0.84
-3.50
-6.15
-8.59
-10.71
-12.59
-14.36
-16.14
-18.06
-20.19
-22.61
-25.37
-28.40
-31.48
-34.19
-36.05
-36.63
-35.73
-33.40
-29.92
-25.62
-20.87
-15.98
-11.21
-6.71
-2.59
1.23
4.87
8.46
12.02
15.42
18.41
20.73
22.24
23.02
23.31
23.40
23.54
23.81
24.18
24.58
25.00
25.45
25.93
26.36
26.55
26.23
25.27
23.63
21.53
19.26
17.12
15.28
13.69
12.17
10.48
8.43
5.99
3.30
0.64
-1.72
-3.59
-5.01
-6.19
-7.45
-9.03
-10.97
-13.11
-15.20
-17.05
-18.64
-20.13
-21.78
-23.78
-26.20
-28.98
-31.96
-34.96
-37.72
-39.89
-41.08
-40.94
-39.26
-36.14
-31.87
-26.95
-21.83
-16.83
-12.10
-7.65
-3.42
0.62
4.47
8.08
11.36
14.24
16.64
18.54
19.99
21.04
21.77
22.27
22.61
22.87
23.10
23.35
23.61
23.81
23.82
23.55
22.94
22.04
20.98
19.88
18.80
17.68
16.45
14.98
13.24
11.27
9.16
7.01
4.88
2.77
0.67
-1.44
-3.51
-5.47
-7.30
-9.01
-10.67
-12.38
-14.23
-16.28
-18.60
-21.18
-24.02
-26.99
-29.83
-32.19
-33.66
-33.91
-32.82
-30.49
-27.20
-23.31
-19.15
-14.90
-10.65
-6.36
-2.00
2.36
6.58
10.43
13.68
16.19
17.97
19.13
19.84
20.29
20.54
20.64
20.65
20.63
20.73
21.02
21.50
22.02
22.35
22.28
21.69
20.63
19.23
17.66
16.04
14.44
12.84
11.27
9.74
8.31
6.99
5.74
4.47
3.04
1.34
-0.66
-2.90
-5.31
-7.77
-10.22
-12.65
-15.07
-17.47
-19.84
-22.17
-24.47
-26.82
-29.25
-31.73
-34.01
-35.73
-36.46
-35.87
-33.88
-30.62
-26.46
-21.81
-17.04
-12.36
-7.82
-3.42
0.89
5.11
9.11
12.70
15.67
17.88
19.33
20.14
20.49
20.54
20.42
20.23
20.06
20.00
20.09
20.32
20.56
20.66
20.52
20.12
19.58
19.03
18.53
18.02
17.36
16.41
15.14
13.65
12.14
10.80
9.72
8.89
8.15
7.35
6.36
5.15
3.78
2.37
1.01
-0.24
-1.38
-2.49
-3.64
-4.95
-6.43
-8.03
-9.64
-11.16
-12.59
-14.04
-15.71
-17.77
-20.30
-23.23
-26.31
-29.24
-31.66
-33.25
-33.73
-32.94
-30.83
-27.58
-23.54
-19.12
-14.68
-10.41
-6.31
-2.34
1.51
5.17
8.46
11.24
13.45
15.13
16.41
17.39
18.10
18.55
18.73
18.73
18.60
18.45
18.32
18.21
18.10
17.98
17.84
17.66
17.41
17.05
16.53
15.89
15.14
14.34
13.56
12.82
12.13
11.48
10.86
10.24
9.62
8.93
8.13
7.20
6.14
4.97
3.71
2.35
0.90
-0.67
-2.34
-4.08
-5.82
-7.54
-9.21
-10.85
-12.51
-14.22
-16.02
-17.96
-20.09
-22.52
-25.31
-28.41
-31.63
-34.58
-36.77
-37.77
-37.29
-35.30
-32.03
-27.87
-23.23
-18.47
-13.83
-9.45
-5.39
-1.73
1.51
4.30
6.67
8.67
10.34
11.71
12.81
13.69
14.37
14.88
15.24
15.41
15.33
14.98
14.37
13.62
12.83
12.08
11.33
10.46
9.35
7.86
6.01
4.00
2.11
0.52
-0.79
-2.09
-3.78
-6.23
-9.84
-14.68
-20.37
-26.29
-31.78
-36.45
-40.32
-43.72
-47.13
-51.21
-56.19
-61.84
-67.55
-72.64
-76.57
-79.01
-79.83
-79.18
-77.88
-76.73
-76.20
-75.97
-74.94
-71.40
-63.60
-50.47
-30.14
-3.75
25.13
51.39
70.66
81.19
84.20
82.82
80.71
80.88
84.42
91.10
99.45
107.19
111.85
111.41
104.88
92.61
77.43
61.22
46.48
35.64
30.02
29.51
32.47
36.62
39.82
40.75
38.85
34.87
30.39
27.19
26.74
29.61
35.13
41.44
45.41
43.96
35.65
21.22
3.11
-15.55
-32.14
-45.11
-54.07
-59.29
-61.10
-59.46
-54.27
-46.27
-37.33
-30.04
-26.61
-27.94
-33.11
-39.57
-44.17
-42.99
-34.50
-20.73
-6.42
3.74
7.77
6.91
4.29
2.99
3.86
6.35
9.15
11.19
12.25
12.85
13.79
15.51
17.83
20.39
22.23
22.49
20.90
17.89
14.43
11.47
9.52
8.59
8.29
7.98
7.17
5.77
4.10
2.68
1.85
1.65
1.77
1.77
1.27
0.09
-1.67
-3.70
-5.60
-7.09
-8.09
-8.68
-9.09
-9.58
-10.37
-11.53
-13.00
-14.57
-15.98
-17.02
-17.57
-17.68
-17.52
-17.31
-17.25
-17.53
-18.23
-19.33
-20.74
-22.28
-23.76
-25.11
-26.35
-27.66
-29.25
-31.24
-33.54
-35.82
-37.65
-38.56
-38.24
-36.50
-33.40
-29.13
-24.00
-18.42
-12.78
-7.44
-2.58
1.75
5.61
9.12
12.35
15.32
17.96
20.20
21.93
23.14
23.84
24.15
24.18
24.07
23.90
23.68
23.42
23.11
22.79
22.47
22.17
21.84
21.48
21.08
20.65
20.23
19.81
19.27
18.49
17.38
15.93
14.25
12.53
10.91
9.47
8.20
7.04
5.97
4.93
3.91
2.87
1.72
0.36
-1.30
-3.29
-5.56
-7.98
-10.41
-12.71
-14.85
-16.86
-18.88
-21.06
-23.50
-26.27
-29.26
-32.30
-35.08
-37.21
-38.30
-38.02
-36.22
-32.97
-28.61
-23.59
-18.40
-13.43
-8.89
-4.78
-1.00
2.57
6.07
9.51
12.81
15.80
18.29
20.15
21.37
22.06
22.40
22.57
22.67
22.72
22.69
22.60
22.52
22.51
22.60
22.73
22.77
22.58
22.10
21.40
20.61
19.85
19.13
18.32
17.23
15.66
13.53
10.91
8.03
5.18
2.64
0.58
-0.99
-2.22
-3.34
-4.60
-6.14
-8.00
-10.10
-12.33
-14.59
-16.83
-19.06
-21.34
-23.76
-26.40
-29.31
-32.46
-35.65
-38.51
-40.60
-41.48
-40.85
-38.64
-35.02
-30.36
-25.12
-19.72
-14.49
-9.56
-4.92
-0.49
3.80
7.89
11.61
14.75
17.16
18.91
20.19
21.30
22.41
23.52
24.49
25.14
25.43
25.50
25.54
25.71
26.00
26.23
26.19
25.74
24.92
23.87
22.73
21.54
20.19
18.56
16.56
14.23
11.71
9.16
6.70
4.35
2.14
0.04
-1.93
-3.81
-5.67
-7.65
-9.90
-12.56
-15.58
-18.84
-22.09
-25.16
-28.02
-30.82
-33.82
-37.27
-41.21
-45.41
-49.34
-52.38
-53.90
-53.51
-51.11
-46.91
-41.34
-34.90
-28.15
-21.54
-15.42
-9.92
-4.94
-0.29
4.30
8.94
13.54
17.87
21.62
24.60
26.78
28.28
29.25
29.80
29.98
29.80
29.39
28.94
28.66
28.68
28.97
29.36
29.63
29.54
28.96
27.87
26.40
24.76
23.16
21.80
20.69
19.74
18.72
17.44
15.78
13.79
11.61
9.46
7.50
5.78
4.24
2.75
1.18
-0.59
-2.57
-4.79
-7.20
-9.80
-12.58
-15.49
-18.49
-21.49
-24.44
-27.40
-30.54
-34.04
-37.95
-42.04
-45.78
-48.55
-49.79
-49.18
-46.71
-42.63
-37.33
-31.24
-24.75
-18.16
-11.74
-5.59
0.22
5.67
10.78
15.53
19.86
23.74
27.13
29.98
32.26
33.93
35.00
35.57
35.85
36.09
36.49
37.10
37.84
38.54
39.00
39.11
38.84
38.17
37.09
35.56
33.57
31.10
28.21
24.92
21.23
17.03
12.18
6.66
0.61
-5.51
-11.13
-15.67
-18.86
-20.81
-21.91
-22.62
-23.25
-23.83
-24.25
-24.42
-24.40
-24.44
-24.81
-25.67
-26.99
-28.68
-30.67
-33.02
-35.82
-39.06
-42.43
-45.37
-47.17
-47.22
-45.19
-41.17
-35.62
-29.22
-22.62
-16.28
-10.34
-4.68
0.96
6.75
12.69
18.54
23.95
28.61
32.37
35.23
37.28
38.65
39.41
39.62
39.39
38.91
38.41
38.09
38.04
38.19
38.35
38.23
37.61
36.38
34.62
32.50
30.29
28.20
26.31
24.61
22.97
21.21
19.22
16.89
14.29
11.53
8.78
6.20
3.88
1.79
-0.19
-2.24
-4.50
-7.03
-9.83
-12.83
-15.99
-19.22
-22.46
-25.65
-28.74
-31.78
-34.91
-38.30
-42.04
-45.95
-49.55
-52.15
-53.03
-51.75
-48.26
-42.97
-36.52
-29.57
-22.62
-15.90
-9.47
-3.29
2.64
8.24
13.37
17.87
21.64
24.66
27.00
28.79
30.14
31.17
31.88
32.27
32.32
32.05
31.55
30.93
30.31
29.75
29.25
28.75
28.17
27.46
26.60
25.64
24.61
23.55
22.44
21.23
19.86
18.32
16.64
14.92
13.25
11.70
10.25
8.79
7.22
5.49
3.59
1.58
-0.49
-2.58
-4.70
-6.88
-9.15
-11.52
-13.94
-16.34
-18.62
-20.76
-22.80
-24.90
-27.25
-30.03
-33.29
-36.95
-40.72
-44.20
-46.88
-48.31
-48.13
-46.22
-42.65
-37.74
-31.90
-25.56
-19.11
-12.80
-6.76
-1.01
4.45
9.65
14.58
19.14
23.20
26.56
29.10
30.78
31.72
32.11
32.20
32.17
32.09
31.98
31.80
31.54
31.20
30.74
30.12
29.24
28.02
26.43
24.50
22.34
20.16
18.07
16.16
14.37
12.58
10.70
8.72
6.74
4.90
3.31
1.95
0.69
-0.65
-2.22
-4.04
-5.99
-7.92
-9.71
-11.33
-12.87
-14.42
-16.04
-17.75
-19.53
-21.34
-23.19
-25.11
-27.13
-29.32
-31.77
-34.59
-37.87
-41.57
-45.47
-49.11
-51.94
-53.36
-52.99
-50.63
-46.42
-40.70
-33.93
-26.60
-19.13
-11.79
-4.71
2.08
8.58
14.74
20.42
25.45
29.63
32.91
35.37
37.17
38.53
39.57
40.34
40.85
41.11
41.12
40.94
40.60
40.08
39.26
38.02
36.22
33.83
30.90
27.61
24.19
20.86
17.74
14.88
12.18
9.54
6.87
4.12
1.33
-1.41
-4.02
-6.44
-8.68
-10.79
-12.90
-15.12
-17.58
-20.32
-23.27
-26.29
-29.15
-31.65
-33.73
-35.48
-37.16
-39.03
-41.27
-43.87
-46.61
-49.07
-50.75
-51.18
-49.98
-47.08
-42.61
-36.96
-30.63
-24.11
-17.76
-11.76
-6.13
-0.78
4.37
9.31
13.98
18.25
22.00
25.14
27.65
29.54
30.87
31.72
32.18
32.38
32.44
32.48
32.54
32.63
32.67
32.57
32.20
31.51
30.49
29.18
27.65
26.00
24.33
22.73
21.29
20.04
18.94
17.92
16.82
15.54
14.03
12.37
10.64
8.90
7.13
5.21
2.98
0.34
-2.70
-6.02
-9.43
-12.71
-15.73
-18.46
-21.01
-23.57
-26.35
-29.54
-33.18
-37.12
-40.97
-44.16
-46.14
-46.50
-45.06
-41.98
-37.59
-32.31
-26.54
-20.57
-14.56
-8.62
-2.85
2.66
7.79
12.46
16.63
20.27
23.31
25.65
27.16
27.74
27.41
26.37
24.96
23.56
22.47
21.75
21.27
20.80
20.12
19.10
17.73
16.10
14.28
12.31
10.24
8.13
6.07
4.16
2.48
1.06
-0.16
-1.26
-2.33
-3.43
-4.62
-5.90
-7.29
-8.73
-10.20
-11.65
-13.03
-14.37
-15.65
-16.94
-18.30
-19.79
-21.43
-23.24
-25.21
-27.28
-29.39
-31.51
-33.64
-35.84
-38.27
-41.09
-44.39
-48.09
-51.79
-54.89
-56.66
-56.54
-54.32
-50.25
-44.86
-38.78
-32.49
-26.21
-20.00
-13.84
-7.76
-1.85
3.80
9.14
14.16
18.87
23.13
26.79
29.65
31.59
32.67
33.05
32.96
32.58
32.05
31.40
30.69
29.96
29.28
28.69
28.15
27.55
26.73
25.58
24.10
22.44
20.85
19.53
18.54
17.76
16.98
15.99
14.72
13.21
11.59
9.95
8.34
6.73
5.13
3.58
2.13
0.80
-0.50
-1.94
-3.68
-5.79
-8.22
-10.85
-13.53
-16.24
-19.02
-21.99
-25.24
-28.79
-32.48
-36.02
-38.96
-40.82
-41.24
-40.03
-37.29
-33.35
-28.63
-23.54
-18.36
-13.22
-8.17
-3.20
1.68
6.37
10.70
14.53
17.69
20.16
22.01
23.42
24.54
25.52
26.39
27.11
27.63
27.91
27.97
27.85
27.62
27.30
26.89
26.34
25.66
24.81
23.84
22.82
21.81
20.85
19.94
19.01
17.96
16.65
15.00
13.01
10.78
8.46
6.23
4.17
2.28
0.45
-1.45
-3.56
-5.89
-8.39
-10.94
-13.38
-15.63
-17.67
-19.58
-21.56
-23.83
-26.59
-29.92
-33.72
-37.64
-41.17
-43.68
-44.70
-43.95
-41.42
-37.44
-32.47
-27.01
-21.44
-16.01
-10.81
-5.83
-1.03
3.62
8.08
12.31
16.22
19.73
22.74
25.19
27.03
28.26
28.94
29.17
29.11
28.95
28.87
28.98
29.27
29.59
29.71
29.43
28.64
27.41
25.89
24.24
22.59
21.00
19.43
17.84
16.22
14.58
12.97
11.41
9.88
8.29
6.58
4.69
2.67
0.61
-1.36
-3.14
-4.73
-6.21
-7.74
-9.47
-11.47
-13.69
-16.01
-18.25
-20.36
-22.34
-24.30
-26.37
-28.70
-31.36
-34.39
-37.64
-40.84
-43.56
-45.31
-45.67
-44.46
-41.78
-37.98
-33.51
-28.72
-23.80
-18.80
-13.67
-8.40
-3.07
2.18
7.17
11.74
15.76
19.16
21.91
23.98
25.45
26.37
26.81
26.82
26.47
25.81
25.01
24.22
23.61
23.25
23.10
23.01
22.83
22.43
21.78
20.93
19.92
18.81
17.61
16.31
14.91
13.49
12.10
10.79
9.60
8.47
7.32
6.08
4.70
3.19
1.62
0.02
-1.61
-3.28
-5.06
-6.91
-8.77
-10.59
-12.33
-14.03
-15.76
-17.60
-19.52
-21.52
-23.53
-25.61
-27.88
-30.47
-33.30
-36.06
-38.22
-39.20
-38.65
-36.53
-33.14
-28.92
-24.27
-19.41
-14.40
-9.26
-4.08
0.96
5.62
9.70
13.05
15.70
17.75
19.35
20.67
21.79
22.70
23.34
23.56
23.31
22.61
21.61
20.52
19.56
18.85
18.36
18.02
17.68
17.27
16.75
16.08
15.26
14.27
13.07
11.63
9.94
8.06
6.09
4.23
2.64
1.46
0.66
0.10
-0.46
-1.30
-2.61
-4.43
-6.61
-8.88
-11.02
-12.94
-14.67
-16.39
-18.27
-20.45
-23.00
-25.86
-28.91
-31.87
-34.28
-35.61
-35.40
-33.46
-29.99
-25.54
-20.76
-16.14
-11.83
-7.69
-3.43
1.04
5.61
9.90
13.57
16.41
18.45
19.91
20.99
21.82
22.40
22.69
22.65
22.34
21.86
21.33
20.84
20.40
19.96
19.41
18.68
17.76
16.65
15.43
14.16
12.88
11.55
10.08
8.37
6.38
4.15
1.84
-0.39
-2.40
-4.14
-5.67
-7.10
-8.59
-10.27
-12.18
-14.29
-16.49
-18.68
-20.78
-22.80
-24.87
-27.16
-29.82
-32.86
-36.05
-38.98
-41.12
-41.98
-41.29
-39.02
-35.40
-30.84
-25.76
-20.54
-15.39
-10.42
-5.62
-0.92
3.74
8.37
12.95
17.37
21.41
24.86
27.53
29.35
30.40
30.87
30.99
30.98
30.92
30.82
30.64
30.34
29.91
29.33
28.64
27.78
26.73
25.52
24.21
22.91
21.69
20.53
19.38
18.17
16.80
15.23
13.42
11.34
9.00
6.46
3.82
1.20
-1.34
-3.85
-6.42
-9.15
-12.05
-14.98
-17.76
-20.21
-22.28
-24.07
-25.83
-27.84
-30.33
-33.38
-36.83
-40.28
-43.17
-44.87
-44.92
-43.18
-39.83
-35.32
-30.19
-24.85
-19.55
-14.39
-9.40
-4.61
-0.07
4.22
8.29
12.17
15.80
19.00
21.52
23.24
24.19
24.68
25.07
25.61
26.35
27.10
27.60
27.65
27.26
26.56
25.74
24.90
24.01
22.99
21.77
20.39
19.03
17.83
16.87
16.09
15.32
14.37
13.18
11.81
10.37
8.97
7.58
6.09
4.37
2.42
0.31
-1.81
-3.87
-5.86
-7.86
-9.92
-12.03
-14.14
-16.20
-18.28
-20.48
-22.94
-25.72
-28.79
-32.06
-35.33
-38.37
-40.86
-42.41
-42.64
-41.33
-38.49
-34.40
-29.50
-24.20
-18.84
-13.54
-8.37
-3.38
1.35
5.69
9.56
12.92
15.79
18.19
20.12
21.56
22.52
23.04
23.23
23.24
23.18
23.16
23.19
23.25
23.28
23.19
22.93
22.50
21.91
21.20
20.41
19.52
18.55
17.54
16.61
15.87
15.39
15.11
14.82
14.26
13.22
11.64
9.65
7.49
5.39
3.51
1.87
0.41
-0.94
-2.25
-3.59
-5.00
-6.56
-8.35
-10.44
-12.80
-15.35
-17.96
-20.54
-23.07
-25.67
-28.46
-31.46
-34.47
-37.07
-38.72
-38.96
-37.60
-34.79
-30.94
-26.52
-21.89
-17.26
-12.65
-8.06
-3.52
0.89
5.05
8.90
12.37
15.44
18.06
20.14
21.64
22.57
23.02
23.13
23.06
22.90
22.71
22.49
22.23
21.94
21.62
21.28
20.92
20.53
20.10
19.60
19.02
18.32
17.50
16.53
15.41
14.08
12.53
10.79
8.93
7.10
5.39
3.85
2.44
1.05
-0.37
-1.85
-3.36
-4.88
-6.46
-8.17
-10.05
-11.98
-13.80
-15.31
-16.48
-17.46
-18.53
-19.98
-21.94
-24.35
-27.00
-29.59
-31.80
-33.33
-33.90
-33.33
-31.58
-28.79
-25.27
-21.36
-17.36
-13.39
-9.47
-5.55
-1.65
2.12
5.57
8.48
10.75
12.36
13.46
14.22
14.82
15.39
15.94
16.39
16.69
16.81
16.79
16.71
16.64
16.59
16.50
16.29
15.90
15.36
14.76
14.20
13.71
13.22
12.54
11.47
9.93
7.95
5.73
3.53
1.60
0.09
-1.02
-1.86
-2.61
-3.46
-4.57
-6.06
-7.91
-10.05
-12.32
-14.56
-16.63
-18.50
-20.24
-22.02
-24.01
-26.37
-29.10
-32.01
-34.73
-36.77
-37.63
-36.99
-34.83
-31.40
-27.19
-22.69
-18.29
-14.16
-10.25
-6.42
-2.53
1.44
5.44
9.29
12.81
15.83
18.26
20.09
21.38
22.20
22.61
22.69
22.56
22.37
22.29
22.40
22.73
23.12
23.39
23.34
22.89
22.12
21.16
20.16
19.22
18.32
17.38
16.34
15.15
13.81
12.37
10.88
9.36
7.82
6.29
4.79
3.35
1.99
0.68
-0.70
-2.25
-4.10
-6.29
-8.78
-11.45
-14.14
-16.70
-19.06
-21.21
-23.22
-25.16
-27.19
-29.42
-32.00
-34.92
-38.02
-40.93
-43.16
-44.21
-43.80
-41.91
-38.80
-34.85
-30.48
-25.97
-21.54
-17.26
-13.18
-9.25
-5.41
-1.59
2.23
5.98
9.48
12.52
14.93
16.62
17.64
18.13
18.26
18.26
18.29
18.48
18.88
19.46
20.07
20.57
20.79
20.66
20.22
19.53
18.70
17.79
16.82
15.75
14.56
13.21
11.74
10.17
8.54
6.88
5.23
3.65
2.20
0.91
-0.24
-1.39
-2.71
-4.38
-6.46
-8.88
-11.38
-13.68
-15.57
-16.98
-18.11
-19.29
-20.88
-23.13
-26.05
-29.44
-32.90
-35.90
-37.92
-38.56
-37.60
-35.04
-31.15
-26.35
-21.13
-15.91
-10.95
-6.29
-1.84
2.54
6.90
11.16
15.16
18.66
21.47
23.53
24.89
25.72
26.21
26.53
26.77
26.95
27.08
27.19
27.30
27.42
27.50
27.42
27.04
26.28
25.16
23.77
22.22
20.54
18.71
16.69
14.50
12.28
10.19
8.40
6.87
5.44
3.90
2.02
-0.24
-2.81
-5.54
-8.30
-11.02
-13.69
-16.33
-19.02
-21.84
-24.91
-28.34
-32.07
-35.78
-38.97
-41.01
-41.42
-40.01
-37.00
-32.83
-27.98
-22.78
-17.42
-11.95
-6.45
-1.00
4.25
9.21
13.80
17.96
21.58
24.53
26.69
28.10
28.88
29.22
29.36
29.38
29.30
29.10
28.77
28.35
27.90
27.50
27.15
26.81
26.42
25.88
25.13
24.12
22.85
21.36
19.69
17.93
16.11
14.25
12.39
10.55
8.79
7.11
5.48
3.84
2.10
0.26
-1.67
-3.60
-5.46
-7.25
-9.00
-10.81
-12.78
-14.93
-17.24
-19.62
-21.99
-24.29
-26.55
-28.88
-31.44
-34.34
-37.61
-41.07
-44.34
-46.93
-48.34
-48.17
-46.25
-42.68
-37.79
-32.06
-26.01
-20.01
-14.32
-8.99
-3.96
0.88
5.60
10.18
14.52
18.46
21.85
24.52
26.39
27.46
27.84
27.73
27.41
27.13
27.05
27.18
27.47
27.72
27.78
27.53
26.94
26.06
25.00
23.89
22.85
21.94
21.12
20.32
19.44
18.44
17.28
16.00
14.63
13.23
11.85
10.52
9.24
7.99
6.72
5.36
3.88
2.27
0.53
-1.35
-3.41
-5.70
-8.20
-10.86
-13.56
-16.18
-18.66
-21.01
-23.29
-25.53
-27.79
-30.13
-32.63
-35.41
-38.48
-41.69
-44.66
-46.86
-47.72
-46.87
-44.21
-39.92
-34.44
-28.26
-21.90
-15.74
-10.00
-4.73
0.15
4.81
9.32
13.64
17.62
21.02
23.69
25.61
26.89
27.71
28.23
28.53
28.65
28.62
28.49
28.36
28.31
28.35
28.38
28.25
27.77
26.85
25.55
24.02
22.43
20.92
19.53
18.21
16.91
15.61
14.27
12.86
11.32
9.57
7.61
5.56
3.56
1.80
0.30
-1.04
-2.45
-4.13
-6.17
-8.48
-10.89
-13.20
-15.32
-17.24
-19.06
-20.86
-22.70
-24.67
-26.83
-29.25
-31.96
-34.81
-37.46
-39.43
-40.19
-39.38
-36.95
-33.14
-28.40
-23.20
-17.85
-12.53
-7.27
-2.11
2.83
7.38
11.35
14.64
17.27
19.37
21.08
22.48
23.56
24.27
24.59
24.54
24.28
23.94
23.63
23.38
23.15
22.82
22.33
21.61
20.65
19.50
18.20
16.81
15.35
13.82
12.18
10.42
8.55
6.66
4.89
3.31
1.95
0.72
-0.56
-2.07
-3.96
-6.25
-8.83
-11.53
-14.14
-16.50
-18.61
-20.56
-22.52
-24.70
-27.20
-30.08
-33.22
-36.46
-39.49
-41.96
-43.46
-43.61
-42.18
-39.20
-34.93
-29.83
-24.38
-18.95
-13.75
-8.79
-4.02
0.61
5.04
9.17
12.85
16.00
18.60
20.69
22.36
23.67
24.71
25.50
26.02
26.28
26.28
26.10
25.81
25.53
25.32
25.16
24.93
24.50
23.75
22.67
21.34
19.88
18.41
16.97
15.50
13.94
12.26
10.50
8.76
7.15
5.73
4.46
3.17
1.70
-0.09
-2.19
-4.50
-6.84
-9.04
-11.05
-12.89
-14.71
-16.61
-18.64
-20.79
-23.08
-25.55
-28.33
-31.46
-34.82
-38.02
-40.46
-41.56
-40.94
-38.62
-34.98
-30.62
-26.06
-21.60
-17.30
-13.06
-8.76
-4.33
0.18
4.61
8.81
12.63
15.96
18.73
20.96
22.68
23.99
25.01
25.87
26.68
27.56
28.55
29.63
30.71
31.67
32.35
32.62
32.39
31.63
30.38
28.73
26.85
24.89
23.01
21.27
19.65
18.09
16.45
14.63
12.54
10.14
7.46
4.64
1.82
-0.84
-3.31
-5.66
-8.06
-10.65
-13.48
-16.47
-19.45
-22.30
-24.94
-27.44
-29.93
-32.54
-35.36
-38.39
-41.56
-44.71
-47.56
-49.78
-51.03
-50.98
-49.48
-46.62
-42.68
-38.10
-33.31
-28.60
-24.07
-19.65
-15.21
-10.72
-6.28
-2.10
1.56
4.55
6.92
8.80
10.38
11.78
13.06
14.21
15.27
16.31
17.42
18.64
19.93
21.14
22.07
22.62
22.77
22.63
22.36
22.08
21.76
21.33
20.63
19.58
18.24
16.71
15.14
13.62
12.14
10.63
8.95
7.01
4.82
2.43
-0.03
-2.42
-4.63
-6.61
-8.38
-10.02
-11.70
-13.62
-15.94
-18.74
-21.91
-25.08
-27.74
-29.29
-29.30
-27.63
-24.51
-20.42
-15.95
-11.55
-7.45
-3.62
0.05
3.65
7.18
10.47
13.34
15.65
17.34
18.49
19.20
19.58
19.69
19.60
19.38
19.13
18.96
18.94
19.04
19.20
19.28
19.20
18.95
18.57
18.11
17.58
16.94
16.10
15.04
13.75
12.30
10.82
9.40
8.06
6.77
5.45
4.01
2.39
0.59
-1.32
-3.32
-5.37
-7.49
-9.67
-11.92
-14.19
-16.50
-18.88
-21.45
-24.32
-27.50
-30.84
-33.95
-36.29
-37.40
-37.03
-35.27
-32.44
-29.01
-25.32
-21.56
-17.72
-13.73
-9.55
-5.22
-0.79
3.64
8.00
12.16
15.99
19.32
22.01
24.04
25.45
26.36
26.92
27.23
27.38
27.44
27.49
27.57
27.71
27.85
27.90
27.77
27.41
26.81
25.94
24.85
23.57
22.19
20.80
19.49
18.26
17.07
15.86
14.57
13.17
11.68
10.11
8.47
6.75
4.93
3.07
1.19
-0.69
-2.62
-4.66
-6.89
-9.32
-11.93
-14.66
-17.42
-20.17
-22.88
-25.55
-28.23
-30.98
-33.87
-36.86
-39.73
-42.08
-43.44
-43.44
-41.96
-39.19
-35.56
-31.50
-27.34
-23.21
-19.10
-14.94
-10.72
-6.44
-2.19
1.95
5.85
9.37
12.35
14.69
16.40
17.58
18.40
19.00
19.46
19.78
19.98
20.14
20.36
20.74
21.26
21.77
22.07
21.99
21.49
20.66
19.70
18.74
17.86
17.01
16.14
15.21
14.27
13.39
12.60
11.87
11.07
10.07
8.80
7.27
5.61
3.96
2.41
1.00
-0.31
-1.56
-2.78
-3.96
-5.14
-6.35
-7.64
-9.06
-10.59
-12.18
-13.81
-15.48
-17.26
-19.23
-21.43
-23.79
-26.11
-28.09
-29.40
-29.79
-29.13
-27.47
-24.99
-21.98
-18.72
-15.39
-12.06
-8.67
-5.13
-1.45
2.26
5.75
8.79
11.13
12.74
13.65
14.03
14.09
14.01
13.92
13.90
13.98
14.17
14.47
14.82
15.15
15.37
15.45
15.38
15.26
15.16
15.13
15.16
15.18
15.07
14.73
14.15
13.34
12.35
11.27
10.18
9.13
8.14
7.21
6.29
5.28
4.09
2.69
1.05
-0.81
-2.84
-4.96
-7.06
-9.01
-10.73
-12.21
-13.51
-14.79
-16.23
-17.97
-20.09
-22.56
-25.19
-27.70
-29.66
-30.67
-30.42
-28.84
-26.13
-22.73
-19.07
-15.48
-12.05
-8.73
-5.38
-1.96
1.45
4.72
7.70
10.27
12.34
13.86
14.82
15.22
15.16
14.74
14.15
13.54
13.05
12.73
12.61
12.63
12.72
12.78
12.73
12.52
12.18
11.76
11.35
11.00
10.79
10.73
10.83
11.07
11.39
11.66
11.78
11.64
11.23
10.58
9.73
8.71
7.55
6.24
4.82
3.38
1.98
0.68
-0.54
-1.72
-2.96
-4.31
-5.82
-7.48
-9.24
-11.02
-12.72
-14.30
-15.73
-17.05
-18.36
-19.77
-21.39
-23.27
-25.36
-27.48
-29.32
-30.51
-30.73
-29.80
-27.77
-24.89
-21.55
-18.10
-14.77
-11.64
-8.65
-5.71
-2.76
0.16
2.98
5.62
8.04
10.23
12.19
13.92
15.33
16.34
16.86
16.89
16.54
15.96
15.36
14.84
14.42
14.06
13.67
13.22
12.72
12.19
11.65
11.11
10.55
9.98
9.45
9.00
8.66
8.38
8.08
7.67
7.10
6.35
5.47
4.47
3.38
2.25
1.17
0.22
-0.54
-1.15
-1.72
-2.45
-3.50
-4.91
-6.65
-8.56
-10.50
-12.35
-14.05
-15.60
-17.01
-18.34
-19.67
-21.14
-22.89
-24.98
-27.36
-29.79
-31.89
-33.22
-33.42
-32.36
-30.15
-27.07
-23.48
-19.67
-15.83
-12.02
-8.25
-4.53
-0.91
2.52
5.69
8.55
11.07
13.23
15.01
16.41
17.40
17.99
18.21
18.13
17.89
17.62
17.45
17.40
17.41
17.38
17.21
16.86
16.39
15.91
15.46
15.03
14.48
13.65
12.46
11.00
9.41
7.89
6.57
5.42
4.34
3.19
1.90
0.50
-0.91
-2.24
-3.44
-4.56
-5.72
-7.01
-8.49
-10.12
-11.85
-13.56
-15.20
-16.76
-18.29
-19.89
-21.68
-23.74
-26.11
-28.69
-31.31
-33.69
-35.48
-36.36
-36.07
-34.54
-31.89
-28.40
-24.41
-20.24
-16.09
-12.07
-8.18
-4.41
-0.76
2.73
6.01
8.99
11.58
13.71
15.32
16.43
17.13
17.55
17.86
18.18
18.56
18.98
19.38
19.69
19.89
20.00
20.06
20.08
19.95
19.55
18.76
17.60
16.14
14.54
12.96
11.46
10.02
8.61
7.23
5.90
4.64
3.39
2.01
0.31
-1.81
-4.32
-7.04
-9.74
-12.24
-14.48
-16.55
-18.64
-20.94
-23.59
-26.59
-29.76
-32.74
-35.04
-36.19
-35.84
-33.93
-30.64
-26.35
-21.47
-16.38
-11.33
-6.47
-1.85
2.50
6.59
10.40
13.92
17.11
19.94
22.33
24.22
25.55
26.29
26.54
26.42
26.12
25.80
25.57
25.44
25.33
25.14
24.78
24.19
23.34
22.28
21.01
19.59
18.12
16.67
15.29
13.98
12.64
11.14
9.42
7.45
5.31
3.16
1.14
-0.66
-2.25
-3.71
-5.18
-6.78
-8.58
-10.57
-12.72
-14.95
-17.25
-19.60
-22.03
-24.57
-27.26
-30.16
-33.34
-36.81
-40.52
-44.20
-47.45
-49.74
-50.58
-49.66
-46.97
-42.80
-37.60
-31.85
-25.96
-20.16
-14.51
-9.00
-3.58
1.78
7.04
12.09
16.79
20.97
24.46
27.21
29.26
30.74
31.84
32.68
33.37
33.93
34.36
34.66
34.86
35.01
35.10
35.10
34.96
34.65
34.18
33.65
33.14
32.66
32.12
31.39
30.32
28.87
27.09
25.09
23.02
20.97
19.03
17.24
15.61
14.15
12.79
11.38
9.78
7.90
5.69
3.25
0.68
-1.96
-4.66
-7.44
-10.30
-13.20
-16.05
-18.78
-21.41
-24.06
-26.94
-30.21
-33.94
-37.96
-41.83
-44.99
-46.85
-47.04
-45.51
-42.51
-38.55
-34.11
-29.58
-25.10
-20.71
-16.36
-12.06
-7.84
-3.75
0.20
4.00
7.63
11.01
13.98
16.41
18.21
19.42
20.16
20.61
20.93
21.23
21.55
21.87
22.13
22.25
22.21
22.02
21.75
21.44
21.10
20.68
20.17
19.54
18.84
18.13
17.42
16.65
15.68
14.41
12.81
10.99
9.15
7.47
6.05
4.87
3.76
2.56
1.12
-0.63
-2.68
-5.00
-7.53
-10.24
-13.08
-16.00
-18.91
-21.74
-24.46
-27.08
-29.69
-32.36
-35.05
-37.53
-39.45
-40.34
-39.85
-37.84
-34.47
-30.11
-25.21
-20.20
-15.28
-10.51
-5.82
-1.16
3.43
7.80
11.77
15.17
17.98
20.24
22.08
23.56
24.71
25.50
25.94
26.09
26.09
26.10
26.26
26.62
27.10
27.54
27.71
27.46
26.73
25.62
24.31
22.98
21.72
20.48
19.10
17.43
15.44
13.20
10.89
8.70
6.73
4.92
3.20
1.43
-0.49
-2.60
-4.89
-7.29
-9.71
-12.03
-14.17
-16.13
-18.03
-20.06
-22.42
-25.22
-28.35
-31.48
-34.11
-35.75
-36.03
-34.84
-32.32
-28.81
-24.72
-20.36
-15.95
-11.56
-7.22
-2.94
1.26
5.30
9.11
12.58
15.63
18.17
20.17
21.61
22.55
23.05
23.17
22.98
22.59
22.09
21.64
21.35
21.28
21.34
21.39
21.24
20.78
19.99
18.97
17.85
16.72
15.67
14.70
13.79
12.95
12.13
11.32
10.45
9.50
8.45
7.30
6.09
4.84
3.59
2.34
1.13
-0.08
-1.30
-2.61
-4.08
-5.80
-7.75
-9.86
-11.99
-14.00
-15.81
-17.40
-18.86
-20.29
-21.85
-23.62
-25.70
-28.08
-30.67
-33.26
-35.53
-37.14
-37.77
-37.21
-35.44
-32.55
-28.77
-24.38
-19.61
-14.70
-9.79
-4.98
-0.39
3.96
7.99
11.69
15.00
17.88
20.23
21.96
22.99
23.37
23.27
22.92
22.57
22.38
22.38
22.50
22.64
22.71
22.66
22.41
21.90
21.05
19.87
18.43
16.87
15.35
13.98
12.82
11.88
11.12
10.49
9.91
9.26
8.44
7.39
6.15
4.81
3.51
2.31
1.22
0.18
-0.91
-2.08
-3.35
-4.70
-6.10
-7.55
-9.07
-10.66
-12.34
-14.07
-15.76
-17.34
-18.77
-20.06
-21.33
-22.76
-24.48
-26.59
-28.99
-31.47
-33.62
-35.04
-35.35
-34.36
-32.12
-28.87
-24.95
-20.69
-16.33
-12.00
-7.75
-3.63
0.31
3.98
7.34
10.39
13.15
15.59
17.65
19.20
20.14
20.47
20.29
19.83
19.28
18.82
18.52
18.35
18.21
17.98
17.56
16.84
15.86
14.67
13.43
12.26
11.22
10.26
9.25
8.08
6.72
5.24
3.81
2.57
1.54
0.66
-0.21
-1.19
-2.31
-3.58
-4.94
-6.34
-7.73
-9.14
-10.52
-11.86
-13.12
-14.27
-15.33
-16.36
-17.49
-18.86
-20.57
-22.62
-24.84
-26.97
-28.69
-29.69
-29.73
-28.76
-26.82
-24.07
-20.71
-16.92
-12.85
-8.65
-4.48
-0.54
2.98
5.93
8.25
10.01
11.35
12.44
13.42
14.37
15.32
16.23
17.05
17.70
18.08
18.17
17.99
17.67
17.29
16.92
16.55
16.08
15.47
14.72
13.93
13.21
12.57
11.92
11.12
10.04
8.64
7.02
5.28
3.56
1.93
0.42
-0.94
-2.14
-3.21
-4.24
-5.35
-6.69
-8.31
-10.16
-12.12
-14.02
-15.75
-17.23
-18.50
-19.69
-21.00
-22.66
-24.81
-27.40
-30.18
-32.67
-34.32
-34.76
-33.81
-31.57
-28.37
-24.54
-20.39
-16.11
-11.80
-7.53
-3.40
0.50
4.09
7.33
10.22
12.79
15.03
16.91
18.39
19.41
19.97
20.14
20.01
19.72
19.37
19.04
18.76
18.56
18.42
18.31
18.16
17.82
17.23
16.34
15.22
14.01
12.86
11.88
11.09
10.44
9.78
8.99
7.96
6.67
5.17
3.62
2.13
0.75
-0.58
-1.97
-3.55
-5.31
-7.15
-8.87
-10.33
-11.49
-12.45
-13.39
-14.47
-15.80
-17.40
-19.29
-21.47
-23.89
-26.43
-28.86
-30.81
-31.89
-31.85
-30.61
-28.31
-25.27
-21.82
-18.22
-14.55
-10.82
-7.00
-3.17
0.52
3.86
6.71
9.02
10.87
12.37
13.62
14.68
15.60
16.43
17.24
18.11
19.07
20.04
20.89
21.47
21.70
21.58
21.15
20.50
19.60
18.48
17.12
15.61
14.10
12.75
11.58
10.54
9.47
8.22
6.71
5.05
3.41
1.98
0.87
-0.05
-0.97
-2.15
-3.72
-5.69
-7.89
-10.13
-12.21
-14.06
-15.70
-17.22
-18.74
-20.40
-22.30
-24.50
-26.98
-29.60
-32.07
-33.99
-34.94
-34.64
-33.03
-30.23
-26.53
-22.31
-17.89
-13.50
-9.25
-5.10
-1.00
3.11
7.17
11.00
14.38
17.12
19.17
20.56
21.45
21.94
22.14
22.09
21.89
21.69
21.63
21.79
22.09
22.35
22.38
22.03
21.32
20.31
19.14
17.84
16.41
14.82
13.06
11.18
9.28
7.47
5.81
4.30
2.83
1.24
-0.60
-2.78
-5.26
-7.91
-10.55
-13.06
-15.40
-17.63
-19.85
-22.21
-24.74
-27.47
-30.33
-33.22
-35.93
-38.19
-39.63
-39.90
-38.75
-36.16
-32.36
-27.77
-22.91
-18.20
-13.88
-9.95
-6.27
-2.69
0.88
4.39
7.72
10.71
13.31
15.48
17.26
18.64
19.61
20.19
20.45
20.48
20.42
20.37
20.38
20.41
20.43
20.36
20.15
19.77
19.19
18.43
17.54
16.59
15.67
14.75
13.76
12.56
11.07
9.29
7.33
5.39
3.60
2.07
0.75
-0.45
-1.67
-3.06
-4.67
-6.51
-8.50
-10.59
-12.71
-14.85
-17.02
-19.25
-21.58
-24.05
-26.71
-29.55
-32.49
-35.27
-37.44
-38.50
-38.04
-35.91
-32.26
-27.56
-22.31
-16.93
-11.61
-6.38
-1.19
3.92
8.83
13.37
17.42
20.92
23.90
26.36
28.27
29.56
30.21
30.25
29.82
29.08
28.20
27.29
26.40
25.54
24.72
23.91
23.06
22.10
20.98
19.68
18.22
16.67
15.07
13.50
11.94
10.36
8.70
6.90
4.95
2.92
0.95
-0.79
-2.17
-3.20
-4.02
-4.89
-6.06
-7.72
-9.90
-12.48
-15.20
-17.82
-20.13
-22.06
-23.74
-25.40
-27.33
-29.73
-32.59
-35.63
-38.40
-40.39
-41.16
-40.52
-38.54
-35.45
-31.55
-27.11
-22.31
-17.28
-12.14
-7.03
-2.08
2.57
6.83
10.65
13.99
16.85
19.24
21.19
22.78
24.08
25.12
25.92
26.48
26.80
26.87
26.71
26.30
25.62
24.71
23.63
22.50
21.44
20.48
19.54
18.46
17.06
15.23
13.00
10.50
7.93
5.48
3.24
1.26
-0.51
-2.14
-3.74
-5.39
-7.12
-8.92
-10.72
-12.45
-14.06
-15.54
-17.00
-18.58
-20.51
-22.98
-26.07
-29.65
-33.32
-36.50
-38.61
-39.20
-38.13
-35.50
-31.63
-26.85
-21.49
-15.79
-9.97
-4.23
1.28
6.43
11.15
15.41
19.22
22.56
25.38
27.64
29.32
30.43
31.06
31.32
31.32
31.19
30.98
30.72
30.40
29.98
29.41
28.70
27.84
26.84
25.69
24.43
23.06
21.65
20.28
18.96
17.70
16.45
15.16
13.75
12.17
10.40
8.46
6.39
4.25
2.12
0.02
-2.08
-4.25
-6.54
-8.94
-11.38
-13.71
-15.82
-17.70
-19.44
-21.24
-23.26
-25.62
-28.33
-31.31
-34.44
-37.51
-40.29
-42.49
-43.77
-43.80
-42.32
-39.25
-34.68
-28.97
-22.60
-16.05
-9.68
-3.63
2.11
7.61
12.88
17.85
22.36
26.29
29.66
32.52
35.00
37.10
38.77
39.89
40.42
40.42
40.05
39.50
38.88
38.14
37.15
35.75
33.82
31.41
28.69
25.89
23.25
20.84
18.66
16.55
14.39
12.07
9.61
7.09
4.59
2.17
-0.18
-2.43
-4.58
-6.58
-8.39
-10.01
-11.55
-13.15
-14.94
-16.96
-19.17
-21.46
-23.70
-25.78
-27.64
-29.31
-30.87
-32.52
-34.43
-36.79
-39.65
-42.91
-46.27
-49.27
-51.36
-52.04
-50.96
-48.10
-43.73
-38.34
-32.48
-26.51
-20.57
-14.59
-8.47
-2.22
4.01
9.92
15.27
19.91
23.83
27.08
29.67
31.55
32.69
33.12
33.00
32.55
31.96
31.30
30.51
29.48
28.18
26.70
25.22
23.89
22.72
21.59
20.32
18.79
17.09
15.36
13.76
12.31
10.88
9.27
7.35
5.11
2.70
0.34
-1.78
-3.58
-5.06
-6.32
-7.48
-8.72
-10.16
-11.89
-13.90
-16.06
-18.24
-20.31
-22.28
-24.29
-26.56
-29.27
-32.43
-35.86
-39.13
-41.73
-43.18
-43.18
-41.64
-38.68
-34.52
-29.44
-23.74
-17.66
-11.45
-5.33
0.53
5.96
10.87
15.20
18.93
22.06
24.64
26.69
28.29
29.47
30.34
30.98
31.51
31.98
32.41
32.76
32.92
32.82
32.44
31.77
30.83
29.64
28.22
26.63
24.95
23.27
21.65
20.03
18.34
16.49
14.45
12.25
9.96
7.66
5.37
3.09
0.80
-1.51
-3.88
-6.35
-8.97
-11.75
-14.63
-17.48
-20.17
-22.66
-25.03
-27.49
-30.31
-33.67
-37.59
-41.86
-46.07
-49.67
-52.12
-53.01
-52.18
-49.73
-45.92
-41.13
-35.67
-29.78
-23.62
-17.32
-11.01
-4.84
1.03
6.44
11.26
15.36
18.69
21.28
23.25
24.81
26.12
27.32
28.40
29.30
30.00
30.49
30.81
31.01
31.05
30.87
30.40
29.62
28.59
27.45
26.35
25.38
24.57
23.86
23.09
22.12
20.83
19.21
17.37
15.44
13.59
11.88
10.26
8.64
6.91
5.08
3.15
1.15
-0.97
-3.26
-5.77
-8.45
-11.13
-13.65
-15.87
-17.84
-19.70
-21.66
-23.96
-26.75
-30.06
-33.77
-37.53
-40.86
-43.17
-43.96
-42.94
-40.21
-36.14
-31.31
-26.24
-21.33
-16.74
-12.42
-8.27
-4.18
-0.14
3.81
7.58
11.11
14.33
17.17
19.53
21.27
22.34
22.78
22.79
22.70
22.81
23.27
24.00
24.78
25.33
25.50
25.27
24.73
24.00
23.14
22.16
21.04
19.83
18.61
17.50
16.54
15.71
14.84
13.71
12.14
10.08
7.65
5.07
2.65
0.58
-1.00
-2.16
-3.10
-4.08
-5.39
-7.21
-9.57
-12.32
-15.20
-17.90
-20.18
-22.00
-23.47
-24.83
-26.35
-28.25
-30.65
-33.51
-36.61
-39.51
-41.66
-42.48
-41.59
-38.95
-34.89
-29.95
-24.71
-19.54
-14.56
-9.71
-4.88
-0.06
4.71
9.26
13.50
17.36
20.77
23.63
25.81
27.23
27.92
28.02
27.81
27.52
27.24
26.95
26.50
25.78
24.77
23.54
22.21
20.89
19.64
18.41
17.15
15.82
14.44
13.05
11.72
10.43
9.14
7.80
6.36
4.85
3.35
1.95
0.69
-0.43
-1.46
-2.49
-3.60
-4.83
-6.21
-7.71
-9.27
-10.82
-12.33
-13.80
-15.35
-17.13
-19.27
-21.78
-24.55
-27.33
-29.81
-31.70
-32.72
-32.62
-31.22
-28.52
-24.70
-20.13
-15.29
-10.57
-6.17
-2.07
1.89
5.85
9.81
13.59
16.96
19.74
21.86
23.43
24.60
25.49
26.15
26.54
26.62
26.38
25.90
25.31
24.71
24.10
23.39
22.51
21.38
20.06
18.65
17.26
15.94
14.64
13.29
11.83
10.27
8.64
7.01
5.38
3.67
1.86
-0.05
-1.98
-3.78
-5.34
-6.64
-7.76
-8.87
-10.14
-11.70
-13.55
-15.60
-17.69
-19.65
-21.38
-22.80
-23.96
-24.96
-25.99
-27.24
-28.92
-31.11
-33.67
-36.22
-38.20
-38.98
-38.17
-35.70
-31.89
-27.28
-22.43
-17.68
-13.10
-8.57
-3.94
0.79
5.45
9.77
13.53
16.64
19.20
21.38
23.27
24.87
26.05
26.67
26.76
26.48
26.14
26.02
26.25
26.69
27.08
27.09
26.54
25.44
23.97
22.32
20.67
19.09
17.61
16.23
14.94
13.70
12.48
11.21
9.86
8.41
6.91
5.34
3.67
1.86
-0.10
-2.15
-4.19
-6.11
-7.88
-9.55
-11.20
-12.87
-14.57
-16.32
-18.12
-20.00
-21.96
-23.99
-26.03
-28.06
-30.12
-32.26
-34.47
-36.63
-38.47
-39.66
-39.92
-39.12
-37.29
-34.56
-31.12
-27.13
-22.78
-18.23
-13.66
-9.21
-5.01
-1.12
2.43
5.61
8.41
10.79
12.76
14.33
15.54
16.47
17.20
17.81
18.29
18.60
18.68
18.50
18.14
17.71
17.36
17.14
16.96
16.66
16.09
15.21
14.09
12.91
11.83
10.92
10.13
9.39
8.60
7.73
6.84
6.00
5.27
4.63
3.95
3.05
1.79
0.14
-1.83
-3.89
-5.81
-7.45
-8.76
-9.88
-10.96
-12.16
-13.57
-15.24
-17.17
-19.31
-21.60
-23.84
-25.76
-27.01
-27.28
-26.39
-24.35
-21.35
-17.74
-13.82
-9.81
-5.80
-1.82
2.13
5.95
9.52
12.72
15.47
17.79
19.71
21.18
22.09
22.32
21.84
20.81
19.55
18.43
17.68
17.31
17.11
16.80
16.16
15.11
13.74
12.20
10.66
9.22
7.95
6.84
5.92
5.16
4.51
3.90
3.27
2.56
1.78
0.99
0.31
-0.22
-0.59
-0.92
-1.41
-2.24
-3.51
-5.16
-7.04
-8.95
-10.78
-12.44
-13.93
-15.28
-16.49
-17.60
-18.73
-20.01
-21.62
-23.64
-26.02
-28.53
-30.82
-32.48
-33.20
-32.74
-31.07
-28.29
-24.64
-20.40
-15.88
-11.30
-6.81
-2.50
1.60
5.45
9.05
12.37
15.40
18.09
20.34
22.06
23.13
23.54
23.40
22.89
22.20
21.49
20.80
20.19
19.66
19.26
19.02
18.89
18.78
18.51
17.95
17.06
15.87
14.50
13.07
11.65
10.26
8.92
7.61
6.38
5.22
4.14
3.16
2.24
1.39
0.58
-0.18
-0.89
-1.61
-2.38
-3.29
-4.40
-5.76
-7.36
-9.19
-11.21
-13.41
-15.72
-18.07
-20.36
-22.53
-24.62
-26.76
-29.14
-31.88
-34.89
-37.84
-40.20
-41.44
-41.19
-39.35
-36.18
-32.09
-27.53
-22.87
-18.31
-13.87
-9.54
-5.31
-1.24
2.61
6.10
9.16
11.79
14.03
15.92
17.48
18.71
19.59
20.13
20.45
20.68
20.93
21.23
21.57
21.86
22.04
22.09
21.98
21.70
21.22
20.53
19.64
18.62
17.57
16.60
15.74
14.97
14.22
13.39
12.42
11.29
10.00
8.60
7.12
5.60
4.11
2.63
1.19
-0.21
-1.54
-2.81
-4.03
-5.26
-6.57
-8.04
-9.69
-11.49
-13.41
-15.40
-17.47
-19.69
-22.13
-24.84
-27.80
-30.82
-33.54
-35.53
-36.37
-35.82
-33.90
-30.89
-27.20
-23.18
-19.08
-14.97
-10.87
-6.81
-2.90
0.74
3.96
6.71
8.98
10.83
12.34
13.59
14.65
15.57
16.37
17.04
17.63
18.15
18.68
19.24
19.78
20.24
20.52
20.54
20.29
19.80
19.17
18.45
17.74
17.07
16.43
15.77
14.99
13.97
12.66
11.07
9.28
7.41
5.50
3.57
1.58
-0.51
-2.68
-4.86
-6.97
-8.91
-10.69
-12.37
-14.03
-15.79
-17.71
-19.85
-22.29
-25.07
-28.15
-31.35
-34.31
-36.53
-37.58
-37.18
-35.38
-32.45
-28.78
-24.74
-20.52
-16.21
-11.83
-7.42
-3.06
1.12
4.97
8.39
11.28
13.64
15.46
16.80
17.77
18.49
19.07
19.62
20.16
20.69
21.16
21.49
21.65
21.66
21.55
21.41
21.30
21.23
21.15
20.98
20.65
20.14
19.49
18.72
17.89
16.99
15.98
14.81
13.43
11.81
9.99
8.05
6.04
4.03
2.05
0.06
-1.97
-4.07
-6.22
-8.39
-10.53
-12.60
-14.60
-16.54
-18.49
-20.49
-22.65
-25.08
-27.89
-31.10
-34.56
-37.94
-40.73
-42.42
-42.65
-41.33
-38.68
-35.07
-30.91
-26.50
-21.99
-17.46
-12.98
-8.60
-4.41
-0.42
3.41
7.11
10.68
14.01
16.97
19.42
21.36
22.79
23.84
24.62
25.25
25.84
26.46
27.10
27.67
28.01
27.96
27.46
26.59
25.52
24.45
23.47
22.63
21.85
21.05
20.15
19.10
17.88
16.48
14.91
13.18
11.36
9.54
7.82
6.26
4.90
3.67
2.44
1.05
-0.66
-2.77
-5.18
-7.74
-10.25
-12.58
-14.76
-16.93
-19.25
-21.86
-24.79
-28.01
-31.43
-34.94
-38.35
-41.34
-43.49
-44.38
-43.67
-41.33
-37.61
-33.00
-28.02
-23.06
-18.31
-13.78
-9.35
-4.95
-0.58
3.71
7.83
11.67
15.12
18.07
20.45
22.22
23.45
24.31
24.97
25.57
26.13
26.59
26.87
26.97
26.93
26.85
26.74
26.56
26.19
25.57
24.70
23.68
22.60
21.47
20.21
18.69
16.81
14.64
12.35
10.14
8.17
6.49
4.99
3.50
1.86
-0.03
-2.17
-4.47
-6.83
-9.19
-11.54
-13.93
-16.45
-19.13
-21.99
-25.03
-28.21
-31.45
-34.58
-37.34
-39.40
-40.39
-40.04
-38.27
-35.23
-31.27
-26.76
-22.04
-17.29
-12.56
-7.77
-2.86
2.12
7.03
11.56
15.45
18.51
20.73
22.28
23.42
24.37
25.23
26.00
26.56
26.86
26.92
26.81
26.60
26.33
25.96
25.41
24.63
23.57
22.27
20.74
19.04
17.19
15.27
13.36
11.54
9.86
8.28
6.69
4.96
2.98
0.70
-1.83
-4.53
-7.28
-9.98
-12.61
-15.16
-17.70
-20.31
-23.08
-26.05
-29.09
-31.85
-33.86
-34.57
-33.64
-31.02
-27.03
-22.19
-17.10
-12.14
-7.50
-3.11
1.17
5.46
9.73
13.80
17.43
20.40
22.53
23.82
24.38
24.42
24.18
23.83
23.46
23.08
22.67
22.20
21.68
21.08
20.35
19.38
18.09
16.48
14.65
12.82
11.21
9.96
9.06
8.36
7.63
6.67
5.41
3.86
2.15
0.41
-1.24
-2.78
-4.24
-5.69
-7.24
-8.94
-10.78
-12.66
-14.46
-16.09
-17.56
-19.03
-20.72
-22.78
-25.25
-27.94
-30.49
-32.46
-33.49
-33.36
-32.05
-29.74
-26.63
-22.97
-18.93
-14.61
-10.06
-5.37
-0.63
4.00
8.37
12.33
15.71
18.39
20.26
21.30
21.61
21.42
21.02
20.66
20.40
20.18
19.83
19.22
18.36
17.42
16.56
15.90
15.38
14.86
14.14
13.11
11.82
10.36
8.86
7.37
5.86
4.25
2.48
0.54
-1.50
-3.54
-5.49
-7.26
-8.81
-10.17
-11.41
-12.68
-14.15
-15.95
-18.16
-20.75
-23.57
-26.37
-28.82
-30.57
-31.31
-30.86
-29.12
-26.22
-22.40
-17.99
-13.33
-8.67
-4.17
0.15
4.28
8.20
11.86
15.17
18.05
20.44
22.35
23.78
24.73
25.24
25.35
25.17
24.87
24.59
24.42
24.33
24.23
23.97
23.40
22.47
21.20
19.67
18.05
16.51
15.17
14.09
13.21
12.42
11.57
10.57
9.38
8.05
6.67
5.31
4.02
2.76
1.47
0.05
-1.54
-3.32
-5.25
-7.27
-9.29
-11.27
-13.17
-15.00
-16.75
-18.46
-20.20
-22.04
-24.14
-26.60
-29.40
-32.34
-35.02
-36.91
-37.52
-36.59
-34.15
-30.58
-26.37
-22.00
-17.74
-13.61
-9.52
-5.36
-1.11
3.07
6.98
10.43
13.31
15.65
17.57
19.17
20.53
21.62
22.40
22.77
22.73
22.35
21.73
21.02
20.31
19.62
18.93
18.21
17.47
16.81
16.28
15.93
15.69
15.35
14.73
13.69
12.24
10.56
8.92
7.55
6.53
5.78
5.05
4.13
2.88
1.32
-0.38
-2.04
-3.50
-4.74
-5.80
-6.79
-7.82
-8.96
-10.27
-11.81
-13.61
-15.67
-17.95
-20.37
-22.85
-25.29
-27.65
-29.91
-32.11
-34.26
-36.29
-37.98
-39.01
-38.99
-37.64
-34.91
-31.00
-26.29
-21.27
-16.30
-11.56
-7.09
-2.82
1.32
5.31
9.06
12.46
15.38
17.72
19.43
20.47
20.83
20.54
19.71
18.55
17.32
16.29
15.61
15.27
15.13
14.94
14.51
13.76
12.75
11.61
10.48
9.46
8.55
7.71
6.87
5.94
4.89
3.71
2.47
1.29
0.29
-0.47
-1.00
-1.42
-1.88
-2.54
-3.49
-4.76
-6.29
-8.01
-9.83
-11.63
-13.29
-14.74
-16.00
-17.25
-18.70
-20.57
-22.86
-25.32
-27.48
-28.79
-28.86
-27.56
-25.06
-21.72
-17.94
-14.01
-10.04
-6.06
-2.03
2.04
6.07
9.90
13.36
16.26
18.50
20.09
21.12
21.72
22.03
22.11
21.99
21.71
21.28
20.81
20.39
20.09
19.91
19.79
19.60
19.22
18.56
17.59
16.37
14.99
13.59
12.23
10.93
9.64
8.28
6.79
5.17
3.46
1.75
0.08
-1.52
-3.06
-4.53
-5.97
-7.35
-8.72
-10.10
-11.52
-13.00
-14.51
-16.05
-17.61
-19.26
-21.12
-23.29
-25.80
-28.53
-31.19
-33.39
-34.74
-34.98
-34.00
-31.93
-28.96
-25.40
-21.48
-17.42
-13.37
-9.43
-5.70
-2.18
1.14
4.30
7.31
10.09
12.51
14.38
15.61
16.20
16.26
15.96
15.47
14.87
14.24
13.66
13.25
13.12
13.29
13.63
13.90
13.88
13.48
12.83
12.21
11.87
11.91
12.22
12.54
12.64
12.41
11.95
11.43
10.94
10.47
9.90
9.08
7.98
6.70
5.44
4.32
3.33
2.28
0.90
-1.00
-3.44
-6.22
-9.08
-11.75
-14.12
-16.26
-18.40
-20.73
-23.39
-26.38
-29.61
-32.86
-35.85
-38.28
-39.81
-40.20
-39.33
-37.31
-34.41
-30.97
-27.31
-23.59
-19.88
-16.18
-12.44
-8.68
-4.96
-1.36
1.96
4.88
7.31
9.24
10.76
12.02
13.14
14.20
15.15
15.90
16.42
16.77
17.09
17.51
18.05
18.62
19.09
19.33
19.32
19.11
18.76
18.27
17.62
16.78
15.75
14.57
13.35
12.15
11.00
9.91
8.84
7.74
6.55
5.20
3.63
1.90
0.07
-1.72
-3.44
-5.08
-6.73
-8.53
-10.50
-12.68
-15.06
-17.65
-20.38
-23.11
-25.51
-27.14
-27.60
-26.68
-24.50
-21.43
-17.97
-14.53
-11.27
-8.19
-5.12
-1.94
1.39
4.75
7.89
10.55
12.51
13.72
14.26
14.36
14.26
14.20
14.25
14.46
14.79
15.20
15.65
16.08
16.44
16.68
16.75
16.65
16.36
15.92
15.37
14.74
14.02
13.21
12.21
10.94
9.37
7.58
5.76
4.08
2.70
1.55
0.49
-0.72
-2.24
-4.11
-6.23
-8.47
-10.72
-12.95
-15.19
-17.54
-20.10
-22.94
-26.04
-29.27
-32.31
-34.76
-36.17
-36.23
-34.83
-32.09
-28.33
-23.93
-19.23
-14.50
-9.93
-5.60
-1.55
2.23
5.78
9.09
12.13
14.78
16.94
18.51
19.51
20.01
20.21
20.28
20.39
20.63
20.99
21.40
21.73
21.82
21.58
21.03
20.31
19.61
19.10
18.85
18.77
18.67
18.37
17.75
16.83
15.73
14.60
13.50
12.38
11.12
9.63
7.90
6.05
4.26
2.66
1.29
0.07
-1.19
-2.65
-4.44
-6.54
-8.81
-11.07
-13.14
-14.98
-16.66
-18.37
-20.30
-22.60
-25.29
-28.27
-31.32
-34.14
-36.36
-37.65
-37.71
-36.38
-33.70
-29.89
-25.31
-20.33
-15.29
-10.37
-5.68
-1.25
2.93
6.85
10.49
13.80
16.69
19.05
20.80
21.92
22.50
22.68
22.65
22.53
22.38
22.18
21.86
21.38
20.77
20.12
19.52
19.02
18.60
18.21
17.76
17.22
16.57
15.83
14.99
14.03
12.92
11.65
10.30
8.94
7.63
6.40
5.18
3.93
2.60
1.21
-0.17
-1.49
-2.74
-3.99
-5.32
-6.77
-8.33
-9.94
-11.50
-12.97
-14.39
-15.86
-17.50
-19.42
-21.64
-24.04
-26.40
-28.38
-29.66
-30.00
-29.33
-27.69
-25.27
-22.29
-18.95
-15.43
-11.82
-8.20
-4.60
-1.03
2.46
5.80
8.86
11.55
13.76
15.48
16.76
17.70
18.36
18.79
19.04
19.11
19.05
18.86
18.55
18.15
17.70
17.31
17.06
16.93
16.82
16.56
15.98
14.99
13.59
11.88
10.01
8.11
6.26
4.56
3.06
1.77
0.69
-0.31
-1.34
-2.49
-3.77
-5.15
-6.57
-8.02
-9.58
-11.33
-13.31
-15.50
-17.80
-20.07
-22.10
-23.70
-24.67
-24.82
-24.04
-22.30
-19.69
-16.38
-12.59
-8.55
-4.44
-0.45
3.30
6.68
9.64
12.17
14.30
16.09
17.55
18.72
19.58
20.15
20.43
20.47
20.31
20.01
19.58
19.06
18.45
17.79
17.11
16.43
15.75
15.04
14.27
13.45
12.62
11.84
11.12
10.42
9.63
8.63
7.38
5.94
4.43
2.95
1.55
0.19
-1.20
-2.66
-4.20
-5.78
-7.38
-8.92
-10.38
-11.71
-12.88
-13.93
-14.96
-16.15
-17.71
-19.75
-22.26
-25.06
-27.78
-29.97
-31.20
-31.18
-29.86
-27.40
-24.16
-20.49
-16.69
-12.89
-9.11
-5.30
-1.45
2.32
5.87
9.03
11.70
13.84
15.46
16.63
17.42
17.92
18.24
18.44
18.58
18.65
18.62
18.49
18.27
17.98
17.65
17.28
16.85
16.34
15.74
15.07
14.33
13.51
12.58
11.52
10.35
9.16
8.06
7.12
6.35
5.68
4.96
4.08
2.92
1.55
0.05
-1.37
-2.57
-3.45
-4.04
-4.47
-4.94
-5.65
-6.71
-8.14
-9.83
-11.62
-13.36
-14.94
-16.37
-17.74
-19.19
-20.82
-22.68
-24.76
-26.96
-29.10
-30.92
-32.13
-32.43
-31.62
-29.66
-26.68
-23.05
-19.15
-15.37
-11.91
-8.81
-5.98
-3.26
-0.55
2.16
4.80
7.25
9.36
11.05
12.30
13.15
13.66
13.92
13.98
13.90
13.73
13.58
13.53
13.64
13.88
14.13
14.23
14.04
13.52
12.75
11.85
10.92
10.01
9.10
8.13
7.13
6.11
5.11
4.11
3.06
1.91
0.69
-0.48
-1.43
-2.06
-2.40
-2.62
-3.00
-3.78
-5.04
-6.67
-8.43
-10.03
-11.29
-12.23
-13.00
-13.85
-14.93
-16.30
-17.92
-19.73
-21.72
-23.88
-26.15
-28.29
-29.94
-30.72
-30.39
-28.97
-26.68
-23.81
-20.58
-17.06
-13.26
-9.23
-5.14
-1.24
2.23
5.16
7.57
9.54
11.14
12.40
13.34
14.03
14.53
14.98
15.40
15.82
16.18
16.43
16.58
16.68
16.77
16.86
16.87
16.69
16.25
15.53
14.60
13.57
12.53
11.54
10.60
9.67
8.71
7.71
6.67
5.57
4.42
3.21
1.95
0.67
-0.60
-1.85
-3.14
-4.53
-6.08
-7.81
-9.68
-11.65
-13.67
-15.71
-17.80
-20.00
-22.35
-24.86
-27.43
-29.85
-31.79
-32.90
-32.91
-31.75
-29.55
-26.61
-23.26
-19.75
-16.21
-12.63
-8.94
-5.11
-1.18
2.71
6.38
9.61
12.27
14.29
15.72
16.63
17.20
17.58
17.91
18.27
18.66
19.06
19.41
19.64
19.69
19.54
19.22
18.79
18.33
17.91
17.56
17.24
16.89
16.41
15.72
14.78
13.60
12.25
10.83
9.44
8.14
6.94
5.79
4.62
3.38
2.04
0.61
-0.88
-2.44
-4.08
-5.86
-7.78
-9.82
-11.91
-13.95
-15.88
-17.65
-19.32
-21.01
-22.87
-25.05
-27.64
-30.60
-33.72
-36.64
-38.86
-39.93
-39.51
-37.57
-34.35
-30.28
-25.83
-21.32
-16.88
-12.47
-7.98
-3.42
1.13
5.44
9.31
12.54
15.05
16.81
17.94
18.60
19.01
19.37
19.81
20.38
21.04
21.74
22.42
23.06
23.60
23.97
24.04
23.70
22.91
21.74
20.38
19.03
17.89
17.01
16.30
15.57
14.62
13.32
11.68
9.83
7.96
6.21
4.67
3.29
1.98
0.64
-0.76
-2.22
-3.72
-5.28
-6.92
-8.68
-10.58
-12.60
-14.67
-16.70
-18.64
-20.44
-22.14
-23.87
-25.78
-28.07
-30.84
-34.09
-37.56
-40.79
-43.19
-44.19
-43.44
-40.95
-37.04
-32.23
-27.02
-21.75
-16.59
-11.55
-6.65
-1.95
2.47
6.54
10.25
13.62
16.67
19.35
21.55
23.22
24.34
25.05
25.52
25.92
26.28
26.60
26.81
26.92
26.92
26.84
26.65
26.24
25.50
24.39
22.96
21.40
19.88
18.52
17.32
16.18
14.99
13.69
12.28
10.74
9.09
7.31
5.37
3.31
1.16
-1.00
-3.11
-5.15
-7.15
-9.15
-11.21
-13.34
-15.55
-17.86
-20.29
-22.85
-25.53
-28.20
-30.64
-32.47
-33.31
-32.86
-31.07
-28.08
-24.22
-19.80
-15.08
-10.14
-4.99
0.29
5.56
10.56
14.96
18.50
21.07
22.73
23.68
24.20
24.49
24.67
24.73
24.61
24.27
23.79
23.30
22.95
22.77
22.68
22.52
22.10
21.32
20.18
18.80
17.30
15.81
14.41
13.12
11.91
10.67
9.28
7.70
5.92
4.04
2.20
0.52
-0.98
-2.32
-3.60
-4.90
-6.32
-7.91
-9.70
-11.62
-13.57
-15.44
-17.15
-18.72
-20.28
-22.02
-24.11
-26.65
-29.60
-32.79
-35.94
-38.71
-40.64
-41.34
-40.49
-38.00
-34.05
-29.06
-23.54
-17.97
-12.64
-7.62
-2.85
1.83
6.51
11.18
15.73
19.91
23.47
26.23
28.09
29.13
29.52
29.49
29.23
28.89
28.57
28.33
28.23
28.26
28.40
28.55
28.59
28.39
27.89
27.07
26.00
24.78
23.53
22.32
21.18
20.09
18.99
17.83
16.55
15.16
13.64
12.01
10.27
8.36
6.26
3.97
1.57
-0.81
-3.04
-5.05
-6.92
-8.83
-10.95
-13.41
-16.14
-18.99
-21.76
-24.33
-26.70
-29.00
-31.40
-34.06
-37.04
-40.25
-43.43
-46.18
-48.02
-48.53
-47.45
-44.76
-40.70
-35.64
-29.99
-24.07
-18.04
-12.00
-5.97
-0.02
5.70
11.04
15.83
20.00
23.53
26.55
29.16
31.47
33.52
35.26
36.60
37.41
37.65
37.36
36.68
35.81
34.93
34.13
33.32
32.34
31.01
29.28
27.21
24.95
22.62
20.28
17.88
15.31
12.56
9.68
6.79
4.00
1.35
-1.20
-3.72
-6.31
-8.99
-11.76
-14.55
-17.28
-19.84
-22.08
-23.92
-25.32
-26.37
-27.29
-28.38
-29.94
-32.19
-35.17
-38.68
-42.32
-45.55
-47.82
-48.70
-47.97
-45.65
-41.94
-37.17
-31.67
-25.76
-19.69
-13.64
-7.72
-1.96
3.63
9.06
14.21
18.89
22.83
25.82
27.76
28.77
29.07
28.93
28.57
28.15
27.70
27.23
26.73
26.18
25.56
24.81
23.88
22.76
21.46
20.02
18.54
17.13
15.90
14.89
14.08
13.33
12.48
11.41
10.09
8.64
7.17
5.80
4.54
3.29
1.95
0.43
-1.23
-2.94
-4.56
-6.03
-7.35
-8.58
-9.79
-11.01
-12.32
-13.82
-15.63
-17.87
-20.58
-23.56
-26.44
-28.68
-29.79
-29.51
-27.87
-25.19
-21.89
-18.37
-14.83
-11.31
-7.74
-4.09
-0.42
3.13
6.35
9.03
11.07
12.48
13.35
13.87
14.27
14.68
15.18
15.72
16.22
16.60
16.82
16.90
16.90
16.86
16.82
16.77
16.72
16.68
16.64
16.55
16.36
16.02
15.52
14.88
14.17
13.46
12.80
12.21
11.68
11.16
10.61
10.00
9.31
8.52
7.63
6.62
5.48
4.21
2.86
1.48
0.17
-1.02
-2.10
-3.15
-4.32
-5.72
-7.45
-9.47
-11.67
-13.89
-16.05
-18.12
-20.18
-22.34
-24.62
-26.91
-28.92
-30.28
-30.66
-29.88
-27.99
-25.25
-22.02
-18.60
-15.20
-11.92
-8.74
-5.67
-2.73
0.04
2.55
4.76
6.65
8.25
9.59
10.70
11.58
12.27
12.84
13.36
13.86
14.36
14.79
15.13
15.34
15.44
15.52
15.59
15.67
15.71
15.63
15.38
14.96
14.42
13.77
13.01
12.10
11.00
9.73
8.40
7.13
6.05
5.21
4.58
4.05
3.52
2.85
1.97
0.83
-0.50
-1.89
-3.16
-4.15
-4.81
-5.25
-5.74
-6.57
-7.93
-9.81
-12.01
-14.22
-16.20
-17.84
-19.20
-20.45
-21.75
-23.20
-24.85
-26.66
-28.52
-30.26
-31.60
-32.23
-31.88
-30.41
-27.87
-24.54
-20.80
-17.00
-13.33
-9.80
-6.29
-2.71
0.93
4.46
7.61
10.16
12.05
13.39
14.40
15.32
16.28
17.24
18.09
18.64
18.84
18.72
18.43
18.16
18.00
17.95
17.93
17.78
17.39
16.70
15.77
14.69
13.57
12.49
11.50
10.61
9.80
9.05
8.33
7.58
6.72
5.68
4.44
3.05
1.61
0.23
-1.04
-2.23
-3.41
-4.69
-6.09
-7.54
-8.91
-10.10
-11.05
-11.84
-12.68
-13.75
-15.20
-17.05
-19.17
-21.28
-23.04
-24.12
-24.33
-23.58
-21.93
-19.52
-16.53
-13.11
-9.44
-5.67
-1.95
1.61
4.88
7.78
10.27
12.28
13.78
14.82
15.43
15.73
15.81
15.73
15.51
15.17
14.74
14.29
13.90
13.65
13.55
13.53
13.49
13.35
13.07
12.65
12.10
11.45
10.66
9.73
8.69
7.61
6.56
5.60
4.73
3.89
3.02
2.08
1.11
0.13
-0.86
-1.94
-3.19
-4.63
-6.22
-7.79
-9.15
-10.25
