1624268800.00
64.000000
-0.00
-0.00
-0.00
-0.00
-0.00
-0.00
-0.00
-0.00
-0.00
-0.00
0.00
0.01
0.01
-0.00
-0.03
-0.05
-0.05
0.00
0.13
0.36
0.66
1.01
1.37
1.72
2.06
2.40
2.79
3.24
3.80
4.42
5.06
5.66
6.20
6.68
7.15
7.68
8.31
9.14
10.09
11.04
11.88
12.56
13.14
13.76
14.65
15.96
17.91
20.32
22.90
25.38
27.58
29.57
31.68
34.32
37.81
42.54
48.15
54.10
59.83
64.97
69.58
74.14
79.34
85.71
93.76
103.00
112.62
121.73
129.77
136.75
143.30
150.75
157.77
166.64
177.95
191.79
206.97
220.57
228.25
225.36
208.53
176.87
132.76
80.05
23.07
-34.94
-92.44
-149.16
-205.23
-260.37
-313.74
-363.87
-409.83
-450.91
-486.50
-515.74
-537.23
-549.22
-549.96
-538.37
-514.21
-478.67
-433.88
-382.45
-327.02
-269.84
-212.63
-156.66
-102.95
-52.37
-5.90
35.58
71.43
101.35
125.50
144.38
158.69
169.15
176.37
180.75
182.57
182.07
179.51
175.23
169.65
163.18
156.15
148.81
141.30
133.69
126.02
118.33
110.69
103.16
95.80
88.68
81.83
75.25
68.95
62.95
57.25
51.86
46.78
42.03
37.59
33.45
29.61
26.07
22.81
19.83
17.11
14.67
12.48
10.54
8.83
7.35
6.07
4.97
4.05
3.27
2.62
2.09
1.65
1.30
1.01
0.79
0.61
0.47
0.37
0.29
0.23
0.19
0.16
0.14
0.14
0.14
0.16
0.18
0.20
0.23
0.27
0.31
0.35
0.39
0.44
0.49
0.53
0.58
0.64
0.69
0.75
0.82
0.89
0.96
1.05
1.14
1.24
1.36
1.49
1.64
1.80
1.98
2.19
2.41
2.66
2.93
3.24
3.57
3.94
4.34
4.77
5.24
5.75
6.30
6.88
7.51
8.18
8.90
9.66
10.46
11.32
12.21
13.15
14.14
15.20
16.32
17.51
18.74
20.01
21.28
22.48
23.52
24.32
24.74
24.67
24.01
22.66
20.61
17.85
14.46
10.52
6.23
1.77
-2.66
-6.83
-10.58
-13.76
-16.25
-18.01
-19.03
-19.34
-19.04
-18.27
-17.13
-15.78
-14.32
-12.78
-11.22
-9.59
-7.87
-6.11
-4.34
-2.58
-0.89
0.75
2.37
4.01
5.77
7.76
9.89
12.06
14.22
16.28
18.22
20.11
22.08
24.35
27.12
30.19
33.36
36.41
39.13
41.48
43.55
45.64
48.15
51.50
55.35
59.30
62.88
65.62
67.34
68.17
68.56
69.17
70.60
72.37
73.81
73.97
71.91
66.89
58.49
46.34
29.59
11.73
-6.37
-24.62
-43.40
-63.46
-85.63
-110.63
-138.68
-168.79
-198.42
-224.31
-242.48
-249.77
-245.10
-229.94
-207.70
-182.35
-157.03
-133.28
-111.80
-92.46
-75.16
-60.09
-47.54
-37.48
-29.42
-22.45
-15.65
-8.80
-2.03
4.18
9.24
12.77
14.83
15.90
16.78
18.22
20.48
23.40
26.39
28.75
29.93
29.73
28.38
26.36
24.21
22.35
21.02
20.29
20.10
20.35
20.93
21.70
22.55
23.32
23.89
24.12
23.96
23.44
22.66
21.76
20.88
20.06
19.29
18.53
17.77
17.01
16.27
15.57
14.82
13.96
12.95
11.87
10.82
9.93
9.19
8.45
7.47
6.03
4.11
1.89
-0.27
-1.97
-2.95
-3.14
-2.64
-1.63
-0.30
1.26
2.98
4.80
6.64
8.32
9.69
10.60
11.01
11.02
10.77
10.48
10.25
10.12
10.00
9.81
9.46
8.97
8.40
7.89
7.57
7.49
7.59
7.67
7.46
6.69
5.19
2.94
0.11
-2.98
-5.91
-8.26
-9.68
-9.99
-9.21
-7.54
-5.32
-2.91
-0.65
1.20
2.47
3.19
3.44
3.43
3.37
3.43
3.66
4.04
4.41
4.71
4.85
4.80
4.58
4.20
3.69
3.13
2.55
1.99
1.35
0.48
-0.77
-2.37
-4.19
-5.94
-7.29
-8.08
-8.30
-8.12
-7.68
-7.05
-6.18
-4.93
-3.25
-1.19
1.01
3.07
4.80
6.09
6.93
7.39
7.56
7.51
7.29
6.97
6.60
6.27
6.02
5.91
5.94
6.09
6.31
6.52
6.63
6.59
6.37
5.97
5.43
4.74
3.90
2.81
1.41
-0.28
-2.13
-3.87
-5.19
-5.81
-5.62
-4.70
-3.27
-1.55
0.27
2.15
4.07
5.95
7.64
8.94
9.73
10.00
9.87
9.51
9.00
8.39
7.66
6.77
5.74
4.60
3.35
1.98
0.54
-0.86
-2.07
-2.96
-3.52
-3.91
-4.37
-5.11
-6.20
-7.55
-8.92
-10.01
-10.62
-10.60
-9.95
-8.74
-7.15
-5.38
-3.67
-2.18
-1.01
-0.13
0.52
1.04
1.49
1.91
2.27
2.57
2.81
3.03
3.24
3.44
3.64
3.84
4.04
4.22
4.35
4.33
4.07
3.48
2.45
0.96
-1.01
-3.37
-5.91
-8.31
-10.21
-11.29
-11.41
-10.62
-9.19
-7.39
-5.45
-3.46
-1.45
0.58
2.48
4.07
5.17
5.70
5.79
5.66
5.57
5.71
6.03
6.33
6.32
5.79
4.73
3.34
1.96
0.91
0.35
0.25
0.38
0.39
-0.05
-1.16
-2.99
-5.36
-7.94
-10.24
-11.80
-12.27
-11.59
-9.91
-7.65
-5.22
-3.01
-1.16
0.29
1.44
2.39
3.18
3.77
4.14
4.34
4.52
4.86
5.48
6.35
7.27
7.95
8.16
7.78
6.90
5.68
4.33
3.01
1.74
0.42
-1.10
-3.02
-5.43
-8.22
-11.08
-13.57
-15.21
-15.70
-14.95
-13.15
-10.64
-7.83
-5.05
-2.53
-0.35
1.51
3.04
4.30
5.26
5.92
6.30
6.48
6.50
6.43
6.26
5.93
5.43
4.79
4.09
3.42
2.77
2.08
1.23
0.14
-1.22
-2.77
-4.44
-6.17
-7.87
-9.44
-10.67
-11.29
-11.07
-9.94
-7.98
-5.53
-2.98
-0.69
1.13
2.44
3.37
4.14
4.93
5.86
6.86
7.73
8.30
8.45
8.26
7.88
7.55
7.38
7.34
7.25
6.92
6.26
5.35
4.37
3.47
2.68
1.86
0.85
-0.50
-2.21
-4.15
-6.14
-8.02
-9.62
-10.78
-11.35
-11.20
-10.28
-8.63
-6.42
-3.91
-1.28
1.34
3.85
6.13
8.02
9.33
9.93
9.88
9.41
8.78
8.22
7.80
7.47
7.09
6.55
5.80
4.91
3.97
3.06
2.28
1.63
1.08
0.52
-0.17
-1.11
-2.35
-3.89
-5.70
-7.69
-9.73
-11.64
-13.14
-13.90
-13.67
-12.36
-10.10
-7.20
-4.08
-1.09
1.51
3.61
5.28
6.58
7.62
8.45
9.08
9.49
9.64
9.58
9.36
9.07
8.76
8.41
7.97
7.41
6.79
6.18
5.68
5.23
4.68
3.78
2.36
0.43
-1.80
-4.00
-5.88
-7.32
-8.34
-9.04
-9.49
-9.62
-9.32
-8.50
-7.12
-5.30
-3.18
-0.92
1.33
3.46
5.37
6.99
8.33
9.38
10.21
10.82
11.18
11.25
11.01
10.61
10.22
10.04
10.12
10.36
10.52
10.37
9.81
8.88
7.78
6.65
5.58
4.50
3.29
1.89
0.39
-1.05
-2.29
-3.29
-4.18
-5.19
-6.49
-8.06
-9.64
-10.83
-11.24
-10.63
-9.01
-6.62
-3.79
-0.91
1.77
4.04
5.81
7.07
7.85
8.26
8.46
8.57
8.73
8.96
9.21
9.37
9.31
8.94
8.25
7.32
6.28
5.30
4.49
3.87
3.39
2.92
2.31
1.46
0.36
-0.93
-2.25
-3.46
-4.47
-5.31
-6.10
-7.07
-8.32
-9.80
-11.26
-12.36
-12.75
-12.27
-10.96
-9.05
-6.86
-4.66
-2.65
-0.91
0.58
1.87
3.02
4.07
5.02
5.81
6.39
6.72
6.89
6.99
7.14
7.40
7.77
8.16
8.44
8.53
8.34
7.84
7.04
5.99
4.80
3.53
2.29
1.11
0.01
-0.98
-1.88
-2.75
-3.71
-4.90
-6.41
-8.20
-10.01
-11.43
-12.08
-11.70
-10.24
-7.89
-4.98
-1.90
1.02
3.49
5.32
6.40
6.77
6.57
6.04
5.47
5.08
4.98
5.18
5.56
6.00
6.35
6.52
6.47
6.18
5.63
4.85
3.85
2.72
1.58
0.57
-0.23
-0.82
-1.28
-1.81
-2.58
-3.75
-5.30
-7.16
-9.07
-10.77
-11.98
-12.52
-12.31
-11.37
-9.84
-7.85
-5.56
-3.10
-0.64
1.64
3.56
5.06
6.17
7.02
7.76
8.44
8.99
9.27
9.12
8.52
7.60
6.59
5.73
5.19
5.05
5.25
5.72
6.32
6.88
7.23
7.18
6.58
5.41
3.80
1.96
0.18
-1.40
-2.69
-3.78
-4.73
-5.62
-6.40
-7.00
-7.32
-7.31
-6.96
-6.25
-5.18
-3.71
-1.92
0.03
1.89
3.38
4.30
4.64
4.53
4.27
4.14
4.34
4.87
5.62
6.35
6.89
7.11
6.99
6.59
5.96
5.20
4.39
3.61
2.96
2.56
2.45
2.53
2.62
2.45
1.79
0.59
-1.01
-2.75
-4.32
-5.57
-6.50
-7.26
-8.07
-9.08
-10.30
-11.58
-12.66
-13.26
-13.18
-12.35
-10.88
-8.99
-6.93
-4.87
-2.93
-1.14
0.42
1.68
2.52
2.92
2.93
2.75
2.60
2.61
2.81
3.11
3.38
3.52
3.53
3.52
3.55
3.66
3.77
3.72
3.38
2.67
1.70
0.68
-0.13
-0.59
-0.72
-0.70
-0.80
-1.20
-1.98
-3.10
-4.45
-5.92
-7.39
-8.71
-9.70
-10.20
-10.09
-9.38
-8.17
-6.64
-4.94
-3.27
-1.76
-0.52
0.42
1.12
1.72
2.30
2.93
3.54
4.00
4.24
4.27
4.16
4.06
4.02
4.00
3.92
3.69
3.35
2.99
2.73
2.59
2.44
2.08
1.34
0.16
-1.35
-2.93
-4.32
-5.34
-6.02
-6.54
-7.16
-8.02
-9.10
-10.16
-10.87
-10.96
-10.34
-9.10
-7.46
-5.67
-3.89
-2.19
-0.58
0.94
2.30
3.48
4.42
5.18
5.80
6.33
6.81
7.23
7.57
7.81
7.92
7.84
7.53
7.00
6.32
5.64
5.10
4.75
4.57
4.45
4.24
3.85
3.24
2.43
1.45
0.36
-0.82
-2.04
-3.28
-4.52
-5.79
-7.07
-8.31
-9.37
-10.04
-10.13
-9.55
-8.37
-6.84
-5.23
-3.78
-2.59
-1.60
-0.70
0.20
1.10
1.91
2.53
2.93
3.19
3.43
3.76
4.19
4.66
5.09
5.43
5.70
5.89
5.98
5.87
5.50
4.86
4.06
3.31
2.78
2.52
2.46
2.44
2.32
2.00
1.46
0.65
-0.46
-1.92
-3.75
-5.85
-8.03
-10.01
-11.55
-12.43
-12.57
-11.95
-10.65
-8.84
-6.72
-4.55
-2.59
-1.03
0.03
0.66
0.99
1.20
1.39
1.56
1.61
1.46
1.12
0.67
0.25
-0.02
-0.12
-0.10
0.03
0.26
0.65
1.18
1.75
2.17
2.24
1.86
1.06
0.05
-0.97
-1.79
-2.33
-2.56
-2.54
-2.36
-2.24
-2.42
-3.11
-4.39
-6.08
-7.82
-9.11
-9.57
-9.04
-7.63
-5.63
-3.40
-1.28
0.48
1.73
2.44
2.68
2.61
2.44
2.33
2.39
2.56
2.79
2.99
3.14
3.26
3.38
3.49
3.57
3.54
3.40
3.20
3.02
2.96
3.00
3.03
2.85
2.25
1.15
-0.37
-2.12
-3.85
-5.43
-6.86
-8.23
-9.64
-11.05
-12.26
-12.95
-12.87
-11.96
-10.38
-8.48
-6.61
-5.00
-3.67
-2.51
-1.34
-0.08
1.18
2.31
3.14
3.66
3.91
4.01
4.03
3.99
3.84
3.62
3.41
3.35
3.52
3.88
4.30
4.56
4.48
4.00
3.18
2.15
1.05
0.02
-0.88
-1.68
-2.49
-3.45
-4.70
-6.24
-7.95
-9.52
-10.63
-10.97
-10.41
-8.93
-6.73
-4.09
-1.38
1.09
3.13
4.65
5.69
6.33
6.68
6.79
6.72
6.54
6.34
6.17
6.06
5.99
5.91
5.82
5.75
5.78
5.90
6.05
6.03
5.69
4.98
3.98
2.89
1.89
1.07
0.36
-0.35
-1.22
-2.34
-3.72
-5.33
-7.00
-8.52
-9.63
-10.13
-9.90
-9.01
-7.68
-6.16
-4.67
-3.29
-2.02
-0.78
0.39
1.50
2.50
3.38
4.18
4.92
5.59
6.14
6.51
6.69
6.69
6.54
6.27
5.93
5.59
5.31
5.14
5.06
4.96
4.64
3.92
2.78
1.30
-0.26
-1.62
-2.56
-3.03
-3.13
-3.11
-3.28
-3.87
-4.98
-6.50
-8.18
-9.66
-10.61
-10.83
-10.30
-9.19
-7.70
-6.07
-4.44
-2.91
-1.48
-0.21
0.86
1.68
2.19
2.48
2.66
2.88
3.23
3.68
4.13
4.45
4.59
4.56
4.44
4.29
4.16
4.02
3.88
3.76
3.70
3.70
3.70
3.57
3.18
2.47
1.52
0.45
-0.61
-1.60
-2.53
-3.53
-4.72
-6.16
-7.81
-9.55
-11.15
-12.34
-12.94
-12.82
-12.02
-10.60
-8.72
-6.51
-4.09
-1.66
0.57
2.38
3.63
4.33
4.63
4.74
4.90
5.24
5.84
6.66
7.58
8.42
8.99
9.21
9.06
8.63
8.05
7.43
6.80
6.12
5.39
4.60
3.80
3.07
2.43
1.83
1.16
0.33
-0.71
-1.96
-3.35
-4.81
-6.24
-7.57
-8.71
-9.56
-10.01
-9.97
-9.40
-8.36
-6.98
-5.49
-4.06
-2.77
-1.55
-0.28
1.11
2.57
3.88
4.84
5.30
5.27
4.97
4.69
4.67
5.07
5.82
6.74
7.58
8.08
8.15
7.87
7.45
7.17
7.17
7.40
7.60
7.51
6.94
5.98
4.89
3.95
3.30
2.84
2.34
1.52
0.26
-1.31
-2.98
-4.54
-5.86
-6.98
-7.95
-8.73
-9.14
-8.95
-8.03
-6.43
-4.45
-2.40
-0.54
1.08
2.55
4.00
5.46
6.85
8.03
8.86
9.33
9.48
9.36
8.98
8.35
7.58
6.84
6.34
6.27
6.60
7.13
7.52
7.48
6.92
5.94
4.83
3.84
3.12
2.63
2.22
1.76
1.14
0.34
-0.63
-1.74
-2.91
-4.05
-5.02
-5.75
-6.26
-6.68
-7.18
-7.93
-8.93
-10.05
-11.01
-11.55
-11.46
-10.72
-9.41
-7.74
-5.91
-4.07
-2.35
-0.83
0.42
1.30
1.76
1.86
1.71
1.51
1.45
1.62
2.03
2.60
3.23
3.80
4.26
4.53
4.54
4.24
3.61
2.69
1.60
0.45
-0.65
-1.64
-2.50
-3.23
-3.85
-4.32
-4.61
-4.74
-4.79
-4.91
-5.24
-5.86
-6.73
-7.72
-8.67
-9.43
-9.91
-10.05
-9.81
-9.19
-8.23
-6.99
-5.52
-3.88
-2.06
-0.07
2.03
4.06
5.77
6.91
7.41
7.40
7.14
6.88
6.74
6.63
6.38
5.91
5.29
4.78
4.58
4.81
5.33
5.89
6.23
6.23
5.95
5.46
4.88
4.23
3.48
2.67
1.86
1.19
0.76
0.58
0.52
0.44
0.25
0.03
0.03
0.49
1.59
3.32
5.44
7.65
9.68
11.37
12.74
13.91
14.99
16.03
17.00
17.74
18.06
17.80
16.83
15.10
12.73
9.93
7.00
4.31
2.13
0.67
-0.01
0.05
0.71
1.84
3.36
5.21
7.40
9.88
12.51
14.99
16.91
17.81
17.35
15.38
11.97
7.45
2.28
-2.94
-7.68
-11.51
-14.25
-15.93
-16.73
-16.88
-16.60
-16.05
-15.38
-14.78
-14.40
-14.34
-14.48
-14.57
-14.26
-13.31
-11.70
-9.67
-7.58
-5.75
-4.32
-3.25
-2.50
-2.08
-2.12
-2.76
-4.08
-5.85
-7.63
-8.87
-9.05
-7.92
-5.60
-2.49
0.80
3.65
5.52
6.14
5.43
3.53
0.70
-2.70
-6.24
-9.52
-12.18
-13.95
-14.70
-14.41
-13.17
-11.16
-8.63
-5.93
-3.43
-1.52
-0.38
0.02
-0.05
-0.21
-0.23
-0.04
0.18
0.25
0.09
-0.20
-0.45
-0.53
-0.51
-0.60
-0.96
-1.60
-2.29
-2.64
-2.32
-1.18
0.62
2.75
4.75
6.27
7.10
7.17
6.56
5.33
3.55
1.27
-1.37
-4.16
-6.76
-8.86
-10.23
-10.85
-10.83
-10.45
-9.90
-9.30
-8.65
-7.87
-7.00
-6.12
-5.38
-4.88
-4.62
-4.48
-4.28
-3.85
-3.21
-2.50
-1.92
-1.66
-1.73
-1.98
-2.16
-2.11
-1.79
-1.32
-0.83
-0.46
-0.22
-0.17
-0.37
-0.98
-2.14
-3.82
-5.80
-7.65
-8.94
-9.37
-8.88
-7.63
-5.91
-3.99
-2.10
-0.42
0.90
1.77
2.20
2.21
1.92
1.43
0.83
0.18
-0.48
-1.07
-1.53
-1.79
-1.83
-1.74
-1.66
-1.76
-2.16
-2.92
-3.91
-4.95
-5.83
-6.41
-6.67
-6.76
-6.83
-6.99
-7.23
-7.34
-7.06
-6.20
-4.76
-2.89
-0.86
1.06
2.70
3.92
4.71
5.02
4.82
4.16
3.19
2.13
1.29
0.88
0.95
1.45
2.18
2.93
3.57
4.02
4.29
4.42
4.44
4.41
4.30
4.05
3.54
2.67
1.39
-0.25
-2.07
-3.81
-5.19
-5.94
-5.90
-5.02
-3.42
-1.35
0.82
2.72
4.12
4.95
5.34
5.49
5.63
5.82
6.09
6.37
6.61
6.80
7.00
7.18
7.30
7.20
6.73
5.82
4.55
3.22
2.19
1.70
1.78
2.19
2.53
2.47
1.84
0.70
-0.70
-2.14
-3.45
-4.49
-5.19
-5.47
-5.23
-4.51
-3.40
-2.12
-0.87
0.24
1.27
2.33
3.51
4.76
5.89
6.65
6.84
6.44
5.69
4.87
4.20
3.75
3.42
3.06
2.68
2.43
2.51
3.01
3.75
4.33
4.28
3.39
1.72
-0.34
-2.26
-3.64
-4.26
-4.17
-3.51
-2.44
-1.08
0.46
2.13
3.84
5.49
7.02
8.34
9.37
10.05
10.30
10.12
9.56
8.74
7.79
6.88
6.17
5.76
5.69
5.88
6.18
6.36
6.29
5.88
5.18
4.29
3.29
2.24
1.18
0.11
-0.94
-1.99
-3.11
-4.34
-5.70
-7.09
-8.32
-9.18
-9.47
-9.12
-8.16
-6.75
-5.05
-3.24
-1.44
0.25
1.79
3.16
4.34
5.27
5.86
6.09
6.01
5.74
5.51
5.41
5.45
5.52
5.46
5.20
4.71
4.07
3.29
2.39
1.39
0.33
-0.66
-1.46
-1.98
-2.22
-2.28
-2.29
-2.35
-2.56
-3.00
-3.78
-4.89
-6.30
-7.81
-9.15
-10.04
-10.31
-9.92
-8.94
-7.54
-5.94
-4.35
-2.99
-1.94
-1.26
-0.82
-0.48
-0.08
0.42
0.99
1.52
1.92
2.16
2.24
2.23
2.19
2.21
2.35
2.65
3.07
3.54
3.89
3.97
3.70
3.03
1.99
0.66
-0.81
-2.25
-3.50
-4.47
-5.15
-5.68
-6.19
-6.78
-7.39
-7.90
-8.08
-7.82
-7.10
-6.04
-4.76
-3.43
-2.12
-0.85
0.34
1.43
2.35
3.00
3.32
3.31
3.08
2.81
2.69
2.76
2.98
3.22
3.36
3.39
3.41
3.50
3.63
3.73
3.65
3.29
2.69
1.98
1.27
0.60
-0.11
-0.99
-2.16
-3.67
-5.42
-7.23
-8.78
-9.78
-9.98
-9.30
-7.92
-6.11
-4.20
-2.42
-0.86
0.48
1.62
2.52
3.13
3.45
3.53
3.49
3.48
3.51
3.57
3.54
3.37
3.08
2.75
2.48
2.32
2.26
2.23
2.16
2.00
1.72
1.34
0.86
0.29
-0.28
-0.79
-1.22
-1.53
-1.82
-2.20
-2.72
-3.38
-4.05
-4.55
-4.76
-4.64
-4.25
-3.73
-3.17
-2.55
-1.79
-0.73
0.67
2.34
4.07
5.56
6.57
7.02
6.98
6.70
6.37
6.13
5.97
5.87
5.78
5.78
5.98
6.43
7.04
7.55
7.63
7.03
5.72
3.89
1.87
-0.02
-1.61
-2.83
-3.73
-4.40
-4.90
-5.31
-5.70
-6.12
-6.51
-6.76
-6.69
-6.16
-5.10
-3.62
-1.91
-0.19
1.38
2.73
3.80
4.55
4.91
4.80
4.31
3.57
2.91
2.55
2.62
3.01
3.46
3.68
3.49
2.86
1.92
0.90
-0.04
-0.75
-1.18
-1.31
-1.21
-0.94
-0.62
-0.37
-0.32
-0.58
-1.18
-2.08
-3.17
-4.29
-5.34
-6.25
-7.05
-7.77
-8.45
-9.07
-9.53
-9.71
-9.49
-8.81
-7.71
-6.25
-4.59
-2.90
-1.38
-0.22
0.44
0.57
0.27
-0.27
-0.80
-1.02
-0.77
-0.02
1.12
2.44
3.65
4.55
5.03
5.12
4.88
4.39
3.74
2.98
2.16
1.36
0.68
0.18
-0.10
-0.22
-0.32
-0.58
-1.20
-2.26
-3.68
-5.23
-6.56
-7.36
-7.44
-6.83
-5.65
-4.14
-2.56
-1.06
0.21
1.18
1.82
2.17
2.32
2.37
2.38
2.39
2.38
2.32
2.19
1.98
1.69
1.31
0.86
0.35
-0.15
-0.52
-0.70
-0.63
-0.32
0.16
0.69
1.12
1.26
0.95
0.15
-1.08
-2.56
-4.07
-5.44
-6.53
-7.29
-7.63
-7.46
-6.67
-5.29
-3.51
-1.65
-0.09
0.96
1.50
1.79
2.16
2.84
3.91
5.19
6.41
7.28
7.63
7.43
6.81
5.98
5.14
4.44
3.92
3.57
3.41
3.39
3.48
3.52
3.31
2.65
1.50
-0.00
-1.55
-2.82
-3.64
-4.05
-4.29
-4.63
-5.20
-5.99
-6.84
-7.53
-7.90
-7.78
-7.10
-5.80
-3.99
-1.87
0.28
2.17
3.64
4.62
5.17
5.36
5.30
5.10
4.90
4.84
4.99
5.34
5.72
5.96
5.88
5.36
4.42
3.15
1.79
0.60
-0.19
-0.47
-0.32
-0.01
0.10
-0.28
-1.32
-3.02
-5.22
-7.68
-10.12
-12.18
-13.45
-13.61
-12.52
-10.39
-7.65
-4.90
-2.57
-0.94
-0.01
0.33
0.25
-0.04
-0.32
-0.37
-0.04
0.71
1.72
2.74
3.52
3.96
4.12
4.15
4.18
4.16
3.96
3.41
2.49
1.37
0.27
-0.59
-1.19
-1.65
-2.24
-3.14
-4.39
-5.88
-7.38
-8.67
-9.62
-10.17
-10.33
-10.12
-9.57
-8.72
-7.64
-6.43
-5.15
-3.88
-2.63
-1.38
-0.08
1.29
2.69
4.01
5.04
5.57
5.46
4.73
3.60
2.45
1.60
1.27
1.46
1.99
2.64
3.21
3.58
3.69
3.49
2.92
1.93
0.49
-1.35
-3.45
-5.61
-7.62
-9.23
-10.28
-10.71
-10.52
-9.83
-8.79
-7.51
-6.07
-4.49
-2.79
-1.07
0.54
1.90
2.90
3.57
4.03
4.42
4.81
5.21
5.56
5.79
5.89
5.88
5.83
5.78
5.75
5.71
5.61
5.38
4.96
4.30
3.42
2.37
1.25
0.13
-0.96
-2.08
-3.28
-4.65
-6.17
-7.72
-9.10
-10.12
-10.58
-10.36
-9.44
-7.89
-5.86
-3.57
-1.21
1.03
3.09
4.94
6.61
8.08
9.28
10.10
10.46
10.37
9.93
9.29
8.57
7.83
7.06
6.27
5.51
4.90
4.56
4.52
4.70
4.93
4.98
4.76
4.27
3.56
2.76
1.86
0.80
-0.51
-2.15
-4.06
-6.10
-8.07
-9.77
-11.03
-11.79
-12.05
-11.84
-11.23
-10.24
-8.89
-7.13
-4.99
-2.50
0.18
2.88
5.37
7.46
9.06
10.12
10.68
10.85
10.81
10.73
10.76
10.94
11.17
11.26
11.07
10.53
9.79
9.04
8.45
8.07
7.78
7.41
6.84
6.06
5.16
4.22
3.29
2.34
1.29
0.15
-1.09
-2.36
-3.64
-4.96
-6.36
-7.84
-9.29
-10.56
-11.42
-11.72
-11.37
-10.44
-9.05
-7.37
-5.57
-3.76
-1.99
-0.29
1.34
2.87
4.24
5.43
6.37
7.09
7.64
8.06
8.37
8.63
8.85
9.08
9.39
9.76
10.17
10.50
10.64
10.52
10.10
9.41
8.51
7.46
6.30
5.06
3.76
2.44
1.13
-0.12
-1.26
-2.25
-3.07
-3.73
-4.27
-4.74
-5.18
-5.64
-6.18
-6.92
-7.94
-9.26
-10.72
-11.96
-12.56
-12.21
-10.88
-8.86
-6.65
-4.66
-3.11
-1.90
-0.75
0.56
2.07
3.61
4.88
5.65
5.93
5.90
5.86
6.02
6.42
6.91
7.23
7.20
6.79
6.16
5.57
5.23
5.23
5.44
5.68
5.73
5.49
4.91
4.05
2.99
1.84
0.69
-0.40
-1.34
-2.13
-2.83
-3.56
-4.48
-5.64
-7.03
-8.47
-9.70
-10.47
-10.61
-10.08
-9.02
-7.62
-6.10
-4.56
-3.06
-1.55
-0.00
1.57
3.09
4.42
5.44
6.12
6.53
6.80
7.04
7.30
7.48
7.46
7.11
6.46
5.65
4.94
4.55
4.54
4.78
5.02
5.03
4.71
4.14
3.48
2.86
2.31
1.76
1.12
0.31
-0.63
-1.67
-2.77
-3.94
-5.20
-6.57
-8.02
-9.48
-10.85
-12.00
-12.77
-13.02
-12.62
-11.60
-10.04
-8.14
-6.03
-3.83
-1.60
0.63
2.79
4.70
6.25
7.37
8.12
8.63
9.04
9.36
9.53
9.43
8.97
8.24
7.39
6.65
6.17
6.00
6.00
6.00
5.82
5.38
4.72
4.00
3.36
2.90
2.58
2.28
1.90
1.36
0.74
0.15
-0.34
-0.74
-1.20
-1.93
-3.14
-4.87
-6.98
-9.18
-11.09
-12.43
-13.00
-12.81
-11.96
-10.60
-8.91
-7.04
-5.12
-3.26
-1.55
-0.04
1.27
2.40
3.43
4.42
5.37
6.24
6.90
7.26
7.25
6.92
6.43
6.01
5.88
6.13
6.69
7.36
7.92
8.20
8.19
7.95
7.54
6.97
6.20
5.22
4.09
2.94
1.94
1.21
0.71
0.29
-0.21
-0.95
-1.95
-3.19
-4.60
-6.15
-7.77
-9.41
-10.93
-12.15
-12.88
-12.98
-12.38
-11.16
-9.49
-7.60
-5.66
-3.80
-2.05
-0.40
1.16
2.57
3.74
4.61
5.14
5.39
5.48
5.52
5.53
5.45
5.20
4.74
4.13
3.50
3.00
2.72
2.67
2.78
2.94
3.05
3.06
2.98
2.80
2.51
2.09
1.50
0.72
-0.19
-1.10
-1.85
-2.34
-2.61
-2.85
-3.32
-4.22
-5.57
-7.15
-8.65
-9.76
-10.35
-10.42
-10.03
-9.23
-8.03
-6.43
-4.56
-2.64
-0.90
0.49
1.53
2.33
3.02
3.65
4.12
4.30
4.14
3.72
3.29
3.09
3.29
3.81
4.45
4.99
5.29
5.41
5.49
5.61
5.75
5.74
5.41
4.68
3.62
2.42
1.21
0.07
-1.00
-2.01
-2.93
-3.69
-4.28
-4.79
-5.37
-6.14
-7.13
-8.27
-9.34
-10.07
-10.28
-9.88
-8.94
-7.63
-6.17
-4.71
-3.31
-1.97
-0.67
0.56
1.62
2.40
2.91
3.19
3.45
3.78
4.19
4.53
4.65
4.50
4.17
3.85
3.72
3.83
4.09
4.37
4.50
4.42
4.12
3.62
2.94
2.13
1.25
0.35
-0.49
-1.24
-1.97
-2.77
-3.77
-5.02
-6.52
-8.14
-9.70
-11.00
-11.86
-12.18
-11.96
-11.26
-10.19
-8.84
-7.25
-5.50
-3.65
-1.84
-0.21
1.13
2.24
3.22
4.18
5.12
5.93
6.44
6.55
6.30
5.86
5.45
5.17
5.05
5.01
4.99
4.99
5.05
5.14
5.19
5.06
4.70
4.08
3.32
2.51
1.70
0.89
0.01
-0.97
-2.09
-3.35
-4.76
-6.30
-7.92
-9.49
-10.83
-11.79
-12.24
-12.16
-11.59
-10.58
-9.20
-7.52
-5.61
-3.62
-1.70
0.01
1.38
2.33
2.91
3.19
3.34
3.54
3.93
4.53
5.25
5.88
6.22
6.13
5.66
5.02
4.47
4.20
4.23
4.45
4.62
4.55
4.15
3.45
2.54
1.51
0.39
-0.77
-1.95
-3.07
-4.08
-4.97
-5.82
-6.73
-7.79
-8.97
-10.14
-11.10
-11.65
-11.66
-11.08
-9.91
-8.25
-6.22
-4.00
-1.84
0.04
1.42
2.22
2.49
2.40
2.17
1.96
1.81
1.69
1.53
1.33
1.14
1.03
1.04
1.14
1.25
1.37
1.53
1.83
2.28
2.72
2.91
2.60
1.73
0.44
-0.99
-2.38
-3.68
-5.03
-6.54
-8.20
-9.75
-10.87
-11.31
-11.10
-10.50
-9.84
-9.32
-8.90
-8.37
-7.54
-6.38
-5.04
-3.81
-2.89
-2.34
-2.04
-1.77
-1.36
-0.73
0.15
1.20
2.34
3.47
4.45
5.12
5.36
5.17
4.58
3.73
2.75
1.71
0.66
-0.42
-1.53
-2.69
-3.90
-5.18
-6.53
-7.91
-9.24
-10.36
-11.02
-10.99
-10.19
-8.69
-6.73
-4.64
-2.66
-0.92
0.62
2.05
3.42
4.66
5.69
6.42
6.86
7.09
7.17
7.16
7.06
6.81
6.43
5.93
5.37
4.74
4.05
3.31
2.53
1.77
1.06
0.41
-0.23
-0.89
-1.58
-2.27
-2.90
-3.49
-4.10
-4.81
-5.60
-6.32
-6.69
-6.41
-5.32
-3.50
-1.26
1.02
3.03
4.64
5.94
7.07
8.10
8.99
9.57
9.72
9.47
8.99
8.53
8.28
8.24
8.29
8.22
7.92
7.38
6.69
5.97
5.25
4.50
3.65
2.63
1.45
0.20
-1.00
-2.09
-3.06
-3.90
-4.62
-5.14
-5.38
-5.23
-4.68
-3.77
-2.61
-1.30
0.06
1.45
2.86
4.31
5.74
7.08
8.23
9.08
9.56
9.67
9.43
8.93
8.30
7.66
7.10
6.68
6.32
5.95
5.43
4.71
3.79
2.77
1.75
0.85
0.10
-0.48
-0.89
-1.19
-1.48
-1.92
-2.69
-3.85
-5.31
-6.79
-7.93
-8.40
-8.05
-6.84
-4.89
-2.40
0.38
3.16
5.58
7.34
8.26
8.36
7.89
7.19
6.59
6.29
6.33
6.58
6.86
7.03
6.97
6.69
6.24
5.74
5.27
4.90
4.61
4.32
3.92
3.29
2.36
1.14
-0.27
-1.69
-2.97
-4.00
-4.80
-5.54
-6.38
-7.43
-8.59
-9.64
-10.28
-10.30
-9.66
-8.48
-6.97
-5.32
-3.68
-2.13
-0.73
0.47
1.46
2.24
2.88
3.46
4.05
4.62
5.10
5.41
5.47
5.31
5.03
4.78
4.70
4.82
5.09
5.35
5.43
5.25
4.75
4.01
3.12
2.17
1.19
0.22
-0.74
-1.68
-2.59
-3.47
-4.37
-5.29
-6.21
-7.02
-7.56
-7.66
-7.27
-6.41
-5.19
-3.78
-2.30
-0.85
0.51
1.75
2.86
3.84
4.69
5.40
5.95
6.32
6.49
6.49
6.38
6.23
6.12
6.05
5.93
5.67
5.18
4.46
3.62
2.82
2.19
1.79
1.50
1.18
0.66
-0.09
-1.01
-1.98
-2.89
-3.75
-4.68
-5.78
-7.06
-8.33
-9.33
-9.80
-9.63
-8.92
-7.82
-6.53
-5.13
-3.58
-1.86
-0.02
1.79
3.33
4.41
5.01
5.23
5.29
5.37
5.58
5.95
6.41
6.91
7.38
7.78
8.06
8.17
8.10
7.84
7.39
6.80
6.07
5.17
4.09
2.82
1.46
0.16
-0.93
-1.72
-2.28
-2.78
-3.49
-4.58
-6.09
-7.84
-9.49
-10.70
-11.16
-10.80
-9.70
-8.06
-6.15
-4.21
-2.38
-0.70
0.80
2.18
3.39
4.38
5.13
5.60
5.81
5.85
5.77
5.61
5.40
5.10
4.71
4.23
3.67
3.07
2.47
1.97
1.61
1.41
1.34
1.27
1.07
0.63
-0.11
-1.08
-2.17
-3.24
-4.15
-4.84
-5.31
-5.66
-6.03
-6.54
-7.22
-7.95
-8.45
-8.44
-7.74
-6.40
-4.69
-3.02
-1.71
-0.87
-0.38
-0.01
0.41
0.92
1.42
1.77
1.90
1.85
1.75
1.74
1.87
2.09
2.30
2.39
2.33
2.14
1.92
1.74
1.65
1.58
1.43
1.12
0.65
0.06
-0.53
-1.05
-1.45
-1.83
-2.30
-3.00
-3.96
-5.14
-6.36
-7.39
-8.01
-8.08
-7.59
-6.65
-5.46
-4.16
-2.89
-1.69
-0.61
0.30
0.99
1.44
1.68
1.80
1.90
2.04
2.22
2.42
2.62
2.79
2.94
3.06
3.11
3.05
2.89
2.62
2.27
1.86
1.39
0.89
0.36
-0.14
-0.58
-0.95
-1.33
-1.82
-2.59
-3.72
-5.17
-6.76
-8.23
-9.25
-9.60
-9.15
-7.99
-6.32
-4.39
-2.50
-0.81
0.55
1.59
2.38
3.02
3.61
4.19
4.74
5.17
5.37
5.23
4.72
3.94
3.07
2.35
1.95
1.92
2.16
2.44
2.47
2.04
1.11
-0.20
-1.61
-2.83
-3.75
-4.39
-4.93
-5.55
-6.38
-7.33
-8.27
-9.00
-9.38
-9.33
-8.79
-7.74
-6.23
-4.33
-2.25
-0.28
1.29
2.30
2.75
2.82
2.80
2.89
3.17
3.59
3.96
4.15
4.10
3.91
3.75
3.77
3.96
4.17
4.21
3.93
3.33
2.55
1.80
1.25
0.90
0.67
0.39
-0.07
-0.73
-1.53
-2.39
-3.23
-4.03
-4.79
-5.47
-6.03
-6.33
-6.29
-5.87
-5.14
-4.21
-3.21
-2.21
-1.25
-0.30
0.61
1.43
2.06
2.44
2.55
2.47
2.28
2.09
1.92
1.76
1.60
1.42
1.23
1.06
0.86
0.60
0.20
-0.36
-1.07
-1.87
-2.65
-3.36
-3.99
-4.56
-5.15
-5.80
-6.48
-7.11
-7.53
-7.57
-7.12
-6.20
-4.91
-3.41
-1.86
-0.40
0.89
1.91
2.58
2.84
2.71
2.31
1.87
1.58
1.56
1.74
1.99
2.12
2.06
1.84
1.55
1.29
1.02
0.67
0.16
-0.47
-1.04
-1.34
-1.23
-0.82
-0.40
-0.37
-1.00
-2.29
-3.98
-5.61
-6.79
-7.26
-7.04
-6.31
-5.31
-4.30
-3.40
-2.65
-1.97
-1.24
-0.36
0.69
1.80
2.79
3.48
3.78
3.77
3.57
3.34
3.16
2.98
2.70
2.29
1.77
1.21
0.68
0.18
-0.30
-0.83
-1.43
-2.05
-2.62
-3.11
-3.54
-3.96
-4.42
-4.90
-5.33
-5.60
-5.61
-5.30
-4.70
-3.86
-2.90
-1.91
-0.99
-0.15
0.65
1.46
2.32
3.16
3.87
4.32
4.44
4.26
3.90
3.52
3.19
2.95
2.76
2.61
2.50
2.48
2.56
2.71
2.82
2.76
2.42
1.75
0.82
-0.24
-1.32
-2.37
-3.42
-4.52
-5.68
-6.75
-7.50
-7.66
-7.11
-5.89
-4.28
-2.60
-1.07
0.21
1.33
2.39
3.43
4.39
5.13
5.54
5.60
5.39
5.04
4.67
4.36
4.16
4.10
4.14
4.23
4.24
4.07
3.65
3.05
2.37
1.77
1.31
0.94
0.55
0.01
-0.68
-1.45
-2.15
-2.70
-3.13
-3.61
-4.32
-5.34
-6.55
-7.63
-8.23
-8.11
-7.29
-5.99
-4.54
-3.20
-2.07
-1.13
-0.29
0.52
1.28
1.89
2.25
2.34
2.24
2.11
2.10
2.29
2.65
3.06
3.40
3.59
3.63
3.62
3.64
3.73
3.78
3.65
3.17
2.32
1.18
-0.02
-1.11
-1.93
-2.50
-2.95
-3.44
-4.12
-5.01
-6.01
-6.87
-7.32
-7.14
-6.30
-4.93
-3.35
-1.85
-0.62
0.32
1.09
1.85
2.65
3.41
4.00
4.27
4.23
3.95
3.58
3.24
3.01
2.92
3.02
3.33
3.82
4.30
4.54
4.34
3.64
2.62
1.54
0.61
-0.12
-0.82
-1.73
-3.02
-4.71
-6.69
-8.75
-10.66
-12.12
-12.86
-12.65
-11.43
-9.36
-6.83
-4.27
-2.01
-0.20
1.12
2.01
2.54
2.79
2.92
3.13
3.59
4.39
5.45
6.57
7.52
8.12
8.33
8.15
7.64
6.86
5.88
4.81
3.79
2.92
2.26
1.75
1.29
0.79
0.18
-0.52
-1.28
-2.07
-2.91
-3.80
-4.71
-5.52
-6.03
-6.05
-5.53
-4.59
-3.48
-2.47
-1.69
-1.09
-0.45
0.48
1.80
3.41
5.05
6.40
7.26
7.56
7.35
6.79
6.07
5.37
4.85
4.59
4.63
4.91
5.33
5.72
5.96
5.96
5.65
5.04
4.17
3.13
2.01
0.91
-0.21
-1.42
-2.77
-4.28
-5.78
-6.98
-7.61
-7.51
-6.73
-5.50
-4.09
-2.70
-1.43
-0.26
0.81
1.80
2.62
3.23
3.58
3.69
3.67
3.58
3.52
3.53
3.68
3.97
4.40
4.93
5.48
5.98
6.32
6.41
6.17
5.52
4.43
2.97
1.35
-0.19
-1.36
-2.01
-2.19
-2.13
-2.17
-2.61
-3.62
-5.11
-6.84
-8.47
-9.71
-10.38
-10.43
-9.88
-8.78
-7.21
-5.30
-3.30
-1.47
-0.05
0.90
1.50
1.98
2.57
3.32
4.17
4.92
5.40
5.49
5.18
4.55
3.74
2.89
2.16
1.66
1.47
1.56
1.88
2.30
2.66
2.76
2.43
1.60
0.34
-1.16
-2.61
-3.80
-4.71
-5.43
-6.18
-7.09
-8.12
-9.11
-9.81
-10.01
-9.61
-8.65
-7.27
-5.70
-4.15
-2.78
-1.63
-0.68
0.18
1.03
1.89
2.69
3.42
4.07
4.68
5.33
6.02
6.68
7.21
7.51
7.54
7.35
6.97
6.48
5.89
5.23
4.52
3.81
3.16
2.61
2.17
1.77
1.33
0.75
-0.02
-0.96
-2.03
-3.16
-4.32
-5.54
-6.87
-8.24
-9.50
-10.43
-10.80
-10.51
-9.61
-8.24
-6.56
-4.68
-2.66
-0.57
1.47
3.28
4.67
5.55
5.97
6.10
6.14
6.21
6.35
6.51
6.62
6.64
6.57
6.45
6.30
6.09
5.75
5.25
4.58
3.86
3.27
2.91
2.79
2.78
2.70
2.40
1.88
1.23
0.56
-0.13
-0.96
-2.12
-3.68
-5.54
-7.35
-8.68
-9.18
-8.76
-7.55
-5.87
-4.04
-2.30
-0.75
0.60
1.78
2.80
3.61
4.18
4.48
4.55
4.51
4.47
4.52
4.63
4.69
4.60
4.30
3.88
3.51
3.33
3.42
3.74
4.14
4.45
4.47
4.06
3.13
1.70
-0.03
-1.71
-3.02
-3.72
-3.89
-3.86
-4.04
-4.73
-5.90
-7.28
-8.46
-9.14
-9.20
-8.70
-7.79
-6.62
-5.24
-3.72
-2.13
-0.57
0.84
2.03
2.97
3.66
4.14
4.41
4.45
4.26
3.91
3.49
3.19
3.13
3.35
3.75
4.09
4.17
3.87
3.27
2.65
2.24
2.15
2.25
2.23
1.80
0.78
-0.75
-2.58
-4.46
-6.20
-7.69
-8.87
-9.68
-10.02
-9.84
-9.14
-8.02
-6.62
-5.07
-3.49
-1.97
-0.62
0.47
1.24
1.76
2.13
2.52
3.01
3.58
4.11
4.43
4.50
4.35
4.15
4.03
4.06
4.19
4.28
4.19
3.88
3.39
2.83
2.29
1.83
1.38
0.86
0.12
-0.87
-2.12
-3.55
-5.03
-6.43
-7.60
-8.43
-8.87
-8.91
-8.54
-7.77
-6.62
-5.14
-3.40
-1.54
0.30
1.96
3.35
4.38
5.01
5.17
4.83
4.04
2.95
1.88
1.11
0.89
1.23
1.97
2.78
3.35
3.46
3.05
2.21
1.12
-0.07
-1.20
-2.20
-3.03
-3.67
-4.11
-4.41
-4.68
-5.05
-5.65
-6.50
-7.43
-8.18
-8.47
-8.14
-7.25
-6.02
-4.73
-3.54
-2.46
-1.45
-0.44
0.59
1.55
2.36
3.01
3.55
4.11
4.75
5.45
6.09
6.52
6.61
6.30
5.62
4.70
3.72
2.85
2.25
1.96
1.96
2.16
2.42
2.56
2.40
1.81
0.73
-0.70
-2.20
-3.35
-3.80
-3.33
-2.03
-0.16
1.94
4.02
5.99
7.87
9.78
11.85
14.24
17.06
20.34
23.91
27.39
30.22
32.01
32.85
33.34
34.48
37.06
41.08
45.66
49.29
50.57
48.81
44.26
37.83
30.55
23.18
16.11
9.64
4.22
0.34
-1.81
-2.74
-3.67
-6.05
-10.76
-17.58
-25.21
-31.90
-36.19
-37.54
-36.36
-33.74
-30.90
-28.74
-27.68
-27.75
-28.75
-30.41
-32.51
-34.87
-37.23
-39.28
-40.66
-41.03
-40.26
-38.57
-36.46
-34.60
-33.46
-33.05
-32.91
-32.30
-30.54
-27.37
-23.07
-18.39
-14.32
-11.69
-10.97
-11.97
-14.01
-16.13
-17.44
-17.50
-16.38
-14.50
-12.36
-10.27
-8.28
-6.29
-4.20
-2.10
-0.17
1.40
2.51
3.23
3.65
3.84
3.81
3.60
3.25
2.87
2.54
2.29
2.09
1.86
1.56
1.20
0.79
0.34
-0.17
-0.82
-1.60
-2.42
-3.09
-3.35
-3.04
-2.18
-0.94
0.41
1.64
2.65
3.53
4.42
5.47
6.68
7.95
9.13
10.09
10.79
11.22
11.41
11.33
10.95
10.26
9.29
8.17
7.04
6.08
5.38
4.96
4.72
4.50
4.14
3.54
2.71
1.74
0.70
-0.33
-1.31
-2.16
-2.79
-3.01
-2.71
-1.85
-0.56
0.97
2.52
3.98
5.37
6.81
8.36
9.96
11.34
12.21
12.33
11.72
10.66
9.57
8.83
8.57
8.63
8.65
8.31
7.49
6.37
5.21
4.23
3.51
2.93
2.33
1.62
0.80
-0.11
-1.11
-2.27
-3.63
-5.11
-6.47
-7.36
-7.48
-6.73
-5.27
-3.48
-1.72
-0.24
0.91
1.85
2.73
3.62
4.52
5.36
6.06
6.58
6.88
6.99
6.89
6.64
6.31
6.00
5.82
5.80
5.86
5.88
5.68
5.12
4.13
2.77
1.19
-0.37
-1.73
-2.77
-3.53
-4.17
-4.84
-5.56
-6.18
-6.46
-6.21
-5.42
-4.31
-3.15
-2.15
-1.29
-0.40
0.78
2.34
4.19
6.00
7.42
8.19
8.27
7.88
7.32
6.87
6.65
6.60
6.54
6.35
6.02
5.71
5.59
5.76
6.12
6.42
6.35
5.74
4.58
3.01
1.22
-0.66
-2.53
-4.33
-5.92
-7.11
-7.69
-7.58
-6.81
-5.53
-3.95
-2.24
-0.48
1.26
2.89
4.30
5.38
6.09
6.45
6.58
6.58
6.52
6.43
6.33
6.24
6.21
6.28
6.46
6.69
6.90
7.00
6.93
6.63
6.09
5.37
4.53
3.63
2.69
1.69
0.54
-0.76
-2.23
-3.76
-5.21
-6.39
-7.13
-7.35
-6.99
-6.15
-4.96
-3.61
-2.28
-1.05
0.06
1.10
2.06
2.94
3.66
4.19
4.51
4.68
4.71
4.63
4.50
4.36
4.26
4.23
4.27
4.33
4.35
4.31
4.20
4.02
3.71
3.21
2.52
1.67
0.79
0.03
-0.59
-1.16
-1.88
-2.92
-4.26
-5.72
-6.98
-7.75
-7.81
-7.14
-5.85
-4.15
-2.31
-0.63
0.68
1.51
1.87
1.90
1.77
1.61
1.47
1.35
1.20
1.05
0.94
0.95
1.07
1.25
1.40
1.50
1.54
1.56
1.57
1.52
1.33
0.90
0.25
-0.54
-1.33
-2.03
-2.60
-3.13
-3.71
-4.41
-5.19
-5.92
-6.47
-6.72
-6.65
-6.26
-5.60
-4.68
-3.53
-2.19
-0.73
0.71
1.99
3.00
3.69
4.08
4.22
4.20
4.05
3.82
3.53
3.18
2.78
2.30
1.77
1.20
0.66
0.19
-0.18
-0.49
-0.75
-1.01
-1.25
-1.48
-1.72
-2.06
-2.62
-3.45
-4.51
-5.65
-6.65
-7.36
-7.69
-7.62
-7.17
-6.36
-5.17
-3.63
-1.83
0.01
1.65
2.90
3.70
4.10
4.23
4.22
4.15
4.04
3.87
3.68
3.55
3.60
3.88
4.35
4.85
5.19
5.24
5.03
4.73
4.52
4.54
4.76
5.01
5.05
4.75
4.09
3.20
2.24
1.32
0.46
-0.42
-1.38
-2.40
-3.38
-4.12
-4.44
-4.25
-3.62
-2.72
-1.74
-0.86
-0.13
0.42
0.85
1.21
1.52
1.78
1.98
2.11
2.11
2.01
1.81
1.57
1.38
1.30
1.35
1.51
1.68
1.82
1.88
1.87
1.78
1.58
1.21
0.61
-0.21
-1.18
-2.16
-2.99
-3.58
-3.95
-4.24
-4.64
-5.31
-6.24
-7.27
-8.09
-8.42
-8.13
-7.27
-6.08
-4.78
-3.54
-2.41
-1.39
-0.49
0.21
0.61
0.68
0.52
0.35
0.42
0.86
1.63
2.55
3.34
3.75
3.66
3.15
2.41
1.72
1.34
1.38
1.77
2.28
2.68
2.75
2.44
1.85
1.10
0.32
-0.50
-1.39
-2.38
-3.45
-4.50
-5.41
-6.07
-6.45
-6.49
-6.16
-5.46
-4.42
-3.18
-1.91
-0.75
0.27
1.17
1.98
2.70
3.24
3.48
3.40
3.06
2.64
2.30
2.12
2.08
2.13
2.19
2.28
2.41
2.63
2.89
3.11
3.22
3.15
2.89
2.44
1.87
1.23
0.63
0.17
-0.12
-0.27
-0.46
-0.91
-1.82
-3.24
-4.96
-6.66
-7.93
-8.51
-8.31
-7.43
-6.07
-4.43
-2.67
-0.89
0.80
2.30
3.49
4.27
4.62
4.61
4.37
4.09
3.92
4.01
4.40
4.99
5.65
6.16
6.39
6.34
6.07
5.72
5.37
5.00
4.52
3.83
2.90
1.82
0.76
-0.12
-0.72
-1.08
-1.38
-1.80
-2.45
-3.34
-4.39
-5.44
-6.36
-7.06
-7.52
-7.68
-7.47
-6.82
-5.69
-4.15
-2.33
-0.48
1.19
2.56
3.56
4.21
4.55
4.63
4.49
4.21
3.86
3.53
3.24
2.96
2.67
2.36
2.12
2.02
2.15
2.46
2.83
3.04
2.97
2.56
1.87
1.02
0.14
-0.71
-1.47
-2.17
-2.77
-3.34
-3.92
-4.55
-5.24
-5.88
-6.34
-6.50
-6.33
-5.92
-5.39
-4.91
-4.53
-4.26
-4.06
-3.86
-3.53
-2.98
-2.17
-1.14
-0.09
0.78
1.26
1.31
1.02
0.56
0.08
-0.34
-0.68
-0.93
-1.07
-1.09
-1.06
-1.10
-1.40
-2.03
-2.96
-4.04
-5.07
-5.93
-6.58
-7.08
-7.45
-7.69
-7.76
-7.64
-7.40
-7.10
-6.80
-6.45
-5.94
-5.12
-3.97
-2.57
-1.13
0.13
1.07
1.70
2.10
2.39
2.63
2.80
2.86
2.78
2.62
2.49
2.52
2.76
3.19
3.70
4.12
4.30
4.15
3.66
2.89
1.91
0.79
-0.38
-1.50
-2.48
-3.23
-3.69
-3.91
-3.95
-3.94
-3.98
-4.11
-4.28
-4.42
-4.45
-4.33
-4.05
-3.62
-3.07
-2.46
-1.83
-1.24
-0.71
-0.25
0.14
0.47
0.72
0.85
0.81
0.58
0.23
-0.14
-0.41
-0.54
-0.57
-0.60
-0.69
-0.88
-1.09
-1.22
-1.17
-0.91
-0.53
-0.20
-0.12
-0.47
-1.32
-2.59
-4.08
-5.43
-6.30
-6.47
-5.93
-4.89
-3.70
-2.62
-1.78
-1.09
-0.33
0.61
1.69
2.72
3.42
3.62
3.33
2.72
2.07
1.57
1.30
1.21
1.18
1.11
1.02
0.99
1.12
1.42
1.75
1.89
1.65
0.98
-0.05
-1.23
-2.35
-3.32
-4.14
-4.80
-5.27
-5.44
-5.18
-4.49
-3.46
-2.31
-1.24
-0.36
0.33
0.92
1.49
2.09
2.74
3.45
4.22
4.99
5.67
6.18
6.44
6.49
6.36
6.10
5.67
5.04
4.13
2.99
1.74
0.57
-0.37
-1.00
-1.40
-1.67
-1.98
-2.41
-3.01
-3.78
-4.68
-5.70
-6.79
-7.88
-8.81
-9.39
-9.44
-8.91
-7.85
-6.44
-4.89
-3.41
-2.13
-1.08
-0.24
0.45
1.05
1.61
2.19
2.79
3.38
3.88
4.21
4.30
4.14
3.82
3.46
3.21
3.12
3.20
3.30
3.25
2.93
2.30
1.47
0.65
0.00
-0.40
-0.62
-0.83
-1.15
-1.73
-2.54
-3.52
-4.52
-5.39
-5.99
-6.20
-5.99
-5.39
-4.50
-3.39
-2.16
-0.86
0.46
1.68
2.68
3.39
3.80
4.02
4.24
4.59
5.09
5.65
6.08
6.25
6.10
5.69
5.14
4.56
4.01
3.52
3.07
2.67
2.31
2.00
1.74
1.52
1.30
0.99
0.49
-0.33
-1.51
-3.01
-4.65
-6.17
-7.32
-7.94
-8.00
-7.59
-6.87
-5.94
-4.85
-3.65
-2.37
-1.11
0.01
0.87
1.48
1.94
2.39
2.93
3.60
4.27
4.80
5.09
5.11
4.91
4.61
4.37
4.27
4.36
4.58
4.83
4.97
4.91
4.62
4.14
3.56
2.95
2.31
1.61
0.80
-0.10
-1.04
-1.93
-2.79
-3.64
-4.54
-5.45
-6.23
-6.67
-6.61
-6.00
-4.96
-3.70
-2.42
-1.21
-0.03
1.20
2.52
3.91
5.25
6.40
7.26
7.81
8.09
8.22
8.34
8.58
9.00
9.60
10.28
10.93
11.42
11.66
11.63
11.34
10.83
10.14
9.31
8.36
7.31
6.19
5.03
3.88
2.80
1.83
0.99
0.30
-0.25
-0.72
-1.15
-1.70
-2.53
-3.72
-5.27
-6.96
-8.54
-9.71
-10.30
-10.22
-9.51
-8.21
-6.35
-4.03
-1.45
1.03
3.03
4.28
4.78
4.76
4.56
4.50
4.68
5.07
5.53
6.01
6.51
7.05
7.59
7.97
8.01
7.61
6.86
6.00
5.29
4.89
4.75
4.68
4.43
3.85
2.92
1.74
0.49
-0.62
-1.44
-1.93
-2.16
-2.35
-2.74
-3.55
-4.85
-6.60
-8.59
-10.56
-12.25
-13.42
-13.89
-13.55
-12.41
-10.63
-8.50
-6.35
-4.44
-2.91
-1.75
-0.81
-0.00
0.75
1.44
2.03
2.55
3.07
3.69
4.43
5.21
5.88
6.25
6.24
5.90
5.40
4.92
4.60
4.43
4.30
4.09
3.72
3.24
2.75
2.36
2.10
1.93
1.72
1.32
0.58
-0.57
-2.11
-3.92
-5.82
-7.62
-9.14
-10.25
-10.82
-10.80
-10.13
-8.82
-6.99
-4.85
-2.67
-0.72
0.80
1.90
2.66
3.28
3.90
4.52
5.08
5.47
5.63
5.66
5.69
5.83
6.08
6.31
6.35
6.08
5.55
4.88
4.23
3.68
3.19
2.69
2.15
1.57
1.10
0.81
0.68
0.57
0.27
-0.41
-1.53
-2.97
-4.56
-6.08
-7.39
-8.43
-9.24
-9.82
-10.15
-10.13
-9.66
-8.69
-7.24
-5.49
-3.61
-1.75
0.01
1.64
3.12
4.40
5.37
5.94
6.14
6.11
6.12
6.38
6.95
7.67
8.26
8.46
8.19
7.55
6.78
6.09
5.53
5.07
4.58
4.00
3.36
2.80
2.41
2.27
2.28
2.25
1.91
1.05
-0.42
-2.40
-4.55
-6.46
-7.76
-8.27
-8.06
-7.35
-6.39
-5.37
-4.36
-3.35
-2.30
-1.18
0.02
1.29
2.59
3.79
4.68
5.13
5.09
4.74
4.39
4.38
4.82
5.63
6.48
7.06
7.18
6.87
6.34
5.80
5.39
5.07
4.68
4.10
3.26
2.20
1.03
-0.14
-1.25
-2.34
-3.45
-4.66
-5.92
-7.16
-8.21
-9.01
-9.56
-9.94
-10.20
-10.38
-10.42
-10.22
-9.69
-8.78
-7.50
-5.90
-4.10
-2.26
-0.57
0.78
1.65
2.00
1.99
1.79
1.62
1.56
1.58
1.62
1.59
1.50
1.41
1.35
1.36
1.39
1.42
1.38
1.25
0.97
0.51
-0.17
-1.05
-2.06
-3.10
-4.07
-4.95
-5.80
-6.69
-7.61
-8.49
-9.16
-9.49
-9.37
-8.82
-7.95
-6.88
-5.74
-4.62
-3.53
-2.52
-1.64
-0.95
-0.50
-0.27
-0.16
-0.02
0.34
1.05
2.17
3.64
5.33
7.02
8.45
9.38
9.62
9.14
8.07
6.64
5.19
3.97
3.11
2.62
2.42
2.33
2.21
1.90
1.22
0.08
-1.51
-3.42
-5.42
-7.26
-8.74
-9.73
-10.18
-10.07
-9.43
-8.27
-6.69
-4.84
-2.91
-1.12
0.39
1.57
2.46
3.17
3.81
4.43
5.01
5.50
5.86
6.07
6.22
6.34
6.46
6.53
6.49
6.24
5.80
5.21
4.59
4.02
3.50
2.98
2.38
1.64
0.80
-0.06
-0.87
-1.60
-2.28
-3.00
-3.83
-4.70
-5.47
-5.90
-5.84
-5.27
-4.27
-3.01
-1.65
-0.24
1.19
2.61
3.92
5.00
5.71
6.05
6.11
6.08
6.10
6.23
6.38
6.45
6.34
6.07
5.76
5.54
5.51
5.63
5.75
5.71
5.34
4.65
3.71
2.69
1.74
0.93
0.26
-0.39
-1.18
-2.24
-3.62
-5.18
-6.67
-7.78
-8.26
-7.99
-7.07
-5.71
-4.21
-2.75
-1.46
-0.38
0.43
0.92
1.07
0.96
0.82
0.92
1.42
2.30
3.31
4.10
4.42
4.24
3.72
3.12
2.60
2.17
1.72
1.16
0.48
-0.18
-0.68
-0.98
-1.20
-1.54
-2.15
-3.01
-3.91
-4.59
-4.89
-4.90
-4.91
-5.25
-6.07
-7.30
-8.62
-9.67
-10.19
-10.10
-9.47
-8.40
-6.96
-5.24
-3.37
-1.56
0.01
1.23
2.15
2.88
3.55
4.19
4.74
5.17
5.49
5.83
6.32
6.99
7.72
8.26
8.36
7.93
7.07
6.01
5.00
4.18
3.59
3.15
2.75
2.35
1.91
1.45
0.99
0.52
0.01
-0.62
-1.48
-2.64
-4.10
-5.73
-7.28
-8.43
-8.91
-8.64
-7.73
-6.44
-5.08
-3.85
-2.80
-1.89
-1.03
-0.20
0.53
1.08
1.37
1.44
1.41
1.41
1.53
1.77
2.07
2.29
2.36
2.27
2.05
1.80
1.59
1.44
1.28
1.02
0.53
-0.22
-1.18
-2.23
-3.15
-3.78
-4.06
-4.06
-3.96
-3.97
-4.25
-4.79
-5.51
-6.22
-6.76
-7.01
-6.92
-6.48
-5.68
-4.52
-3.00
-1.22
0.67
2.42
3.77
4.57
4.81
4.64
4.27
3.85
3.48
3.13
2.78
2.46
2.30
2.38
2.71
3.18
3.62
3.88
3.91
3.74
3.43
2.99
2.41
1.65
0.73
-0.26
-1.25
-2.20
-3.09
-3.94
-4.72
-5.37
-5.83
-6.02
-5.92
-5.53
-4.83
-3.83
-2.59
-1.20
0.21
1.52
2.65
3.57
4.28
4.76
4.96
4.84
4.39
3.72
3.00
2.44
2.25
2.51
3.13
3.87
4.40
4.47
3.98
3.04
1.92
0.91
0.18
-0.24
-0.48
-0.71
-1.08
-1.72
-2.64
-3.86
-5.30
-6.83
-8.29
-9.49
-10.28
-10.62
-10.53
-10.09
-9.36
-8.43
-7.34
-6.17
-5.03
-4.05
-3.32
-2.85
-2.58
-2.37
-2.16
-1.91
-1.66
-1.48
-1.37
-1.29
-1.13
-0.80
-0.28
0.39
1.05
1.54
1.71
1.50
0.95
0.18
-0.68
-1.53
-2.34
-3.13
-3.96
-4.82
-5.70
-6.59
-7.46
-8.31
-9.11
-9.78
-10.14
-10.04
-9.40
-8.32
-7.01
-5.72
-4.63
-3.76
-3.02
-2.33
-1.66
-1.06
-0.65
-0.52
-0.71
-1.15
-1.71
-2.22
-2.51
-2.53
-2.27
-1.91
-1.66
-1.70
-2.12
-2.85
-3.71
-4.45
-4.89
-4.93
-4.65
-4.21
-3.85
-3.77
-4.15
-5.01
-6.25
-7.59
-8.70
-9.29
-9.17
-8.32
-6.85
-5.01
-3.10
-1.44
-0.26
0.40
0.70
0.90
1.28
2.01
3.06
4.28
5.48
6.50
7.29
7.85
8.16
8.14
7.73
6.95
5.92
4.88
4.08
3.64
3.52
3.60
3.71
3.72
3.53
3.05
2.17
0.84
-0.88
-2.78
-4.51
-5.69
-6.08
-5.65
-4.58
-3.17
-1.71
-0.43
0.59
1.35
1.92
2.42
2.95
3.55
4.24
4.94
5.58
6.10
6.47
6.65
6.62
6.35
5.84
5.15
4.41
3.73
3.20
2.82
2.47
2.02
1.34
0.36
-0.92
-2.39
-3.86
-5.03
-5.63
-5.48
-4.54
-2.97
-1.07
0.82
2.40
3.49
4.11
4.32
4.30
4.20
4.18
4.33
4.73
5.37
6.18
7.05
7.79
8.24
8.25
7.81
6.96
5.86
4.65
3.41
2.18
0.92
-0.41
-1.78
-3.17
-4.52
-5.80
-7.00
-8.08
-8.98
-9.55
-9.62
-9.08
-7.91
-6.20
-4.17
-2.06
-0.13
1.41
2.48
3.10
3.47
3.84
4.43
5.33
6.43
7.59
8.61
9.39
9.85
9.97
9.70
9.04
8.08
7.00
6.09
5.55
5.43
5.62
5.88
5.98
5.77
5.21
4.28
3.00
1.39
-0.47
-2.39
-4.14
-5.47
-6.22
-6.38
-6.07
-5.47
-4.71
-3.80
-2.62
-1.04
0.95
3.20
5.45
7.39
8.85
9.82
10.46
10.91
11.29
11.57
11.77
11.90
12.08
12.44
13.05
13.83
14.58
15.05
15.11
14.69
13.87
12.77
11.56
10.36
9.29
8.38
7.60
6.90
6.15
5.31
4.36
3.28
2.05
0.61
-1.06
-2.87
-4.56
-5.79
-6.24
-5.81
-4.64
-3.08
-1.51
-0.18
0.84
1.63
2.30
2.91
3.49
4.01
4.42
4.68
4.74
4.56
4.18
3.70
3.29
3.11
3.26
3.67
4.21
4.74
5.14
5.43
5.65
5.80
5.86
5.79
5.55
5.16
4.70
4.22
3.73
3.20
2.52
1.63
0.54
-0.68
-1.92
-3.08
-4.13
-5.10
-6.03
-6.89
-7.56
-7.82
-7.53
-6.64
-5.30
-3.72
-2.18
-0.90
0.01
0.52
0.69
0.60
0.38
0.14
-0.01
0.00
0.18
0.46
0.74
0.91
0.89
0.70
0.41
0.16
0.05
0.13
0.33
0.52
0.56
0.33
-0.18
-0.93
-1.83
-2.77
-3.66
-4.40
-4.94
-5.26
-5.45
-5.68
-6.10
-6.79
-7.69
-8.65
-9.50
-10.09
-10.34
-10.17
-9.52
-8.33
-6.66
-4.68
-2.69
-1.00
0.18
0.77
0.89
0.71
0.41
0.10
-0.10
-0.12
0.11
0.63
1.36
2.16
2.82
3.23
3.33
3.21
2.95
2.63
2.24
1.75
1.16
0.49
-0.16
-0.77
-1.32
-1.85
-2.42
-3.01
-3.58
-4.08
-4.44
-4.67
-4.77
-4.70
-4.37
-3.72
-2.73
-1.54
-0.36
0.62
1.33
1.86
2.39
3.01
3.71
4.32
4.65
4.61
4.24
3.70
3.18
2.78
2.52
2.38
2.35
2.45
2.69
3.00
3.25
3.24
2.86
2.10
1.12
0.18
-0.49
-0.80
-0.82
-0.77
-0.88
-1.31
-2.06
-3.00
-3.91
-4.54
-4.75
-4.46
-3.71
-2.59
-1.18
0.40
2.01
3.45
4.53
5.06
5.04
4.59
3.97
3.46
3.24
3.36
3.73
4.19
4.58
4.75
4.64
4.24
3.61
2.88
2.19
1.64
1.24
0.89
0.50
0.03
-0.43
-0.76
-0.84
-0.74
-0.65
-0.87
-1.64
-2.99
-4.78
-6.66
-8.28
-9.31
-9.61
-9.18
-8.15
-6.74
-5.17
-3.67
-2.42
-1.54
-1.02
-0.75
-0.54
-0.19
0.39
1.15
1.92
2.48
2.65
2.42
1.90
1.31
0.84
0.64
0.74
1.07
1.51
1.89
2.06
1.91
1.43
0.71
-0.10
-0.84
-1.38
-1.71
-1.91
-2.08
-2.36
-2.84
-3.57
-4.54
-5.66
-6.78
-7.73
-8.29
-8.34
-7.85
-6.89
-5.57
-4.09
-2.60
-1.26
-0.16
0.66
1.25
1.68
2.00
2.21
2.28
2.15
1.82
1.36
0.90
0.60
0.52
0.63
0.82
0.95
0.96
0.87
0.72
0.60
0.52
0.45
0.32
0.03
-0.48
-1.24
-2.21
-3.31
-4.45
-5.54
-6.49
-7.28
-7.90
-8.34
-8.58
-8.55
-8.20
-7.50
-6.50
-5.35
-4.26
-3.32
-2.56
-1.81
-0.95
0.11
1.25
2.22
2.76
2.77
2.33
1.72
1.24
1.08
1.29
1.75
2.30
2.80
3.18
3.42
3.54
3.56
3.53
3.48
3.44
3.37
3.19
2.75
1.93
0.70
-0.88
-2.61
-4.25
-5.60
-6.54
-7.04
-7.19
-7.03
-6.59
-5.85
-4.78
-3.43
-1.90
-0.38
0.98
2.04
2.69
2.87
2.53
1.69
0.41
-1.11
-2.62
-3.84
-4.57
-4.73
-4.42
-3.84
-3.25
-2.86
-2.78
-2.97
-3.32
-3.65
-3.83
-3.83
-3.71
-3.60
-3.62
-3.80
-4.04
-4.17
-4.06
-3.65
-2.97
-2.15
-1.27
-0.37
0.59
1.63
2.75
3.82
4.64
5.03
4.91
4.37
3.61
2.91
2.46
2.26
2.17
1.95
1.46
0.71
-0.12
-0.82
-1.24
-1.44
-1.51
-1.56
-1.60
-1.58
-1.49
-1.47
-1.74
-2.49
-3.74
-5.25
-6.63
-7.53
-7.73
-7.27
-6.33
-5.12
-3.83
-2.55
-1.34
-0.25
0.64
1.28
1.65
1.78
1.72
1.59
1.47
1.45
1.50
1.56
1.56
1.44
1.22
0.94
0.65
0.34
0.00
-0.40
-0.88
-1.45
-2.11
-2.83
-3.61
-4.39
-5.08
-5.59
-5.86
-5.83
-5.55
-5.08
-4.47
-3.75
-2.92
-1.93
-0.81
0.41
1.60
2.62
3.30
3.58
3.47
3.13
2.80
2.66
2.81
3.15
3.50
3.62
3.36
2.68
1.71
0.62
-0.41
-1.20
-1.66
-1.76
-1.59
-1.28
-1.05
-1.05
-1.40
-2.08
-2.97
-3.89
-4.67
-5.15
-5.26
-4.98
-4.37
-3.51
-2.57
-1.65
-0.88
-0.29
0.17
0.54
0.88
1.23
1.59
1.95
2.29
2.54
2.67
2.68
2.62
2.53
2.50
2.56
2.71
2.92
3.10
3.20
3.10
2.70
1.90
0.68
-0.91
-2.68
-4.37
-5.72
-6.59
-6.94
-6.86
-6.49
-5.89
-5.10
-4.13
-3.03
-1.85
-0.67
0.43
1.42
2.26
2.91
3.34
3.48
3.34
2.98
2.54
2.19
2.06
2.18
2.46
2.75
2.93
2.93
2.77
2.52
2.21
1.84
1.34
0.70
-0.13
-1.07
-2.07
-3.08
-4.10
-5.12
-6.12
-7.05
-7.78
-8.16
-8.06
-7.48
-6.49
-5.25
-3.95
-2.72
-1.56
-0.42
0.80
2.06
3.23
4.04
4.34
4.12
3.60
3.13
2.98
3.24
3.78
4.37
4.81
4.99
4.95
4.71
4.31
3.70
2.82
1.66
0.34
-1.00
-2.20
-3.14
-3.78
-4.20
-4.49
-4.73
-4.98
-5.22
-5.37
-5.30
-4.90
-4.13
-3.03
-1.70
-0.32
1.00
2.12
3.02
3.65
3.98
4.01
3.79
3.45
3.14
3.02
3.16
3.50
3.88
4.15
4.17
3.93
3.43
2.75
1.97
1.19
0.50
-0.06
-0.45
-0.72
-0.98
-1.33
-1.87
-2.61
-3.51
-4.50
-5.49
-6.35
-6.93
-7.04
-6.56
-5.45
-3.85
-1.99
-0.12
1.56
2.96
4.04
4.84
5.37
5.66
5.77
5.75
5.70
5.66
5.60
5.51
5.34
5.10
4.82
4.54
4.28
3.99
3.68
3.34
3.05
2.80
2.54
2.12
1.38
0.22
-1.29
-2.99
-4.64
-6.14
-7.44
-8.57
-9.52
-10.15
-10.29
-9.75
-8.53
-6.83
-4.97
-3.21
-1.71
-0.47
0.63
1.68
2.72
3.67
4.42
4.90
5.11
5.12
5.00
4.85
4.70
4.57
4.49
4.48
4.57
4.76
4.98
5.07
4.85
4.26
3.29
2.10
0.88
-0.19
-1.10
-1.94
-2.82
-3.85
-5.07
-6.43
-7.81
-9.06
-9.99
-10.38
-10.08
-9.05
-7.38
-5.31
-3.13
-1.13
0.54
1.84
2.77
3.40
3.75
3.85
3.75
3.52
3.31
3.28
3.52
4.09
4.90
5.78
6.53
6.97
7.02
6.69
6.08
5.31
4.48
3.65
2.85
2.10
1.38
0.66
-0.12
-1.01
-2.05
-3.25
-4.57
-5.90
-7.06
-7.84
-8.05
-7.58
-6.49
-4.97
-3.30
-1.72
-0.36
0.81
1.87
2.88
3.84
4.68
5.35
5.83
6.15
6.34
6.48
6.57
6.60
6.59
6.50
6.32
5.99
5.54
5.04
4.59
4.27
4.07
3.92
3.68
3.18
2.35
1.19
-0.27
-1.97
-3.83
-5.74
-7.55
-9.07
-10.09
-10.47
-10.16
-9.21
-7.76
-6.07
-4.35
-2.80
-1.46
-0.26
0.93
2.20
3.55
4.88
6.03
6.87
7.37
7.61
7.69
7.69
7.70
7.74
7.82
7.92
7.96
7.81
7.38
6.64
5.64
4.56
3.54
2.66
1.94
1.29
0.68
0.08
-0.51
-1.12
-1.86
-2.85
-4.20
-5.89
-7.72
-9.36
-10.41
-10.61
-9.92
-8.50
-6.68
-4.79
-3.03
-1.51
-0.16
1.08
2.24
3.31
4.27
5.10
5.87
6.61
7.36
8.03
8.52
8.74
8.73
8.58
8.43
8.37
8.36
8.28
8.01
7.48
6.75
5.93
5.14
4.40
3.66
2.84
1.95
1.07
0.39
0.07
0.09
0.25
0.24
-0.24
-1.29
-2.79
-4.47
-6.06
-7.41
-8.54
-9.46
-10.13
-10.39
-10.04
-8.97
-7.28
-5.27
-3.31
-1.69
-0.50
0.34
1.03
1.75
2.58
3.50
4.44
5.30
5.99
6.51
6.86
7.09
7.26
7.40
7.48
7.48
7.38
7.22
7.07
6.97
6.90
6.78
6.48
5.91
5.09
4.13
3.15
2.28
1.52
0.78
-0.07
-1.07
-2.20
-3.31
-4.31
-5.17
-5.97
-6.90
-8.08
-9.44
-10.75
-11.69
-11.97
-11.54
-10.50
-9.10
-7.53
-5.90
-4.23
-2.52
-0.83
0.79
2.25
3.54
4.61
5.44
5.96
6.13
5.92
5.46
4.94
4.59
4.53
4.76
5.15
5.51
5.69
5.61
5.26
4.70
4.06
3.44
2.92
2.54
2.20
1.83
1.33
0.69
-0.05
-0.78
-1.41
-1.91
-2.30
-2.65
-3.05
-3.59
-4.30
-5.20
-6.21
-7.19
-7.97
-8.34
-8.20
-7.59
-6.63
-5.55
-4.52
-3.62
-2.78
-1.90
-0.86
0.30
1.47
2.43
3.04
3.23
3.11
2.87
2.70
2.71
2.91
3.28
3.77
4.37
5.01
5.64
6.15
6.42
6.35
5.90
5.14
4.19
3.19
2.29
1.57
1.05
0.66
0.29
-0.18
-0.85
-1.82
-3.07
-4.51
-5.97
-7.30
-8.36
-9.07
-9.46
-9.55
-9.36
-8.86
-8.02
-6.82
-5.28
-3.54
-1.75
-0.09
1.34
2.49
3.36
3.94
4.25
4.27
4.07
3.75
3.41
3.18
3.10
3.14
3.26
3.42
3.60
3.82
4.08
4.33
4.47
4.39
4.01
3.35
2.51
1.63
0.83
0.23
-0.16
-0.33
-0.39
-0.44
-0.64
-1.15
-2.07
-3.44
-5.13
-6.92
-8.49
-9.52
-9.83
-9.35
-8.18
-6.54
-4.70
-2.93
-1.47
-0.43
0.20
0.53
0.73
0.93
1.17
1.36
1.46
1.47
1.49
1.70
2.23
3.01
3.87
4.52
4.78
4.65
4.25
3.77
3.32
2.92
2.50
1.99
1.37
0.66
-0.06
-0.68
-1.12
-1.32
-1.30
-1.17
-1.10
-1.29
-1.90
-2.93
-4.26
-5.71
-7.05
-8.14
-8.89
-9.22
-9.06
-8.37
-7.14
-5.50
-3.66
-1.87
-0.35
0.80
1.59
2.13
2.52
2.82
3.02
3.10
3.04
2.88
2.65
2.42
2.21
2.03
1.90
1.85
1.94
2.15
2.43
2.64
2.63
2.32
1.70
0.84
-0.16
-1.23
-2.32
-3.34
-4.16
-4.61
-4.62
-4.30
-3.93
-3.89
-4.46
-5.71
-7.36
-9.00
-10.17
-10.54
-10.05
-8.78
-7.01
-5.06
-3.21
-1.68
-0.54
0.23
0.73
1.09
1.38
1.66
2.00
2.45
3.06
3.80
4.55
5.09
5.29
5.12
4.70
4.25
3.94
3.82
3.82
3.76
3.51
3.00
2.26
1.38
0.48
-0.35
-1.10
-1.81
-2.61
-3.64
-4.98
-6.59
-8.27
-9.72
-10.63
-10.80
-10.20
-8.96
-7.30
-5.47
-3.62
-1.89
-0.33
1.02
2.10
2.84
3.21
3.30
3.17
2.94
2.64
2.30
1.92
1.60
1.46
1.63
2.15
2.89
3.58
3.96
3.86
3.32
2.49
1.60
0.79
0.07
-0.61
-1.34
-2.17
-3.07
-4.00
-4.91
-5.74
-6.41
-6.88
-7.07
-6.97
-6.61
-6.03
-5.27
-4.39
-3.41
-2.38
-1.36
-0.40
0.45
1.15
1.70
2.07
2.26
2.32
2.32
2.36
2.46
2.63
2.79
2.87
2.82
2.66
2.43
2.14
1.76
1.28
0.72
0.15
-0.30
-0.59
-0.72
-0.85
-1.15
-1.77
-2.78
-4.12
-5.61
-6.99
-7.99
-8.38
-8.09
-7.19
-5.89
-4.42
-3.00
-1.71
-0.52
0.59
1.66
2.66
3.55
4.27
4.77
5.04
5.03
4.73
4.17
3.43
2.63
1.89
1.33
0.97
0.77
0.67
0.60
0.48
0.26
-0.15
-0.77
-1.61
-2.59
-3.62
-4.62
-5.54
-6.43
-7.35
-8.32
-9.32
-10.18
-10.67
-10.65
-10.06
-9.00
-7.68
-6.29
-4.89
-3.47
-1.96
-0.39
1.12
2.42
3.37
3.95
4.27
4.48
4.70
4.99
5.29
5.54
5.64
5.59
5.41
5.17
4.91
4.66
4.40
4.08
3.67
3.12
2.44
1.63
0.68
-0.42
-1.72
-3.22
-4.86
-6.48
-7.87
-8.78
-9.05
-8.61
-7.52
-5.92
-4.04
-2.11
-0.30
1.27
2.52
3.43
4.04
4.43
4.67
4.87
5.06
5.26
5.44
5.58
5.65
5.72
5.82
5.96
6.06
5.97
5.53
4.66
3.43
2.06
0.83
-0.09
-0.63
-0.88
-1.02
-1.27
-1.82
-2.73
-4.04
-5.65
-7.36
-8.90
-9.97
-10.29
-9.76
-8.43
-6.47
-4.17
-1.83
0.36
2.30
3.96
5.39
6.63
7.61
8.25
8.46
8.20
7.54
6.67
5.82
5.20
4.94
5.01
5.30
5.65
5.92
6.03
5.96
5.72
5.33
4.79
4.12
3.33
2.49
1.71
1.12
0.79
0.65
0.54
0.20
-0.61
-1.99
-3.90
-6.11
-8.29
-10.09
-11.24
-11.61
-11.21
-10.20
-8.81
-7.29
-5.83
-4.49
-3.23
-1.93
-0.50
1.14
2.91
4.66
6.19
7.36
8.11
8.51
8.74
8.91
9.11
9.32
9.50
9.58
9.58
9.51
9.38
9.18
8.86
8.36
7.69
6.89
6.02
5.09
4.12
3.11
2.10
1.19
0.46
-0.08
-0.55
-1.13
-1.97
-3.10
-4.41
-5.72
-6.88
-7.91
-8.92
-10.03
-11.25
-12.38
-13.10
-13.08
-12.16
-10.43
-8.21
-5.86
-3.67
-1.73
0.00
1.68
3.36
5.01
6.51
7.73
8.61
9.14
9.43
9.56
9.61
9.61
9.54
9.40
9.23
9.05
8.89
8.74
8.51
8.11
7.44
6.54
5.50
4.49
3.72
3.33
3.37
3.71
4.12
4.30
4.00
3.10
1.66
-0.12
-1.89
-3.32
-4.26
-4.73
-4.93
-5.16
-5.67
-6.56
-7.77
-9.08
-10.24
-11.01
-11.22
-10.84
-9.96
-8.75
-7.43
-6.18
-5.07
-4.07
-3.04
-1.85
-0.39
1.33
3.20
5.03
6.57
7.62
8.03
7.80
7.11
6.28
5.61
5.32
5.44
5.84
6.33
6.77
7.13
7.36
7.41
7.13
6.43
5.35
4.04
2.76
1.71
0.98
0.54
0.27
0.05
-0.24
-0.71
-1.45
-2.46
-3.69
-4.96
-6.17
-7.28
-8.37
-9.55
-10.77
-11.83
-12.43
-12.32
-11.49
-10.12
-8.49
-6.78
-5.05
-3.24
-1.36
0.51
2.19
3.57
4.63
5.48
6.26
7.07
7.86
8.53
8.94
9.01
8.76
8.30
7.76
7.32
7.02
6.84
6.64
6.30
5.73
4.98
4.17
3.47
2.97
2.65
2.40
2.09
1.63
1.00
0.23
-0.59
-1.40
-2.16
-2.85
-3.50
-4.19
-4.96
-5.89
-6.96
-8.14
-9.34
-10.44
-11.28
-11.73
-11.57
-10.72
-9.16
-7.07
-4.77
-2.60
-0.81
0.55
1.59
2.50
3.40
4.30
5.13
5.83
6.36
6.77
7.08
7.27
7.28
7.06
6.66
6.17
5.75
5.49
5.40
5.41
5.44
5.46
5.46
5.44
5.35
5.10
4.59
3.74
2.63
1.39
0.23
-0.71
-1.37
-1.81
-2.15
-2.53
-3.01
-3.64
-4.40
-5.34
-6.48
-7.84
-9.34
-10.79
-11.93
-12.47
-12.27
-11.32
-9.78
-7.93
-6.05
-4.37
-2.98
-1.84
-0.83
0.17
1.20
2.22
3.09
3.72
4.03
4.10
4.06
4.08
4.22
4.46
4.71
4.89
4.95
4.94
4.95
5.03
5.18
5.31
5.29
5.05
4.59
3.98
3.30
2.58
1.80
0.92
-0.03
-0.94
-1.64
-2.05
-2.20
-2.24
-2.40
-2.86
-3.69
-4.84
-6.20
-7.61
-8.92
-9.93
-10.46
-10.33
-9.48
-8.01
-6.13
-4.12
-2.24
-0.59
0.83
2.12
3.34
4.47
5.38
5.90
5.92
5.52
4.93
4.46
4.37
4.71
5.31
5.88
6.17
6.08
5.71
5.25
4.83
4.48
4.11
3.63
3.03
2.38
1.76
1.20
0.63
-0.05
-0.87
-1.77
-2.61
-3.29
-3.85
-4.45
-5.29
-6.45
-7.85
-9.22
-10.23
-10.66
-10.41
-9.61
-8.43
-7.10
-5.73
-4.37
-2.97
-1.50
0.01
1.47
2.70
3.56
3.99
4.04
3.86
3.62
3.46
3.46
3.66
4.07
4.65
5.33
5.97
6.40
6.48
6.09
5.25
4.07
2.75
1.47
0.43
-0.27
-0.59
-0.65
-0.55
-0.46
-0.53
-0.88
-1.58
-2.66
-4.10
-5.76
-7.50
-9.07
-10.29
-10.99
-11.09
-10.57
-9.53
-8.14
-6.66
-5.32
-4.25
-3.44
-2.74
-1.95
-0.95
0.23
1.46
2.60
3.57
4.37
5.03
5.59
6.04
6.32
6.40
6.32
6.14
5.89
5.62
5.30
4.92
4.48
3.95
3.32
2.57
1.72
0.83
0.04
-0.54
-0.91
-1.17
-1.55
-2.26
-3.47
-5.14
-7.10
-9.08
-10.80
-12.03
-12.59
-12.42
-11.50
-9.89
-7.76
-5.39
-3.12
-1.25
0.01
0.71
1.05
1.35
1.87
2.68
3.69
4.67
5.42
5.87
6.04
6.00
5.82
5.55
5.20
4.79
4.37
3.95
3.51
3.00
2.31
1.46
0.51
-0.39
-1.11
-1.59
-1.92
-2.25
-2.82
-3.73
-4.98
-6.43
-7.85
-9.01
-9.75
-9.98
-9.71
-8.96
-7.81
-6.28
-4.49
-2.56
-0.61
1.26
2.99
4.59
6.04
7.26
8.12
8.46
8.15
7.15
5.59
3.71
1.87
0.44
-0.36
-0.50
-0.21
0.12
0.11
-0.52
-1.76
-3.40
-5.13
-6.71
-8.02
-9.08
-9.95
-10.69
-11.36
-12.00
-12.58
-13.04
-13.23
-12.98
-12.12
-10.62
-8.57
-6.18
-3.72
-1.37
0.67
2.30
3.49
4.30
4.84
5.32
5.87
6.53
7.20
7.72
7.94
7.81
7.36
6.67
5.83
4.94
4.11
3.43
2.99
2.79
2.76
2.75
2.60
2.23
1.57
0.64
-0.53
-1.85
-3.25
-4.66
-6.04
-7.36
-8.61
-9.66
-10.34
-10.45
-9.91
-8.79
-7.38
-5.98
-4.78
-3.79
-2.84
-1.77
-0.49
0.93
2.36
3.62
4.59
5.23
5.50
5.44
5.13
4.71
4.35
4.22
4.34
4.62
4.87
4.97
4.82
4.44
3.88
3.23
2.55
1.93
1.44
1.11
0.91
0.72
0.36
-0.34
-1.48
-3.01
-4.76
-6.47
-7.88
-8.75
-8.96
-8.47
-7.41
-5.96
-4.35
-2.76
-1.29
0.02
1.18
2.24
3.21
4.13
5.05
5.99
6.97
7.94
8.85
9.61
10.23
10.74
11.21
11.64
11.98
12.09
11.81
11.06
9.90
8.48
7.01
5.66
4.47
3.41
2.41
1.43
0.53
-0.26
-0.91
-1.47
-2.11
-2.98
-4.16
-5.59
-7.15
-8.66
-10.07
-11.40
-12.71
-13.97
-15.03
-15.65
-15.58
-14.67
-12.99
-10.81
-8.50
-6.46
-4.89
-3.82
-3.10
-2.53
-1.95
-1.31
-0.64
0.02
0.66
1.33
2.10
2.96
3.80
4.48
4.87
4.93
4.77
4.54
4.42
4.45
4.60
4.70
4.56
4.02
3.04
1.68
0.16
-1.30
-2.48
-3.37
-4.06
-4.78
-5.75
-7.08
-8.75
-10.58
-12.37
-13.87
-14.90
-15.33
-15.06
-14.09
-12.44
-10.23
-7.65
-4.92
-2.27
0.09
2.06
3.64
4.92
6.04
7.10
8.15
9.13
9.93
10.47
10.71
10.71
10.59
10.44
10.36
10.36
10.42
10.56
10.82
11.21
11.71
12.23
12.62
12.74
12.56
12.16
11.62
10.94
10.03
8.72
6.88
4.58
2.06
-0.32
-2.22
-3.45
-3.87
-3.46
-2.17
0.02
2.95
6.33
9.73
12.76
15.18
16.93
18.16
19.00
19.56
19.80
19.65
19.05
18.05
16.76
15.37
14.10
13.10
12.49
12.29
12.34
12.34
11.93
10.80
8.85
6.21
3.20
0.22
-2.42
-4.58
-6.30
-7.67
-8.80
-9.79
-10.68
-11.49
-12.21
-12.77
-13.01
-12.75
-11.79
-10.04
-7.55
-4.49
-1.10
2.39
5.82
8.99
11.68
13.63
14.62
14.58
13.69
12.42
11.34
10.95
11.41
12.46
13.58
14.15
13.77
12.41
10.33
7.89
5.37
2.83
0.18
-2.72
-5.85
-9.02
-11.85
-13.96
-15.12
-15.39
-15.07
-14.53
-14.08
-13.80
-13.55
-13.15
-12.51
-11.78
-11.24
-11.21
-11.84
-13.07
-14.62
-16.18
-17.56
-18.64
-19.40
-19.80
-19.73
-19.06
-17.66
-15.48
-12.56
-9.01
-5.02
-0.90
3.00
6.32
8.82
10.48
11.47
12.00
12.24
12.23
11.89
11.23
10.37
9.56
8.99
8.75
8.65
8.42
7.80
6.65
5.01
3.10
1.17
-0.54
-1.89
-2.84
-3.47
-3.92
-4.35
-4.93
-5.74
-6.87
-8.32
-10.02
-11.75
-13.21
-14.03
-13.98
-13.03
-11.44
-9.59
-7.78
-6.11
-4.46
-2.59
-0.39
2.07
4.54
6.66
8.19
9.06
9.39
9.38
9.28
9.27
9.41
9.72
10.11
10.57
11.08
11.67
12.35
13.03
13.54
13.73
13.50
12.88
12.02
11.04
9.95
8.62
6.87
4.57
1.82
-1.08
-3.73
-5.75
-6.96
-7.36
-7.16
-6.60
-5.94
-5.32
-4.84
-4.50
-4.26
-4.06
-3.82
-3.50
-3.07
-2.57
-2.04
-1.59
-1.26
-1.10
-1.10
-1.23
-1.42
-1.56
-1.57
-1.37
-0.98
-0.54
-0.28
-0.46
-1.15
-2.31
-3.65
-4.87
-5.75
-6.34
-6.84
-7.53
-8.58
-9.95
-11.41
-12.68
-13.49
-13.69
-13.25
-12.22
-10.69
-8.81
-6.73
-4.66
-2.74
-1.09
0.24
1.29
2.09
2.68
3.08
3.31
3.41
3.44
3.47
3.56
3.73
3.98
4.27
4.48
4.53
4.30
3.78
3.03
2.15
1.26
0.42
-0.37
-1.15
-1.98
-2.89
-3.88
-4.89
-5.82
-6.56
-6.96
-6.96
-6.53
-5.75
-4.76
-3.68
-2.56
-1.36
0.01
1.55
3.14
4.59
5.67
6.25
6.35
6.11
5.74
5.35
5.01
4.67
4.24
3.69
3.02
2.30
1.63
1.09
0.68
0.35
-0.03
-0.57
-1.35
-2.37
-3.60
-4.96
-6.39
-7.84
-9.17
-10.23
-10.82
-10.74
-9.87
-8.24
-6.06
-3.62
-1.24
0.81
2.39
3.48
4.16
4.54
4.79
5.02
5.29
5.56
5.74
5.69
5.31
4.59
3.63
2.56
1.49
0.53
-0.30
-0.95
-1.32
-1.36
-1.10
-0.79
-0.74
-1.25
-2.36
-3.88
-5.40
-6.56
-7.13
-7.12
-6.66
-5.94
-5.05
-4.04
-2.90
-1.66
-0.37
0.89
2.07
3.10
3.96
4.62
5.13
5.52
5.85
6.10
6.16
5.90
5.27
4.36
3.40
2.67
2.30
2.29
2.49
2.75
2.98
3.20
3.44
3.69
3.80
3.58
2.92
1.80
0.40
-1.07
-2.43
-3.57
-4.45
-5.07
-5.37
-5.29
-4.76
-3.74
-2.33
-0.73
0.83
2.09
2.93
3.35
3.46
3.43
3.44
3.57
3.86
4.25
4.68
5.10
5.44
5.69
5.81
5.80
5.59
5.15
4.44
3.48
2.37
1.28
0.38
-0.20
-0.49
-0.64
-0.86
-1.34
-2.14
-3.26
-4.64
-6.24
-8.01
-9.86
-11.53
-12.73
-13.15
-12.60
-11.12
-8.95
-6.44
-3.91
-1.58
0.47
2.23
3.70
4.87
5.69
6.13
6.19
5.97
5.66
5.41
5.32
5.40
5.57
5.70
5.71
5.55
5.27
4.88
4.40
3.83
3.21
2.54
1.84
1.09
0.22
-0.86
-2.21
-3.80
-5.55
-7.28
-8.82
-10.10
-11.07
-11.71
-12.03
-12.02
-11.61
-10.79
-9.58
-8.04
-6.27
-4.41
-2.54
-0.76
0.89
2.38
3.63
4.57
5.14
5.30
5.03
4.41
3.57
2.71
2.07
1.82
2.03
2.63
3.40
4.04
4.35
4.24
3.80
3.21
2.63
2.07
1.47
0.69
-0.34
-1.65
-3.15
-4.71
-6.21
-7.56
-8.65
-9.40
-9.71
-9.51
-8.78
-7.61
-6.17
-4.66
-3.25
-2.02
-0.93
0.13
1.27
2.56
3.93
5.23
6.29
6.98
7.27
7.22
6.92
6.48
6.01
5.57
5.22
4.96
4.79
4.63
4.40
4.00
3.37
2.55
1.66
0.81
0.08
-0.53
-1.14
-1.87
-2.78
-3.93
-5.28
-6.77
-8.33
-9.87
-11.26
-12.29
-12.76
-12.51
-11.55
-10.04
-8.29
-6.61
-5.20
-4.14
-3.33
-2.66
-2.01
-1.33
-0.61
0.18
1.03
1.94
2.84
3.62
4.14
4.33
4.20
3.88
3.50
3.19
2.99
2.83
2.65
2.39
2.06
1.69
1.33
1.02
0.77
0.56
0.34
0.04
-0.45
-1.20
-2.31
-3.77
-5.50
-7.30
-8.88
-9.87
-10.01
-9.16
-7.44
-5.23
-2.97
-1.06
0.34
1.29
1.99
2.63
3.23
3.71
3.96
3.96
3.83
3.77
3.92
4.26
4.71
5.08
5.30
5.39
5.46
5.59
5.76
5.88
5.80
5.42
4.70
3.73
2.68
1.72
0.97
0.43
-0.03
-0.60
-1.46
-2.64
-4.07
-5.58
-6.93
-7.90
-8.29
-7.95
-6.85
-5.08
-2.93
-0.80
0.93
2.07
2.67
2.92
3.05
3.18
3.28
3.30
3.24
3.17
3.21
3.38
3.62
3.80
3.83
3.74
3.57
3.40
3.21
2.89
2.34
1.55
0.61
-0.35
-1.23
-2.03
-2.85
-3.78
-4.90
-6.18
-7.51
-8.69
-9.51
-9.82
-9.55
-8.76
-7.59
-6.19
-4.72
-3.27
-1.87
-0.54
0.69
1.75
2.60
3.23
3.70
4.07
4.43
4.80
5.19
5.59
5.99
6.33
6.55
6.55
6.28
5.75
5.08
4.45
3.99
3.76
3.67
3.55
3.24
2.66
1.80
0.68
-0.64
-2.10
-3.56
-4.83
-5.72
-6.09
-5.95
-5.42
-4.65
-3.75
-2.77
-1.67
-0.42
0.96
2.39
3.75
4.92
5.80
6.33
6.48
6.34
6.02
5.68
5.48
5.44
5.53
5.66
5.73
5.68
5.54
5.33
5.02
4.58
3.98
3.22
2.37
1.53
0.74
0.02
-0.69
-1.42
-2.25
-3.23
-4.37
-5.72
-7.22
-8.72
-10.00
-10.77
-10.83
-10.13
-8.83
-7.19
-5.45
-3.76
-2.09
-0.43
1.22
2.79
4.11
5.06
5.62
5.85
5.92
6.00
6.16
6.43
6.72
6.91
6.92
6.72
6.34
5.91
5.50
5.15
4.79
4.30
3.52
2.39
0.97
-0.55
-1.93
-2.97
-3.60
-3.89
-4.04
-4.28
-4.78
-5.59
-6.61
-7.62
-8.41
-8.80
-8.76
-8.33
-7.57
-6.57
-5.35
-3.92
-2.34
-0.66
0.98
2.49
3.79
4.84
5.62
6.16
6.46
6.52
6.36
6.01
5.52
4.99
4.53
4.26
4.24
4.44
4.73
4.92
4.84
4.37
3.55
2.45
1.24
0.08
-0.87
-1.54
-1.91
-2.08
-2.25
-2.57
-3.19
-4.11
-5.25
-6.42
-7.42
-8.12
-8.42
-8.30
-7.77
-6.90
-5.77
-4.48
-3.15
-1.87
-0.73
0.27
1.16
1.98
2.76
3.43
3.95
4.26
4.39
4.43
4.56
4.88
5.40
6.02
6.60
7.03
7.26
7.32
7.23
6.98
6.48
5.68
4.63
3.45
2.30
1.32
0.50
-0.21
-0.96
-1.80
-2.71
-3.62
-4.43
-5.08
-5.60
-6.00
-6.30
-6.49
-6.48
-6.23
-5.69
-4.89
-3.88
-2.76
-1.63
-0.55
0.47
1.48
2.50
3.57
4.63
5.60
6.42
7.01
7.36
7.48
7.40
7.17
6.87
6.58
6.39
6.31
6.33
6.36
6.29
6.07
5.68
5.17
4.61
4.08
3.65
3.32
3.03
2.68
2.15
1.41
0.51
-0.43
-1.31
-2.10
-2.88
-3.72
-4.62
-5.49
-6.15
-6.52
-6.58
-6.45
-6.23
-5.92
-5.43
-4.65
-3.57
-2.33
-1.19
-0.35
0.13
0.34
0.40
0.42
0.37
0.16
-0.20
-0.62
-0.88
-0.78
-0.27
0.50
1.25
1.75
1.90
1.82
1.73
1.83
2.14
2.54
2.77
2.64
2.13
1.33
0.52
-0.10
-0.38
-0.38
-0.26
-0.27
-0.61
-1.39
-2.58
-4.00
-5.47
-6.80
-7.82
-8.47
-8.72
-8.51
-7.82
-6.68
-5.21
-3.60
-2.11
-0.93
-0.14
0.37
0.78
1.30
2.00
2.85
3.65
4.23
4.49
4.45
4.22
3.91
3.65
3.45
3.28
3.09
2.85
2.55
2.18
1.78
1.36
0.87
0.27
-0.49
-1.37
-2.26
-3.00
-3.50
-3.78
-3.98
-4.31
-4.92
-5.84
-6.95
-7.99
-8.73
-8.94
-8.56
-7.65
-6.36
-4.88
-3.36
-1.91
-0.61
0.50
1.37
1.99
2.41
2.69
2.95
3.24
3.55
3.84
4.04
4.12
4.10
4.04
3.98
3.94
3.92
3.93
3.94
3.88
3.66
3.16
2.38
1.44
0.56
-0.07
-0.42
-0.61
-0.88
-1.44
-2.38
-3.63
-5.05
-6.49
-7.86
-9.10
-10.14
-10.84
-11.01
-10.52
-9.39
-7.78
-6.01
-4.40
-3.14
-2.24
-1.56
-0.90
-0.09
0.92
2.06
3.20
4.20
5.03
5.68
6.16
6.49
6.64
6.60
6.37
5.99
5.53
5.08
4.72
4.44
4.21
3.93
3.54
3.00
2.35
1.73
1.29
1.11
1.17
1.31
1.31
0.96
0.16
-1.09
-2.70
-4.48
-6.22
-7.66
-8.55
-8.72
-8.19
-7.15
-5.92
-4.78
-3.87
-3.17
-2.57
-1.94
-1.25
-0.52
0.16
0.78
1.35
1.93
2.55
3.17
3.73
4.15
4.37
4.39
4.27
4.09
3.99
4.05
4.33
4.78
5.31
5.74
5.93
5.77
5.24
4.38
3.27
2.02
0.72
-0.54
-1.73
-2.83
-3.88
-4.90
-5.87
-6.76
-7.53
-8.13
-8.54
-8.73
-8.70
-8.46
-8.00
-7.34
-6.53
-5.58
-4.53
-3.41
-2.29
-1.21
-0.25
0.55
1.23
1.87
2.54
3.24
3.92
4.47
4.79
4.86
4.71
4.47
4.26
4.14
4.12
4.11
4.05
3.88
3.57
3.17
2.71
2.16
1.47
0.55
-0.60
-1.86
-3.09
-4.12
-4.91
-5.51
-6.04
-6.55
-6.99
-7.21
-7.10
-6.63
-5.91
-5.09
-4.27
-3.47
-2.65
-1.74
-0.80
0.06
0.71
1.11
1.32
1.47
1.71
2.11
2.60
3.09
3.47
3.64
3.59
3.39
3.09
2.79
2.52
2.34
2.25
2.24
2.26
2.26
2.18
1.94
1.49
0.81
-0.12
-1.27
-2.57
-3.92
-5.22
-6.30
-7.01
-7.22
-6.79
-5.78
-4.34
-2.74
-1.29
-0.23
0.39
0.65
0.73
0.77
0.85
0.97
1.10
1.25
1.47
1.81
2.22
2.62
2.90
3.02
3.01
2.97
2.93
2.85
2.62
2.18
1.53
0.78
0.05
-0.58
-1.09
-1.56
-2.02
-2.52
-3.07
-3.66
-4.30
-5.00
-5.72
-6.41
-6.98
-7.32
-7.34
-6.98
-6.21
-5.04
-3.58
-1.94
-0.29
1.21
2.46
3.42
4.09
4.52
4.79
4.90
4.86
4.62
4.19
3.61
3.02
2.56
2.39
2.56
3.01
3.55
3.93
3.91
3.38
2.38
1.11
-0.16
-1.16
-1.76
-2.00
-2.08
-2.26
-2.73
-3.57
-4.66
-5.80
-6.75
-7.33
-7.44
-7.10
-6.35
-5.29
-3.98
-2.53
-1.07
0.24
1.24
1.84
2.11
2.22
2.41
2.81
3.42
4.04
4.41
4.37
3.89
3.12
2.30
1.64
1.21
1.00
0.93
0.87
0.71
0.39
-0.12
-0.80
-1.55
-2.22
-2.68
-2.89
-2.91
-2.88
-3.02
-3.47
-4.30
-5.40
-6.58
-7.59
-8.18
-8.20
-7.63
-6.60
-5.33
-4.02
-2.86
-1.91
-1.20
-0.69
-0.34
-0.09
0.16
0.48
0.98
1.70
2.62
3.61
4.50
5.18
5.60
5.78
5.78
5.64
5.37
4.98
4.44
3.83
3.21
2.67
2.25
1.90
1.58
1.18
0.62
-0.19
-1.28
-2.62
-4.11
-5.59
-6.88
-7.77
-8.13
-7.89
-7.08
-5.81
-4.29
-2.75
-1.39
-0.27
0.63
1.40
2.15
2.88
3.49
3.88
3.96
3.79
3.50
3.24
3.10
3.09
3.14
3.21
3.29
3.39
3.50
3.52
3.31
2.72
1.65
0.17
-1.55
-3.23
-4.61
-5.56
-6.06
-6.28
-6.40
-6.56
-6.79
-7.03
-7.22
-7.30
-7.23
-7.00
-6.51
-5.67
-4.40
-2.73
-0.82
1.09
2.77
4.13
5.22
6.13
6.94
7.62
8.09
8.29
8.19
7.85
7.37
6.87
6.42
6.03
5.72
5.39
4.96
4.34
3.49
2.45
1.38
0.44
-0.27
-0.80
-1.30
-1.99
-3.00
-4.32
-5.84
-7.36
-8.72
-9.77
-10.41
-10.55
-10.09
-9.02
-7.42
-5.51
-3.58
-1.90
-0.59
0.41
1.28
2.21
3.33
4.54
5.66
6.47
6.83
6.79
6.50
6.19
6.04
6.11
6.39
6.81
7.29
7.74
8.08
8.21
8.04
7.53
6.71
5.68
4.59
3.59
2.74
2.05
1.48
0.95
0.39
-0.30
-1.18
-2.33
-3.78
-5.47
-7.19
-8.67
-9.60
-9.80
-9.26
-8.13
-6.66
-5.05
-3.38
-1.64
0.21
2.13
3.92
5.34
6.18
6.40
6.18
5.83
5.65
5.80
6.25
6.87
7.44
7.83
7.98
7.91
7.66
7.23
6.66
5.96
5.20
4.46
3.77
3.13
2.47
1.68
0.72
-0.39
-1.53
-2.52
-3.23
-3.64
-3.86
-4.07
-4.49
-5.27
-6.43
-7.86
-9.32
-10.51
-11.12
-10.98
-10.04
-8.46
-6.55
-4.62
-3.00
-1.82
-1.08
-0.61
-0.17
0.44
1.33
2.48
3.74
4.93
5.89
6.54
6.89
7.01
6.99
6.84
6.58
6.23
5.85
5.57
5.44
5.47
5.53
5.42
4.96
4.16
3.18
2.27
1.64
1.32
1.17
0.97
0.53
-0.18
-1.11
-2.16
-3.24
-4.25
-5.10
-5.64
-5.73
-5.29
-4.37
-3.15
-1.86
-0.73
0.17
0.82
1.33
1.77
2.15
2.45
2.65
2.74
2.82
2.97
3.24
3.63
4.02
4.34
4.52
4.60
4.61
4.58
4.47
4.18
3.66
2.91
2.04
1.19
0.51
0.07
-0.20
-0.50
-1.04
-2.03
-3.49
-5.28
-7.14
-8.73
-9.81
-10.25
-10.03
-9.22
-7.96
-6.40
-4.71
-3.07
-1.62
-0.42
0.55
1.36
2.10
2.80
3.44
3.98
4.37
4.58
4.58
4.32
3.86
3.30
2.84
2.69
2.98
3.67
4.58
5.49
6.18
6.58
6.66
6.40
5.78
4.81
3.57
2.27
1.20
0.57
0.39
0.47
0.43
-0.08
-1.26
-3.08
-5.29
-7.43
-9.06
-9.82
-9.60
-8.49
-6.81
-4.94
-3.17
-1.65
-0.38
0.67
1.51
2.11
2.46
2.64
2.76
2.99
3.40
3.98
4.58
5.06
5.29
5.23
4.92
4.44
3.94
3.58
3.51
3.75
4.19
4.64
4.79
4.47
3.66
2.49
1.20
0.03
-0.87
-1.48
-1.87
-2.22
-2.72
-3.51
-4.62
-5.91
-7.14
-8.02
-8.32
-7.99
-7.15
-5.95
-4.59
-3.13
-1.61
-0.06
1.42
2.70
3.64
4.15
4.31
4.27
4.19
4.20
4.33
4.52
4.67
4.71
4.62
4.43
4.21
3.98
3.75
3.53
3.32
3.18
3.16
3.24
3.34
3.31
2.98
2.26
1.20
0.00
-1.11
-1.93
-2.41
-2.61
-2.66
-2.73
-2.92
-3.36
-4.10
-5.12
-6.36
-7.63
-8.67
-9.22
-9.08
-8.22
-6.78
-5.00
-3.16
-1.42
0.13
1.47
2.54
3.27
3.63
3.67
3.59
3.63
3.98
4.63
5.34
5.79
5.72
5.12
4.22
3.34
2.74
2.55
2.67
2.94
3.20
3.34
3.28
3.04
2.71
2.42
2.30
2.40
2.61
2.70
2.43
1.66
0.50
-0.78
-1.84
-2.41
-2.43
-2.00
-1.29
-0.49
0.34
1.30
2.51
4.13
6.20
8.58
10.97
13.03
14.50
15.40
16.04
16.89
18.34
20.51
23.13
25.68
27.68
28.91
29.57
30.18
31.43
34.02
38.52
45.28
54.24
64.66
74.94
82.89
86.23
83.53
74.85
61.89
47.46
34.36
24.43
17.98
14.08
11.36
8.79
6.13
3.63
1.60
-0.08
-1.98
-4.73
-8.63
-13.40
-18.23
-22.19
-24.67
-25.66
-25.81
-26.14
-27.77
-31.49
-37.62
-45.92
-55.77
-66.40
-77.00
-86.80
-94.97
-100.73
-103.47
-103.12
-100.41
-96.76
-93.88
-93.20
-95.41
-100.39
-107.38
-115.18
-122.31
-127.04
-127.58
-122.44
-110.98
-93.77
-72.39
-48.99
-25.51
-3.23
17.25
35.75
52.23
66.63
78.78
88.38
94.75
96.88
93.72
84.89
71.22
54.89
38.96
26.14
17.93
14.19
13.50
14.08
14.46
13.50
10.28
4.20
-4.21
-12.42
-16.20
-11.53
2.76
23.31
43.10
54.39
52.47
37.77
15.29
-8.03
-26.59
-37.78
-41.76
-39.99
-33.91
-24.82
-14.43
-5.36
-0.61
-2.24
-9.98
-21.19
-31.77
-37.74
-36.83
-29.15
-16.98
-3.82
6.96
13.35
15.08
13.37
10.11
6.91
4.61
3.27
2.55
2.18
2.09
2.35
2.93
3.65
4.16
4.18
3.73
3.10
2.74
2.87
3.37
3.78
3.52
2.28
0.12
-2.48
-4.86
-6.50
-7.18
-7.00
-6.25
-5.20
-3.97
-2.57
-0.99
0.62
2.06
3.11
3.68
3.91
4.06
4.34
4.76
5.15
5.23
4.86
4.12
3.22
2.43
1.83
1.37
0.89
0.32
-0.18
-0.23
0.53
2.29
4.87
7.78
10.41
12.38
13.65
14.48
15.21
15.99
16.60
16.55
15.35
12.83
9.30
5.48
2.15
-0.13
-1.26
-1.56
-1.51
-1.48
-1.52
-1.48
-1.14
-0.44
0.40
1.02
1.12
0.68
0.00
-0.49
-0.47
0.09
0.89
1.54
1.75
1.50
1.02
0.68
0.70
1.15
1.85
2.58
3.15
3.45
3.49
3.35
3.08
2.72
2.32
1.88
1.42
0.96
0.46
-0.15
-0.95
-1.94
-3.09
-4.23
-5.13
-5.60
-5.54
-4.98
-4.02
-2.74
-1.23
0.48
2.29
4.00
5.40
6.30
6.65
6.54
6.19
5.82
5.63
5.73
6.16
6.85
7.65
8.38
8.87
9.03
8.91
8.63
8.34
8.12
7.95
7.80
7.62
7.37
7.00
6.47
5.70
4.68
3.52
2.42
1.63
1.21
1.07
0.90
0.41
-0.60
-2.08
-3.74
-5.22
-6.18
-6.42
-5.95
-4.92
-3.59
-2.18
-0.83
0.46
1.70
2.85
3.82
4.45
4.66
4.51
4.20
4.00
4.14
4.67
5.53
6.49
7.30
7.79
7.85
7.45
6.65
5.57
4.35
3.17
2.16
1.41
0.94
0.70
0.63
0.68
0.80
0.96
1.09
1.11
0.90
0.36
-0.52
-1.66
-2.86
-3.90
-4.65
-5.11
-5.40
-5.66
-5.91
-6.08
-6.03
-5.70
-5.13
-4.45
-3.79
-3.18
-2.56
-1.86
-1.07
-0.28
0.35
0.72
0.85
0.86
0.93
1.17
1.63
2.25
2.92
3.53
3.96
4.09
3.90
3.47
2.96
2.58
2.48
2.63
2.91
3.10
3.07
2.81
2.42
2.00
1.59
1.08
0.29
-0.88
-2.42
-4.16
-5.84
-7.24
-8.29
-9.03
-9.53
-9.81
-9.83
-9.51
-8.83
-7.90
-6.92
-6.10
-5.48
-5.02
-4.54
-3.89
-3.01
-1.94
-0.77
0.44
1.58
2.57
3.25
3.49
3.24
2.59
1.74
0.92
0.26
-0.22
-0.59
-0.92
-1.22
-1.42
-1.44
-1.29
-1.09
-1.02
-1.22
-1.72
-2.43
-3.20
-3.91
-4.51
-5.01
-5.43
-5.77
-5.96
-5.85
-5.33
-4.35
-3.01
-1.46
0.05
1.29
2.13
2.56
2.71
2.76
2.90
3.24
3.74
4.27
4.68
4.87
4.87
4.74
4.55
4.29
3.90
3.35
2.67
2.04
1.67
1.65
1.94
2.31
2.53
2.44
2.04
1.45
0.79
0.10
-0.63
-1.40
-2.15
-2.71
-2.95
-2.76
-2.22
-1.54
-0.93
-0.55
-0.41
-0.36
-0.17
0.35
1.28
2.55
3.96
5.27
6.27
6.82
6.90
6.55
5.91
5.13
4.44
4.06
4.13
4.66
5.46
6.27
6.81
7.01
6.90
6.65
6.35
6.01
5.55
4.90
4.12
3.35
2.75
2.37
2.08
1.69
1.02
0.01
-1.20
-2.40
-3.36
-3.95
-4.14
-4.01
-3.65
-3.16
-2.62
-2.06
-1.55
-1.08
-0.67
-0.26
0.24
0.90
1.76
2.80
3.89
4.87
5.63
6.10
6.30
6.30
6.16
5.90
5.56
5.23
5.02
5.09
5.47
6.05
6.56
6.72
6.32
5.35
4.02
2.64
1.51
0.84
0.64
0.82
1.18
1.52
1.66
1.51
0.99
0.11
-1.09
-2.48
-3.91
-5.13
-5.95
-6.24
-5.97
-5.21
-4.14
-2.90
-1.61
-0.33
0.88
1.96
2.87
3.61
4.22
4.76
5.31
5.89
6.44
6.91
7.20
7.28
7.16
6.93
6.66
6.44
6.28
6.17
6.04
5.83
5.48
5.01
4.47
3.93
3.44
3.03
2.68
2.42
2.26
2.19
2.18
2.14
1.98
1.59
0.95
0.07
-0.97
-2.13
-3.35
-4.58
-5.75
-6.75
-7.50
-7.94
-8.04
-7.82
-7.31
-6.53
-5.56
-4.44
-3.30
-2.17
-1.10
-0.09
0.85
1.65
2.21
2.46
2.40
2.09
1.71
1.35
1.05
0.79
0.53
0.33
0.26
0.41
0.76
1.16
1.37
1.22
0.68
-0.11
-0.90
-1.45
-1.66
-1.57
-1.30
-1.04
-0.91
-0.98
-1.31
-1.92
-2.86
-4.11
-5.63
-7.23
-8.69
-9.80
-10.39
-10.41
-9.93
-9.05
-7.90
-6.58
-5.16
-3.68
-2.22
-0.84
0.37
1.35
2.06
2.51
2.73
2.83
2.90
3.07
3.37
3.80
4.29
4.76
5.20
5.60
5.95
6.20
6.27
6.07
5.57
4.88
4.14
3.46
2.88
2.30
1.66
0.90
0.14
-0.50
-0.90
-1.10
-1.28
-1.67
-2.45
-3.67
-5.19
-6.74
-8.08
-8.97
-9.35
-9.24
-8.74
-7.96
-6.99
-5.91
-4.77
-3.66
-2.65
-1.78
-1.01
-0.29
0.50
1.40
2.35
3.21
3.88
4.35
4.65
4.90
5.19
5.51
5.82
6.08
6.27
6.39
6.41
6.26
5.88
5.23
4.42
3.67
3.16
2.99
3.11
3.32
3.40
3.25
2.85
2.25
1.55
0.79
-0.00
-0.87
-1.81
-2.82
-3.84
-4.83
-5.80
-6.79
-7.83
-8.91
-9.91
-10.63
-10.89
-10.63
-9.91
-8.88
-7.70
-6.42
-5.03
-3.54
-2.01
-0.63
0.48
1.27
1.85
2.38
2.97
3.61
4.21
4.65
4.92
5.08
5.17
5.21
5.18
5.04
4.89
4.83
5.00
5.37
5.86
6.22
6.25
5.90
5.22
4.35
3.44
2.54
1.68
0.87
0.12
-0.45
-0.76
-0.75
-0.51
-0.19
-0.05
-0.28
-1.03
-2.28
-3.88
-5.62
-7.26
-8.57
-9.38
-9.57
-9.09
-7.98
-6.37
-4.48
-2.54
-0.79
0.63
1.66
2.40
2.98
3.57
4.27
5.05
5.78
6.30
6.48
6.28
5.86
5.42
5.22
5.37
5.86
6.56
7.27
7.84
8.19
8.31
8.18
7.77
7.03
6.00
4.78
3.53
2.35
1.25
0.18
-0.92
-2.05
-3.08
-3.88
-4.44
-4.93
-5.63
-6.84
-8.65
-10.87
-13.12
-14.94
-15.98
-16.11
-15.42
-14.14
-12.57
-10.91
-9.26
-7.69
-6.20
-4.87
-3.77
-3.03
-2.69
-2.71
-2.96
-3.22
-3.30
-3.12
-2.68
-2.11
-1.52
-1.04
-0.70
-0.50
-0.39
-0.32
-0.26
-0.23
-0.29
-0.51
-0.96
-1.68
-2.64
-3.74
-4.81
-5.71
-6.32
-6.64
-6.77
-6.92
-7.32
-8.10
-9.28
-10.68
-11.99
-12.91
-13.16
-12.65
-11.42
-9.67
-7.66
-5.59
-3.65
-1.97
-0.61
0.42
1.21
1.83
2.37
2.90
3.38
3.83
4.23
4.64
5.06
5.50
5.89
6.14
6.22
6.16
6.01
5.83
5.59
5.12
4.28
2.99
1.34
-0.43
-2.05
-3.36
-4.35
-5.17
-6.05
-7.15
-8.53
-10.11
-11.69
-13.02
-13.87
-14.08
-13.58
-12.44
-10.79
-8.85
-6.79
-4.73
-2.73
-0.81
1.02
2.72
4.22
5.49
6.52
7.30
7.87
8.25
8.41
8.36
8.12
7.75
7.37
7.06
6.86
6.71
6.48
6.03
5.34
4.47
3.59
2.82
2.22
1.70
1.08
0.21
-1.02
-2.57
-4.40
-6.39
-8.46
-10.45
-12.17
-13.32
-13.67
-13.09
-11.70
-9.82
-7.82
-5.99
-4.43
-3.01
-1.52
0.20
2.21
4.37
6.48
8.30
9.74
10.75
11.44
11.91
12.26
12.54
12.77
12.96
13.09
13.16
13.13
12.97
12.70
12.34
11.97
11.62
11.29
10.90
10.37
9.65
8.71
7.60
6.36
5.01
3.58
2.09
0.63
-0.72
-1.89
-2.93
-3.93
-5.03
-6.27
-7.67
-9.13
-10.52
-11.71
-12.56
-12.91
-12.58
-11.53
-9.79
-7.57
-5.11
-2.65
-0.28
2.00
4.22
6.36
8.30
9.83
10.82
11.27
11.33
11.27
11.30
11.49
11.77
11.98
12.00
11.85
11.64
11.55
11.69
12.05
12.49
12.83
12.91
12.67
12.16
11.45
10.58
9.59
8.50
7.30
6.08
4.89
3.77
2.68
1.52
0.19
-1.36
-3.10
-4.93
-6.77
-8.59
-10.41
-12.34
-14.44
-16.69
-18.94
-20.98
-22.51
-23.24
-22.96
-21.61
-19.33
-16.42
-13.26
-10.18
-7.32
-4.70
-2.23
0.15
2.43
4.50
6.24
7.58
8.59
9.44
10.31
11.28
12.27
13.09
13.54
13.56
13.23
12.78
12.48
12.46
12.72
13.11
13.46
13.62
13.57
13.32
12.92
12.39
11.74
10.92
9.92
8.71
7.34
5.89
4.49
3.30
2.39
1.75
1.23
0.66
-0.09
-1.03
-2.07
-3.16
-4.32
-5.69
-7.45
-9.65
-12.17
-14.66
-16.65
-17.73
-17.66
-16.50
-14.51
-12.06
-9.52
-7.09
-4.85
-2.76
-0.81
1.02
2.74
4.36
5.94
7.53
9.12
10.60
11.79
12.62
13.13
13.49
13.88
14.32
14.67
14.73
14.39
13.74
13.04
12.58
12.48
12.61
12.66
12.33
11.47
10.18
8.73
7.45
6.53
5.99
5.68
5.36
4.86
4.09
3.07
1.94
0.78
-0.31
-1.34
-2.34
-3.35
-4.41
-5.57
-6.88
-8.43
-10.21
-12.14
-14.00
-15.47
-16.28
-16.25
-15.38
-13.79
-11.67
-9.22
-6.62
-4.03
-1.60
0.54
2.30
3.68
4.77
5.64
6.40
7.07
7.69
8.24
8.75
9.22
9.62
9.90
10.00
9.90
9.65
9.39
9.24
9.27
9.43
9.60
9.63
9.43
9.01
8.45
7.82
7.13
6.40
5.58
4.69
3.76
2.87
2.03
1.21
0.34
-0.62
-1.69
-2.82
-3.93
-4.97
-5.92
-6.77
-7.54
-8.20
-8.81
-9.40
-10.02
-10.69
-11.35
-11.81
-11.92
-11.51
-10.50
-8.95
-7.01
-4.88
-2.74
-0.77
0.97
2.47
3.73
4.78
5.60
6.18
6.54
6.76
6.97
7.27
7.70
8.16
8.54
8.74
8.77
8.70
8.63
8.61
8.62
8.57
8.40
8.08
7.66
7.18
6.66
6.08
5.40
4.55
3.50
2.23
0.80
-0.70
-2.10
-3.26
-4.11
-4.69
-5.14
-5.64
-6.29
-7.14
-8.16
-9.31
-10.62
-12.12
-13.79
-15.49
-16.95
-17.85
-17.94
-17.20
-15.75
-13.87
-11.83
-9.82
-7.92
-6.11
-4.39
-2.76
-1.27
0.05
1.18
2.17
3.07
3.92
4.72
5.41
5.92
6.20
6.25
6.15
5.99
5.86
5.81
5.76
5.63
5.32
4.79
4.09
3.33
2.63
2.07
1.69
1.47
1.34
1.24
1.08
0.80
0.35
-0.30
-1.11
-1.99
-2.82
-3.53
-4.15
-4.80
-5.59
-6.60
-7.78
-9.01
-10.15
-11.10
-11.79
-12.19
-12.26
-11.95
-11.21
-10.05
-8.52
-6.70
-4.68
-2.57
-0.48
1.43
2.99
4.07
4.58
4.58
4.25
3.81
3.45
3.30
3.41
3.75
4.24
4.76
5.23
5.60
5.81
5.81
5.59
5.16
4.56
3.91
3.38
3.06
3.02
3.15
3.34
3.43
3.29
2.86
2.15
1.22
0.17
-0.87
-1.74
-2.36
-2.71
-2.91
-3.15
-3.60
-4.40
-5.60
-7.10
-8.75
-10.32
-11.59
-12.36
-12.50
-11.97
-10.88
-9.40
-7.75
-6.11
-4.62
-3.32
-2.22
-1.30
-0.51
0.24
1.03
1.94
3.00
4.14
5.20
5.96
6.26
6.04
5.44
4.68
4.06
3.79
3.89
4.25
4.63
4.80
4.63
4.09
3.30
2.41
1.58
0.95
0.58
0.44
0.46
0.51
0.41
0.05
-0.59
-1.46
-2.37
-3.11
-3.52
-3.56
-3.33
-3.02
-2.91
-3.17
-3.86
-4.88
-6.04
-7.13
-7.99
-8.50
-8.56
-8.14
-7.19
-5.78
-4.08
-2.33
-0.79
0.37
1.11
1.53
1.75
1.93
2.14
2.38
2.64
2.89
3.13
3.41
3.75
4.17
4.65
5.12
5.50
5.75
5.87
5.88
5.84
5.75
5.60
5.34
4.99
4.62
4.32
4.16
4.11
4.09
3.96
3.62
3.04
2.27
1.34
0.32
-0.77
-1.89
-3.00
-4.03
-4.94
-5.70
-6.34
-6.92
-7.50
-8.14
-8.84
-9.53
-10.08
-10.33
-10.19
-9.66
-8.89
-8.05
-7.24
-6.48
-5.66
-4.69
-3.53
-2.24
-0.97
0.16
1.07
1.68
1.93
1.78
1.26
0.47
-0.35
-1.00
-1.35
-1.38
-1.21
-0.91
-0.57
-0.27
-0.06
-0.07
-0.34
-0.86
-1.48
-2.00
-2.27
-2.31
-2.23
-2.21
-2.37
-2.71
-3.15
-3.60
-4.02
-4.43
-4.85
-5.30
-5.74
-6.13
-6.48
-6.83
-7.26
-7.84
-8.57
-9.31
-9.88
-10.03
-9.64
-8.71
-7.43
-6.03
-4.70
-3.46
-2.24
-0.93
0.45
1.80
2.91
3.62
3.90
3.87
3.75
3.73
3.90
4.25
4.71
5.16
5.43
5.44
5.12
4.50
3.72
2.97
2.42
2.14
2.14
2.29
2.43
2.46
2.33
2.05
1.66
1.21
0.69
0.08
-0.65
-1.46
-2.30
-3.05
-3.64
-4.02
-4.26
-4.45
-4.67
-4.98
-5.35
-5.74
-6.04
-6.17
-6.07
-5.75
-5.25
-4.65
-4.04
-3.46
-2.91
-2.31
-1.59
-0.70
0.33
1.41
2.47
3.42
4.20
4.71
4.85
4.57
3.90
3.05
2.28
1.85
1.90
2.37
3.06
3.71
4.13
4.21
3.98
3.53
2.96
2.33
1.74
1.27
1.02
1.03
1.26
1.58
1.78
1.61
0.96
-0.17
-1.56
-2.91
-3.96
-4.57
-4.84
-5.03
-5.40
-6.10
-7.08
-8.15
-9.08
-9.68
-9.88
-9.69
-9.13
-8.22
-6.98
-5.47
-3.83
-2.25
-0.92
0.03
0.56
0.78
0.89
1.09
1.55
2.32
3.31
4.36
5.22
5.77
5.97
5.90
5.65
5.33
4.99
4.62
4.25
3.93
3.69
3.54
3.48
3.42
3.34
3.19
2.97
2.66
2.22
1.54
0.57
-0.66
-2.03
-3.36
-4.45
-5.23
-5.70
-6.01
-6.32
-6.78
-7.46
-8.33
-9.27
-10.09
-10.56
-10.48
-9.74
-8.37
-6.57
-4.64
-2.91
-1.60
-0.69
-0.05
0.56
1.26
2.06
2.81
3.41
3.81
4.09
4.34
4.60
4.82
4.91
4.83
4.62
4.45
4.42
4.65
5.10
5.62
6.07
6.28
6.18
5.75
5.10
4.36
3.71
3.24
2.94
2.72
2.44
2.01
1.44
0.79
0.10
-0.64
-1.51
-2.58
-3.84
-5.17
-6.39
-7.35
-8.00
-8.33
-8.41
-8.29
-8.01
-7.58
-6.99
-6.24
-5.33
-4.24
-2.97
-1.60
-0.25
0.91
1.74
2.15
2.16
1.89
1.50
1.18
1.08
1.28
1.78
2.45
3.12
3.60
3.75
3.52
2.96
2.20
1.44
0.84
0.49
0.36
0.31
0.19
-0.16
-0.78
-1.61
-2.59
-3.66
-4.81
-6.06
-7.39
-8.71
-9.94
-10.97
-11.77
-12.34
-12.65
-12.62
-12.15
-11.22
-9.89
-8.31
-6.70
-5.22
-3.92
-2.75
-1.60
-0.40
0.85
2.11
3.24
4.15
4.79
5.17
5.32
5.25
5.01
4.64
4.27
4.02
4.01
4.22
4.53
4.75
4.75
4.49
4.10
3.72
3.45
3.24
2.95
2.44
1.71
0.87
0.08
-0.57
-1.18
-1.91
-2.94
-4.31
-5.88
-7.39
-8.50
-8.99
-8.75
-7.86
-6.57
-5.17
-3.96
-3.05
-2.36
-1.67
-0.71
0.64
2.32
4.10
5.67
6.78
7.34
7.38
7.09
6.68
6.34
6.17
6.19
6.36
6.63
6.94
7.25
7.51
7.65
7.57
7.25
6.70
6.01
5.28
4.56
3.79
2.85
1.66
0.23
-1.31
-2.75
-3.97
-4.98
-5.92
-6.95
-8.14
-9.36
-10.37
-10.90
-10.83
-10.21
-9.27
-8.24
-7.24
-6.21
-5.03
-3.56
-1.80
0.10
1.95
3.58
4.97
6.13
7.15
8.02
8.67
9.05
9.13
9.02
8.89
8.92
9.20
9.69
10.20
10.52
10.48
10.06
9.37
8.58
7.87
7.32
6.91
6.53
6.09
5.53
4.88
4.23
3.65
3.21
2.92
2.71
2.46
2.10
1.55
0.80
-0.14
-1.29
-2.69
-4.34
-6.11
-7.75
-8.92
-9.32
-8.86
-7.66
-6.01
-4.27
-2.69
-1.33
-0.12
1.07
2.29
3.49
4.54
5.36
5.89
6.21
6.40
6.57
6.78
7.01
7.23
7.43
7.64
7.94
8.35
8.82
9.19
9.27
8.91
8.14
7.09
6.03
5.20
4.73
4.60
4.66
4.69
4.51
4.05
3.25
2.18
0.91
-0.44
-1.76
-2.95
-4.00
-4.95
-5.89
-6.92
-8.06
-9.23
-10.25
-10.91
-11.06
-10.67
-9.83
-8.74
-7.61
-6.61
-5.84
-5.28
-4.83
-4.35
-3.69
-2.78
-1.64
-0.44
0.63
1.36
1.63
1.46
0.94
0.24
-0.49
-1.13
-1.60
-1.86
-1.87
-1.65
-1.28
-0.88
-0.62
-0.65
-1.04
-1.77
-2.72
-3.72
-4.61
-5.26
-5.62
-5.71
-5.63
-5.48
-5.39
-5.50
-5.92
-6.72
-7.82
-9.08
-10.23
-11.03
-11.33
-11.11
-10.50
-9.63
-8.62
-7.49
-6.20
-4.72
-3.04
-1.25
0.54
2.25
3.80
5.11
6.11
6.74
6.97
6.86
6.56
6.27
6.20
6.41
6.90
7.57
8.24
8.81
9.14
9.18
8.90
8.29
7.39
6.30
5.16
4.09
3.22
2.62
2.25
2.04
1.87
1.64
1.28
0.79
0.13
-0.72
-1.79
-3.10
-4.63
-6.23
-7.71
-8.87
-9.58
-9.79
-9.52
-8.82
-7.77
-6.44
-4.88
-3.21
-1.53
0.07
1.55
2.89
4.10
5.21
6.18
7.00
7.64
8.07
8.31
8.37
8.29
8.15
8.03
7.95
7.91
7.85
7.70
7.42
7.01
6.54
6.06
5.59
5.13
4.67
4.23
3.83
3.49
3.17
2.81
2.31
1.62
0.75
-0.22
-1.15
-1.94
-2.50
-2.80
-2.91
-2.91
-2.94
-3.12
-3.50
-4.13
-4.96
-5.89
-6.81
-7.59
-8.09
-8.21
-7.88
-7.10
-5.89
-4.36
-2.63
-0.89
0.67
1.93
2.89
3.63
4.25
4.84
5.37
5.76
5.95
5.93
5.83
5.79
5.91
6.20
6.55
6.83
6.94
6.89
6.76
6.64
6.56
6.46
6.24
5.78
5.03
4.09
3.12
2.31
1.82
1.65
1.68
1.70
1.53
1.10
0.47
-0.24
-0.88
-1.41
-1.87
-2.36
-2.93
-3.54
-4.11
-4.53
-4.81
-4.99
-5.20
-5.45
-5.68
-5.69
-5.32
-4.51
-3.36
-2.11
-1.02
-0.29
0.08
0.21
0.28
0.47
0.83
1.35
1.94
2.51
3.01
3.40
3.69
3.81
3.72
3.40
2.88
2.28
1.76
1.47
1.47
1.69
1.97
2.12
2.01
1.60
1.01
0.41
-0.07
-0.40
-0.68
-1.05
-1.59
-2.27
-2.95
-3.49
-3.82
-3.97
-4.09
-4.30
-4.68
-5.21
-5.82
-6.44
-7.03
-7.60
-8.11
-8.46
-8.49
-8.10
-7.28
-6.16
-4.95
-3.90
-3.13
-2.65
-2.34
-2.08
-1.76
-1.37
-0.96
-0.61
-0.34
-0.15
-0.00
0.10
0.16
0.12
-0.05
-0.32
-0.62
-0.86
-0.97
-0.96
-0.92
-1.02
-1.34
-1.87
-2.50
-3.01
-3.25
-3.16
-2.77
-2.18
-1.52
-0.89
-0.38
-0.07
-0.08
-0.46
-1.23
-2.29
-3.49
-4.64
-5.62
-6.34
-6.75
-6.79
-6.38
-5.47
-4.13
-2.54
-0.99
0.27
1.08
1.49
1.63
1.70
1.79
1.90
1.97
1.97
1.93
1.99
2.24
2.72
3.36
4.00
4.53
4.95
5.30
5.67
6.04
6.29
6.28
5.88
5.09
4.05
2.97
2.08
1.53
1.35
1.44
1.61
1.63
1.33
0.67
-0.25
-1.18
-1.88
-2.22
-2.24
-2.13
-2.17
-2.52
-3.25
-4.22
-5.23
-6.02
-6.43
-6.40
-5.89
-4.98
-3.76
-2.36
-0.92
0.36
1.36
2.00
2.34
2.48
2.57
2.70
2.89
3.08
3.17
3.14
3.04
2.95
3.01
3.25
3.63
4.01
4.26
4.25
3.97
3.48
2.88
2.29
1.75
1.27
0.82
0.36
-0.13
-0.63
-1.08
-1.44
-1.69
-1.84
-1.92
-1.97
-2.02
-2.10
-2.26
-2.56
-3.04
-3.68
-4.32
-4.76
-4.80
-4.37
-3.56
-2.60
-1.70
-0.96
-0.36
0.22
0.86
1.51
2.06
2.40
2.51
2.49
2.50
2.67
3.03
3.52
4.03
4.44
4.71
4.88
4.98
5.07
5.12
5.04
4.73
4.10
3.17
2.07
1.00
0.12
-0.46
-0.80
-1.02
-1.21
-1.39
-1.52
-1.55
-1.49
-1.43
-1.56
-2.00
-2.78
-3.80
-4.85
-5.64
-5.97
-5.73
-4.99
-3.96
-2.85
-1.85
-1.04
-0.38
0.23
0.85
1.51
2.13
2.61
2.86
2.90
2.81
2.73
2.78
2.99
3.34
3.68
3.88
3.88
3.68
3.36
2.97
2.53
1.96
1.20
0.25
-0.79
-1.75
-2.51
-3.02
-3.35
-3.65
-4.06
-4.68
-5.49
-6.44
-7.44
-8.37
-9.14
-9.67
-9.90
-9.78
-9.35
-8.65
-7.80
-6.93
-6.16
-5.62
-5.39
-5.43
-5.63
-5.84
-5.88
-5.65
-5.16
-4.51
-3.83
-3.31
-3.07
-3.17
-3.52
-3.91
-4.10
-3.91
-3.32
-2.51
-1.80
-1.50
-1.75
-2.52
-3.55
-4.51
-5.12
-5.19
-4.78
-4.06
-3.31
-2.82
-2.73
-3.00
-3.47
-3.89
-4.04
-3.86
-3.33
-2.49
-1.37
-0.04
1.39
2.74
3.82
4.51
4.87
5.10
5.47
6.16
7.16
8.27
9.12
9.38
8.86
7.64
6.00
4.36
3.09
2.34
2.01
1.80
1.44
0.81
-0.02
-0.84
-1.50
-2.03
-2.51
-3.08
-3.74
-4.40
-4.90
-5.22
-5.36
-5.46
-5.60
-5.79
-5.90
-5.79
-5.31
-4.44
-3.26
-1.98
-0.86
-0.15
0.05
-0.19
-0.65
-1.10
-1.38
-1.47
-1.40
-1.20
-0.88
-0.45
-0.00
0.31
0.34
0.10
-0.19
-0.19
0.34
1.41
2.77
4.04
4.88
5.09
4.59
3.38
1.46
-1.06
-3.89
-6.49
-8.23
-8.55
-7.23
-4.49
-0.95
2.59
5.41
7.10
7.56
7.00
5.77
4.20
2.56
1.05
-0.16
-0.86
-0.90
-0.25
0.93
2.26
3.30
3.66
3.21
2.11
0.74
-0.47
-1.22
-1.49
-1.52
-1.67
-2.25
-3.33
-4.74
-6.14
-7.24
-7.92
-8.25
-8.42
-8.52
-8.47
-8.09
-7.26
-6.03
-4.67
-3.51
-2.77
-2.42
-2.26
-2.01
-1.52
-0.77
0.09
0.90
1.54
1.99
2.29
2.54
2.84
3.25
3.80
4.42
5.00
5.33
5.30
4.85
4.10
3.22
2.46
1.92
1.57
1.29
0.89
0.28
-0.52
-1.40
-2.20
-2.86
-3.34
-3.63
-3.70
-3.39
-2.58
-1.24
0.49
2.33
3.96
5.17
5.91
6.32
6.57
6.82
7.10
7.40
7.65
7.83
7.93
7.98
8.02
8.09
8.19
8.29
8.32
8.19
7.80
7.17
6.41
5.72
5.31
5.28
5.59
6.03
6.34
6.30
5.82
4.97
3.95
2.95
2.11
1.45
0.86
0.24
-0.47
-1.22
-1.91
-2.45
-2.78
-2.91
-2.85
-2.53
-1.87
-0.79
0.63
2.18
3.58
4.57
5.08
5.23
5.26
5.39
5.69
6.07
6.39
6.51
6.40
6.16
5.89
5.69
5.58
5.52
5.48
5.44
5.41
5.40
5.44
5.48
5.48
5.34
4.95
4.26
3.26
2.03
0.71
-0.51
-1.49
-2.16
-2.52
-2.64
-2.61
-2.55
-2.54
-2.63
-2.84
-3.15
-3.44
-3.61
-3.53
-3.10
-2.28
-1.13
0.25
1.71
3.06
4.15
4.84
5.09
4.95
4.55
4.04
3.54
3.12
2.80
2.56
2.35
2.14
1.92
1.71
1.50
1.33
1.19
1.08
0.96
0.77
0.49
0.09
-0.40
-0.92
-1.45
-1.97
-2.51
-3.08
-3.65
-4.11
-4.33
-4.17
-3.64
-2.83
-1.96
-1.24
-0.73
-0.39
-0.07
0.36
0.93
1.52
1.95
2.11
2.00
1.77
1.66
1.84
2.35
3.10
3.91
4.53
4.82
4.75
4.38
3.86
3.30
2.79
2.33
1.88
1.41
0.91
0.40
-0.11
-0.68
-1.35
-2.19
-3.18
-4.20
-5.03
-5.43
-5.23
-4.41
-3.11
-1.62
-0.24
0.85
1.61
2.17
2.70
3.30
3.97
4.55
4.92
5.00
4.82
4.51
4.16
3.81
3.46
3.07
2.64
2.22
1.85
1.60
1.44
1.33
1.19
1.01
0.77
0.48
0.16
-0.22
-0.68
-1.20
-1.72
-2.14
-2.37
-2.37
-2.18
-1.90
-1.62
-1.39
-1.22
-0.99
-0.63
-0.05
0.75
1.69
2.64
3.41
3.87
3.98
3.73
3.25
2.66
2.04
1.45
0.89
0.34
-0.19
-0.68
-1.07
-1.38
-1.66
-1.98
-2.41
-2.98
-3.63
-4.26
-4.80
-5.22
-5.58
-5.97
-6.50
-7.22
-8.07
-8.89
-9.50
-9.74
-9.54
-8.95
-8.07
-7.04
-5.94
-4.83
-3.75
-2.74
-1.90
-1.29
-0.92
-0.77
-0.77
-0.85
-0.94
-1.06
-1.21
-1.38
-1.54
-1.68
-1.79
-1.90
-2.08
-2.35
-2.73
-3.19
-3.67
-4.14
-4.55
-4.88
-5.12
-5.26
-5.34
-5.36
-5.35
-5.26
-5.04
-4.59
-3.92
-3.09
-2.24
-1.48
-0.83
-0.21
0.47
1.32
2.28
3.27
4.14
4.80
5.19
5.31
5.18
4.83
4.32
3.76
3.23
2.77
2.36
1.93
1.44
0.93
0.49
0.21
0.11
0.08
-0.02
-0.27
-0.64
-1.05
-1.40
-1.69
-2.02
-2.50
-3.18
-3.98
-4.67
-5.02
-4.86
-4.20
-3.15
-1.94
-0.74
0.32
1.17
1.77
2.13
2.26
2.20
2.06
1.91
1.86
1.95
2.18
2.48
2.78
3.01
3.13
3.09
2.90
2.56
2.08
1.52
0.93
0.39
-0.06
-0.43
-0.76
-1.08
-1.41
-1.73
-2.03
-2.32
-2.65
-3.03
-3.44
-3.83
-4.10
-4.18
-4.05
-3.72
-3.20
-2.49
-1.57
-0.51
0.59
1.58
2.30
2.69
2.77
2.62
2.32
1.98
1.61
1.27
0.98
0.76
0.64
0.62
0.68
0.81
0.96
1.11
1.23
1.29
1.31
1.27
1.15
0.93
0.58
0.11
-0.49
-1.14
-1.78
-2.41
-3.00
-3.55
-4.00
-4.27
-4.23
-3.84
-3.13
-2.22
-1.30
-0.48
0.20
0.79
1.39
2.04
2.72
3.31
3.68
3.75
3.55
3.16
2.73
2.39
2.18
2.08
2.02
1.95
1.83
1.70
1.60
1.57
1.59
1.56
1.37
0.96
0.36
-0.29
-0.78
-1.04
-1.08
-1.03
-1.07
-1.30
-1.72
-2.21
-2.65
-2.96
-3.13
-3.18
-3.07
-2.78
-2.24
-1.44
-0.48
0.52
1.41
2.11
2.63
3.03
3.39
3.75
4.10
4.39
4.62
4.77
4.85
4.89
4.88
4.79
4.57
4.19
3.63
2.91
2.11
1.39
0.87
0.63
0.63
0.76
0.87
0.85
0.66
0.34
-0.07
-0.54
-1.07
-1.66
-2.29
-2.89
-3.34
-3.61
-3.69
-3.59
-3.36
-2.99
-2.51
-1.92
-1.25
-0.52
0.27
1.09
1.89
2.57
2.93
2.85
2.31
1.49
0.64
0.05
-0.13
0.09
0.51
0.92
1.16
1.15
0.87
0.32
-0.53
-1.70
-3.13
-4.67
-6.09
-7.18
-7.84
-8.11
-8.17
-8.23
-8.41
-8.72
-9.03
-9.18
-9.07
-8.68
-8.11
-7.44
-6.72
-5.92
-5.04
-4.10
-3.23
-2.58
-2.25
-2.20
-2.30
-2.37
-2.30
-2.09
-1.78
-1.44
-1.13
-0.85
-0.64
-0.54
-0.67
-1.12
-1.89
-2.91
-4.04
-5.12
-6.04
-6.76
-7.29
-7.67
-7.94
-8.14
-8.29
-8.36
-8.34
-8.19
-7.91
-7.51
-7.03
-6.49
-5.88
-5.09
-4.05
-2.73
-1.24
0.19
1.35
2.17
2.81
3.54
4.54
5.78
6.94
7.57
7.38
6.39
4.99
3.71
3.03
3.09
3.73
4.58
5.31
5.69
5.68
5.36
4.78
3.95
2.82
1.40
-0.24
-1.89
-3.33
-4.38
-5.01
-5.29
-5.37
-5.38
-5.31
-5.04
-4.43
-3.36
-1.89
-0.22
1.33
2.47
3.04
3.08
2.85
2.65
2.74
3.18
3.80
4.34
4.58
4.42
3.97
3.40
2.91
2.62
2.60
2.87
3.38
4.03
4.66
5.06
5.07
4.65
3.89
2.95
2.05
1.33
0.82
0.50
0.30
0.10
-0.19
-0.68
-1.41
-2.32
-3.25
-3.99
-4.37
-4.27
-3.69
-2.68
-1.35
0.18
1.74
3.18
4.34
5.14
5.61
5.85
6.03
6.26
6.61
7.03
7.44
7.75
7.86
7.72
7.32
6.74
6.11
5.59
5.28
5.21
5.30
5.40
5.37
5.13
4.67
4.06
3.37
2.64
1.88
1.04
0.06
-1.11
-2.49
-3.97
-5.39
-6.47
-6.99
-6.82
-5.96
-4.58
-2.89
-1.14
0.47
1.81
2.79
3.37
3.56
3.46
3.24
3.04
3.00
3.14
3.35
3.51
3.50
3.35
3.16
3.10
3.23
3.47
3.62
3.45
2.83
1.75
0.34
-1.26
-2.88
-4.43
-5.87
-7.13
-8.16
-8.95
-9.56
-10.12
-10.76
-11.50
-12.27
-12.87
-13.10
-12.84
-12.14
-11.17
-10.12
-9.11
-8.09
-6.93
-5.49
-3.71
-1.69
0.35
2.11
3.40
4.15
4.51
4.72
5.04
5.62
6.41
7.23
7.84
8.10
7.95
7.47
6.76
5.91
4.94
3.89
2.80
1.73
0.77
-0.02
-0.63
-1.08
-1.44
-1.80
-2.24
-2.80
-3.49
-4.21
-4.82
-5.18
-5.16
-4.73
-3.97
-3.00
-2.01
-1.10
-0.31
0.42
1.23
2.23
3.47
4.91
6.38
7.67
8.58
9.01
8.95
8.47
7.69
6.77
5.82
4.99
4.40
4.14
4.17
4.37
4.52
4.41
3.88
2.96
1.83
0.71
-0.16
-0.72
-1.01
-1.23
-1.56
-2.14
-3.00
-4.03
-5.07
-5.95
-6.54
-6.78
-6.68
-6.25
-5.45
-4.26
-2.68
-0.81
1.15
2.90
4.22
5.04
5.43
5.62
5.81
6.13
6.60
7.09
7.49
7.73
7.84
7.87
7.85
7.73
7.45
6.94
6.25
5.45
4.71
4.16
3.86
3.73
3.63
3.43
3.06
2.55
2.00
1.50
1.03
0.56
-0.00
-0.73
-1.59
-2.48
-3.27
-3.86
-4.17
-4.24
-4.05
-3.62
-2.97
-2.13
-1.18
-0.23
0.62
1.34
1.99
2.61
3.20
3.71
4.05
4.20
4.18
4.12
4.12
4.24
4.44
4.66
4.82
4.92
4.93
4.82
4.53
3.99
3.20
2.22
1.19
0.25
-0.51
-1.15
-1.76
-2.46
-3.37
-4.56
-6.00
-7.60
-9.19
-10.54
-11.41
-11.68
-11.28
-10.29
-8.84
-7.07
-5.16
-3.32
-1.72
-0.54
0.17
0.49
0.58
0.61
0.69
0.81
0.93
1.00
1.04
1.12
1.29
1.53
1.78
2.00
2.19
2.42
2.76
3.21
3.65
3.85
3.61
2.79
1.42
-0.26
-1.95
-3.34
-4.31
-4.90
-5.34
-5.90
-6.79
-8.01
-9.44
-10.81
-11.88
-12.48
-12.58
-12.19
-11.37
-10.14
-8.52
-6.58
-4.45
-2.30
-0.38
1.15
2.21
2.83
3.15
3.33
3.53
3.85
4.30
4.85
5.47
6.10
6.73
7.31
7.79
8.09
8.14
7.87
7.26
6.36
5.28
4.20
3.26
2.56
2.05
1.62
1.09
0.37
-0.50
-1.36
-2.07
-2.60
-3.09
-3.77
-4.79
-6.12
-7.48
-8.51
-8.89
-8.55
-7.64
-6.41
-5.09
-3.76
-2.34
-0.76
0.99
2.75
4.23
5.14
5.34
4.89
4.11
3.38
3.05
3.27
3.96
4.89
5.78
6.43
6.74
6.69
6.34
5.75
4.99
4.19
3.48
2.95
2.66
2.56
2.55
2.49
2.26
1.76
0.99
0.04
-0.96
-1.83
-2.46
-2.81
-3.01
-3.21
-3.58
-4.15
-4.82
-5.37
-5.51
-5.03
-3.89
-2.26
-0.40
1.37
2.83
3.92
4.71
5.32
5.83
6.24
6.52
6.68
6.80
6.99
7.34
7.82
8.30
8.62
8.66
8.43
8.01
7.50
6.95
6.41
5.84
5.24
4.62
4.04
3.55
3.24
3.14
3.20
3.29
3.22
2.81
1.98
0.80
-0.53
-1.81
-2.95
-3.98
-5.01
-6.09
-7.15
-8.02
-8.50
-8.52
-8.14
-7.49
-6.72
-5.88
-4.98
-3.99
-2.95
-1.94
-1.08
-0.45
-0.05
0.22
0.50
0.87
1.33
1.82
2.23
2.50
2.60
2.54
2.34
2.00
1.54
0.99
0.41
-0.07
-0.36
-0.42
-0.33
-0.19
-0.14
-0.23
-0.50
-0.91
-1.43
-2.05
-2.74
-3.52
-4.34
-5.19
-6.09
-7.04
-8.05
-9.09
-10.03
-10.74
-11.06
-10.94
-10.37
-9.40
-8.11
-6.64
-5.11
-3.72
-2.65
-1.99
-1.72
-1.67
-1.63
-1.39
-0.90
-0.21
0.50
1.12
1.59
1.93
2.13
2.21
2.18
2.05
1.92
1.93
2.11
2.42
2.68
2.70
2.39
1.80
1.10
0.49
0.09
-0.13
-0.27
-0.48
-0.85
-1.37
-2.03
-2.83
-3.77
-4.88
-6.07
-7.16
-7.86
-7.90
-7.20
-5.89
-4.28
-2.74
-1.56
-0.80
-0.38
-0.08
0.23
0.64
1.17
1.76
2.39
3.04
3.66
4.22
4.73
5.20
5.66
6.09
6.43
6.54
6.35
5.91
5.37
4.95
4.78
4.82
4.87
4.74
4.30
3.60
2.78
1.98
1.25
0.53
-0.28
-1.27
-2.46
-3.79
-5.17
-6.45
-7.48
-8.10
-8.26
-7.99
-7.40
-6.66
-5.86
-5.06
-4.20
-3.23
-2.17
-1.11
-0.18
0.52
0.97
1.25
1.51
1.87
2.35
2.92
3.50
4.03
4.50
4.92
5.32
5.66
5.83
5.74
5.36
4.81
4.27
3.94
3.90
4.07
4.29
4.36
4.20
3.82
3.35
2.88
2.47
2.08
1.65
1.16
0.60
0.05
-0.45
-0.87
-1.25
-1.60
-1.92
-2.18
-2.31
-2.26
-2.07
-1.77
-1.41
-0.98
-0.42
0.32
1.27
2.36
3.46
4.37
4.95
5.11
4.92
4.52
4.16
4.01
4.16
4.59
5.12
5.57
5.81
5.82
5.61
5.24
4.77
4.22
3.59
2.92
2.25
1.61
1.05
0.51
-0.01
-0.55
-1.11
-1.71
-2.37
-3.12
-3.99
-4.95
-5.91
-6.75
-7.32
-7.52
-7.36
-6.87
-6.17
-5.40
-4.68
-4.06
-3.57
-3.14
-2.68
-2.13
-1.48
-0.80
-0.19
0.23
0.42
0.39
0.22
0.02
-0.14
-0.19
-0.16
-0.08
-0.02
-0.04
-0.21
-0.57
-1.11
-1.79
-2.56
-3.33
-4.01
-4.58
-4.99
-5.28
-5.48
-5.68
-5.90
-6.14
-6.41
-6.66
-6.92
-7.17
-7.44
-7.67
-7.81
-7.75
-7.39
-6.73
-5.77
-4.62
-3.42
-2.30
-1.31
-0.45
0.31
1.00
1.61
2.11
2.48
2.77
3.04
3.39
3.84
4.37
4.85
5.11
5.07
4.70
4.08
3.36
2.69
2.16
1.83
1.68
1.70
1.86
2.14
2.49
2.84
3.02
2.90
2.36
1.40
0.07
-1.49
-3.12
-4.68
-5.99
-6.89
-7.29
-7.17
-6.67
-5.96
-5.20
-4.47
-3.73
-2.89
-1.87
-0.68
0.57
1.74
2.68
3.34
3.68
3.77
3.70
3.56
3.45
3.37
3.29
3.14
2.88
2.53
2.15
1.84
1.61
1.42
1.20
0.86
0.39
-0.15
-0.71
-1.19
-1.58
-1.86
-1.99
-1.94
-1.74
-1.43
-1.13
-0.98
-1.07
-1.41
-1.97
-2.65
-3.33
-3.88
-4.18
-4.16
-3.80
-3.16
-2.37
-1.57
-0.82
-0.09
0.68
1.56
2.48
3.28
3.76
3.82
3.55
3.18
3.03
3.29
3.94
4.71
5.30
5.47
5.17
4.57
3.89
3.28
2.79
2.35
1.92
1.52
1.21
1.05
1.01
0.97
0.83
0.50
0.06
-0.42
-0.87
-1.31
-1.81
-2.40
-3.04
-3.60
-3.90
-3.84
-3.41
-2.71
-1.86
-0.99
-0.15
0.68
1.51
2.35
3.15
3.83
4.31
4.55
4.57
4.46
4.35
4.36
4.52
4.84
5.21
5.58
5.88
6.09
6.22
6.26
6.22
6.04
5.67
5.05
4.11
2.91
1.56
0.22
-0.92
-1.75
-2.25
-2.52
-2.73
-3.02
-3.46
-4.05
-4.70
-5.32
-5.80
-6.06
-6.05
-5.74
-5.20
-4.53
-3.87
-3.30
-2.82
-2.38
-1.86
-1.21
-0.45
0.33
1.04
1.60
2.01
2.30
2.51
2.65
2.69
2.60
2.35
1.96
1.50
1.04
0.69
0.45
0.29
0.09
-0.29
-0.96
-1.87
-2.90
-3.86
-4.61
-5.11
-5.47
-5.82
-6.27
-6.84
-7.45
-7.99
-8.39
-8.57
-8.50
-8.19
-7.60
-6.73
-5.64
-4.41
-3.21
-2.21
-1.52
-1.21
-1.21
-1.41
-1.70
-2.00
-2.26
-2.44
-2.49
-2.44
-2.29
-2.13
-2.05
-2.15
-2.41
-2.76
-3.04
-3.09
-2.84
-2.34
-1.77
-1.32
-1.11
-1.19
-1.49
-1.94
-2.52
-3.22
-4.03
-4.86
-5.54
-5.88
-5.75
-5.21
-4.43
-3.62
-2.91
-2.31
-1.70
-1.00
-0.20
0.59
1.23
1.65
1.89
2.07
2.34
2.74
3.19
3.56
3.72
3.66
3.46
3.29
3.27
3.39
3.54
3.60
3.47
3.18
2.82
2.50
2.24
2.00
1.71
1.31
0.80
0.21
-0.46
-1.22
-2.10
-3.08
-4.06
-4.88
-5.36
-5.38
-4.97
-4.31
-3.54
-2.79
-2.05
-1.22
-0.22
0.91
2.05
3.04
3.76
4.21
4.47
4.67
4.89
5.15
5.44
5.74
6.03
6.31
6.54
6.67
6.61
6.31
5.79
5.07
4.28
3.50
2.82
2.28
1.86
1.52
1.25
1.06
0.96
0.93
0.95
0.93
0.79
0.49
0.02
-0.57
-1.25
-2.03
-2.89
-3.84
-4.76
-5.54
-6.00
-6.01
-5.51
-4.54
-3.22
-1.71
-0.19
1.20
2.34
3.20
3.79
4.15
4.34
4.41
4.42
4.48
4.65
5.00
5.47
5.95
6.29
6.38
6.20
5.81
5.34
4.91
4.59
4.41
4.39
4.50
4.72
5.01
5.29
5.47
5.46
5.20
4.69
3.96
3.16
2.44
1.95
1.73
1.74
1.79
1.67
1.23
0.44
-0.63
-1.81
-2.92
-3.74
-4.16
-4.11
-3.66
-2.96
-2.25
-1.69
-1.37
-1.21
-1.02
-0.63
0.04
0.89
1.74
2.40
2.76
2.87
2.84
2.82
2.88
2.96
2.94
2.75
2.39
1.95
1.55
1.24
1.01
0.78
0.49
0.14
-0.21
-0.52
-0.75
-0.94
-1.11
-1.32
-1.59
-1.94
-2.36
-2.83
-3.32
-3.76
-4.12
-4.39
-4.60
-4.83
-5.16
-5.59
-6.11
-6.64
-7.10
-7.38
-7.42
-7.14
-6.53
-5.66
-4.65
-3.69
-2.89
-2.34
-1.98
-1.65
-1.19
-0.50
0.37
1.25
1.93
2.22
2.11
1.71
1.27
1.00
1.05
1.43
2.04
2.74
3.41
3.96
4.36
4.56
4.52
4.20
3.60
2.76
1.83
0.96
0.31
-0.07
-0.21
-0.27
-0.42
-0.75
-1.32
-2.08
-2.97
-3.91
-4.85
-5.75
-6.54
-7.10
-7.32
-7.11
-6.46
-5.44
-4.21
-2.91
-1.67
-0.51
0.57
1.60
2.60
3.48
4.17
4.61
4.80
4.83
4.78
4.74
4.76
4.85
5.05
5.35
5.71
6.03
6.19
6.08
5.64
4.94
4.08
3.20
2.41
1.75
1.27
0.97
0.86
0.91
1.05
1.17
1.15
0.92
0.40
-0.40
-1.48
-2.77
-4.14
-5.39
-6.34
-6.85
-6.93
-6.66
-6.18
-5.60
-4.96
-4.24
-3.37
-2.32
-1.10
0.23
1.56
2.77
3.73
4.37
4.65
4.65
4.47
4.27
4.15
4.18
4.38
4.67
4.99
5.22
5.28
5.14
4.79
4.30
3.74
3.20
2.71
2.24
1.75
1.22
0.69
0.25
-0.01
-0.03
0.15
0.41
0.57
0.49
0.12
-0.51
-1.33
-2.26
-3.25
-4.26
-5.25
-6.14
-6.79
-7.12
-7.11
-6.81
-6.28
-5.57
-4.69
-3.65
-2.51
-1.36
-0.35
0.47
1.13
1.71
2.34
3.02
3.67
4.20
4.58
4.92
5.33
5.88
6.49
6.98
7.14
6.91
6.39
5.84
5.48
5.48
5.81
6.30
6.73
6.90
6.71
6.19
5.44
4.62
3.84
3.15
2.56
2.05
1.60
1.17
0.78
0.36
-0.18
-0.93
-1.88
-2.93
-3.92
-4.69
-5.16
-5.34
-5.32
-5.14
-4.80
-4.22
-3.35
-2.18
-0.84
0.47
1.53
2.24
2.60
2.74
2.79
2.78
2.64
2.27
1.63
0.78
-0.07
-0.73
-1.04
-1.01
-0.72
-0.32
0.10
0.47
0.73
0.82
0.62
0.09
-0.76
-1.76
-2.74
-3.50
-4.03
-4.40
-4.77
-5.27
-5.94
-6.69
-7.40
-7.95
-8.27
-8.39
-8.33
-8.13
-7.76
-7.20
-6.45
-5.56
-4.62
-3.75
-3.01
-2.43
-2.00
-1.68
-1.45
-1.32
-1.31
-1.44
-1.71
-2.07
-2.43
-2.72
-2.87
-2.87
-2.80
-2.73
-2.79
-3.04
-3.47
-4.00
-4.48
-4.78
-4.84
-4.70
-4.48
-4.36
-4.47
-4.86
-5.42
-5.95
-6.22
-6.05
-5.43
-4.45
-3.32
-2.24
-1.35
-0.70
-0.26
0.01
0.17
0.27
0.39
0.63
1.06
1.71
2.49
3.29
3.99
4.50
4.80
4.91
4.81
4.45
3.80
2.87
1.76
0.67
-0.21
-0.76
-1.02
-1.14
-1.27
-1.53
-1.92
-2.39
-2.85
-3.24
-3.53
-3.73
-3.83
-3.80
-3.61
-3.28
-2.82
-2.25
-1.55
-0.68
0.39
1.56
2.71
3.64
4.20
4.36
4.19
3.88
3.58
3.35
3.16
2.94
2.67
2.39
2.26
2.40
2.84
3.45
4.03
4.35
4.29
3.89
3.26
2.59
1.97
1.40
0.82
0.15
-0.63
-1.48
-2.31
-3.04
-3.60
-4.02
-4.34
-4.61
-4.85
-5.02
-5.05
-4.86
-4.38
-3.61
-2.61
-1.46
-0.27
0.83
1.77
2.50
3.02
3.37
3.62
3.83
4.07
4.35
4.64
4.89
5.02
5.00
4.84
4.64
4.51
4.56
4.82
5.18
5.47
5.49
5.13
4.38
3.34
2.14
0.88
-0.36
-1.56
-2.68
-3.65
-4.41
-4.91
-5.23
-5.47
-5.78
-6.21
-6.72
-7.14
-7.29
-7.05
-6.39
-5.40
-4.18
-2.82
-1.39
0.04
1.42
2.64
3.63
4.37
4.85
5.19
5.43
5.64
5.81
5.91
5.94
5.91
5.87
5.87
5.88
5.84
5.64
5.21
4.57
3.82
3.15
2.70
2.53
2.62
2.82
2.98
2.97
2.73
2.26
1.61
0.92
0.30
-0.14
-0.44
-0.74
-1.24
-2.08
-3.28
-4.68
-6.02
-7.03
-7.53
-7.48
-6.99
-6.21
-5.28
-4.27
-3.26
-2.27
-1.30
-0.38
0.48
1.27
1.93
2.38
2.59
2.55
2.30
1.94
1.58
1.31
1.23
1.34
1.60
1.93
2.24
2.46
2.53
2.46
2.27
2.05
1.87
1.81
1.88
2.00
2.08
2.00
1.70
1.24
0.68
0.13
-0.40
-0.98
-1.77
-2.85
-4.17
-5.55
-6.76
-7.60
-7.99
-7.95
-7.56
-6.87
-5.88
-4.58
-3.02
-1.37
0.11
1.20
1.78
1.92
1.87
1.92
2.25
2.85
3.54
4.07
4.30
4.25
4.07
3.97
4.07
4.33
4.63
4.86
4.97
4.99
4.99
5.02
5.00
4.81
4.34
3.58
2.65
1.73
1.01
0.58
0.38
0.28
0.11
-0.24
-0.78
-1.48
-2.27
-3.13
-4.00
-4.87
-5.69
-6.36
-6.81
-6.96
-6.80
-6.38
-5.77
-5.04
-4.24
-3.38
-2.49
-1.58
-0.67
0.18
0.98
1.73
2.43
3.06
3.55
3.80
3.77
3.47
3.03
2.60
2.32
2.26
2.41
2.65
2.83
2.82
2.54
2.02
1.34
0.61
-0.17
-1.10
-2.40
-4.24
-6.62
-9.35
-12.01
-14.18
-15.49
-15.73
-14.77
-12.63
-9.37
-5.27
-0.70
3.83
7.85
11.14
13.81
16.26
18.92
21.91
24.79
26.49
25.73
21.60
14.16
4.59
-5.14
-12.99
-17.70
-19.16
-18.28
-16.35
-14.37
-12.63
-10.76
-8.20
-4.55
0.21
5.88
12.17
18.85
25.63
31.96
36.88
39.22
37.92
32.66
24.08
13.80
3.92
-3.77
-8.28
-9.68
-8.88
-7.02
-5.06
-3.48
-2.40
-1.78
-1.62
-2.01
-2.96
-4.29
-5.69
-6.78
-7.37
-7.50
-7.44
-7.46
-7.70
-8.15
-8.58
-8.75
-8.43
-7.55
-6.20
-4.58
-3.00
-1.69
-0.88
-0.61
-0.76
-1.11
-1.43
-1.59
-1.59
-1.52
-1.50
-1.60
-1.82
-2.11
-2.45
-2.80
-3.16
-3.48
-3.71
-3.82
-3.80
-3.72
-3.68
-3.78
-4.06
-4.49
-5.00
-5.56
-6.15
-6.83
-7.62
-8.53
-9.51
-10.46
-11.30
-11.96
-12.40
-12.58
-12.52
-12.21
-11.65
-10.85
-9.83
-8.60
-7.21
-5.72
-4.23
-2.83
-1.61
-0.53
0.51
1.61
2.87
4.21
5.46
6.40
6.89
6.96
6.81
6.67
6.69
6.89
7.16
7.34
7.30
7.05
6.69
6.36
6.17
6.11
6.11
6.01
5.71
5.18
4.49
3.77
3.10
2.43
1.66
0.67
-0.59
-2.01
-3.40
-4.54
-5.26
-5.50
-5.31
-4.77
-4.02
-3.18
-2.37
-1.67
-1.12
-0.70
-0.30
0.17
0.81
1.63
2.55
3.47
4.25
4.80
5.12
5.25
5.26
5.24
5.24
5.31
5.44
5.63
5.84
6.00
6.01
5.83
5.43
4.89
4.32
3.87
3.62
3.57
3.61
3.58
3.33
2.81
2.05
1.16
0.28
-0.48
-1.08
-1.58
-2.10
-2.67
-3.32
-3.92
-4.35
-4.49
-4.37
-4.10
-3.84
-3.66
-3.53
-3.32
-2.88
-2.13
-1.15
-0.06
0.99
1.96
2.83
3.66
4.42
5.04
5.37
5.29
4.76
3.85
2.76
1.72
0.94
0.52
0.49
0.76
1.25
1.83
2.38
2.79
2.96
2.84
2.44
1.83
1.11
0.36
-0.40
-1.16
-1.96
-2.80
-3.68
-4.58
-5.47
-6.30
-6.96
-7.30
-7.19
-6.58
-5.56
-4.32
-3.07
-1.95
-1.05
-0.36
0.17
0.60
1.00
1.44
1.96
2.56
3.19
3.72
4.05
4.09
3.81
3.29
2.62
1.96
1.47
1.24
1.33
1.66
2.06
2.31
2.22
1.81
1.14
0.42
-0.22
-0.75
-1.25
-1.84
-2.57
-3.41
-4.19
-4.75
-4.97
-4.84
-4.43
-3.84
-3.13
-2.37
-1.57
-0.74
0.07
0.85
1.53
2.10
2.52
2.84
3.07
3.24
3.35
3.35
3.22
2.96
2.65
2.41
2.34
2.45
2.67
2.85
2.86
2.64
2.25
1.77
1.31
0.93
0.63
0.42
0.31
0.31
0.41
0.55
0.61
0.44
-0.05
-0.88
-1.91
-2.96
-3.83
-4.35
-4.46
-4.14
-3.48
-2.53
-1.42
-0.26
0.83
1.75
2.46
2.98
3.36
3.70
4.02
4.30
4.50
4.62
4.66
4.67
4.70
4.75
4.81
4.91
5.06
5.29
5.58
5.83
5.89
5.61
4.92
3.88
2.70
1.59
0.78
0.34
0.21
0.22
0.16
-0.14
-0.72
-1.54
-2.48
-3.40
-4.21
-4.91
-5.53
-6.09
-6.57
-6.88
-6.94
-6.64
-6.00
-5.08
-4.01
-2.97
-2.05
-1.32
-0.73
-0.22
0.29
0.81
1.32
1.81
2.28
2.74
3.18
3.57
3.81
3.84
3.62
3.16
2.55
1.86
1.18
0.57
0.09
-0.23
-0.37
-0.36
-0.32
-0.35
-0.54
-0.91
-1.44
-2.05
-2.68
-3.31
-3.97
-4.68
-5.43
-6.22
-6.96
-7.54
-7.84
-7.75
-7.20
-6.21
-4.91
-3.50
-2.20
-1.20
-0.58
-0.30
-0.24
-0.24
-0.20
-0.09
0.04
0.15
0.18
0.14
0.06
-0.02
-0.03
0.05
0.20
0.38
0.51
0.52
0.38
0.08
-0.33
-0.84
-1.43
-2.13
-2.91
-3.73
-4.48
-5.02
-5.27
-5.26
-5.16
-5.19
-5.52
-6.19
-7.02
-7.74
-8.08
-7.90
-7.28
-6.38
-5.40
-4.45
-3.50
-2.50
-1.47
-0.50
0.24
0.65
0.73
0.56
0.30
0.07
-0.04
-0.04
0.09
0.34
0.72
1.23
1.82
2.37
2.72
2.71
2.26
1.43
0.42
-0.48
-1.05
-1.18
-0.93
-0.45
0.06
0.46
0.58
0.30
-0.49
-1.78
-3.39
-4.94
-6.02
-6.30
-5.74
-4.59
-3.25
-2.06
-1.17
-0.50
0.13
0.88
1.76
2.72
3.58
4.25
4.70
4.98
5.16
5.29
5.36
5.34
5.21
5.03
4.92
4.99
5.27
5.68
6.00
6.01
5.59
4.81
3.85
2.99
2.40
2.10
2.01
1.99
1.95
1.85
1.72
1.57
1.34
0.95
0.26
-0.82
-2.23
-3.81
-5.25
-6.24
-6.58
-6.24
-5.38
-4.20
-2.95
-1.75
-0.66
0.32
1.17
1.88
2.42
2.83
3.11
3.30
3.37
3.33
3.20
3.04
2.93
2.92
3.01
3.13
3.21
3.20
3.08
2.90
2.72
2.55
2.39
2.21
1.96
1.63
1.20
0.73
0.26
-0.14
-0.47
-0.71
-0.88
-1.01
-1.14
-1.35
-1.73
-2.39
-3.32
-4.41
-5.41
-6.07
-6.19
-5.74
-4.85
-3.70
-2.47
-1.27
-0.13
0.91
1.81
2.52
3.03
3.37
3.66
3.93
4.15
4.27
4.21
3.99
3.72
3.54
3.56
3.81
4.18
4.54
4.76
4.81
4.72
4.58
4.44
4.30
4.10
3.75
3.23
2.58
1.94
1.49
1.25
1.18
1.11
0.85
0.33
-0.43
-1.34
-2.29
-3.19
-4.01
-4.67
-5.06
-5.07
-4.61
-3.77
-2.74
-1.75
-1.00
-0.55
-0.41
-0.44
-0.52
-0.54
-0.40
-0.03
0.58
1.39
2.26
3.06
3.68
4.02
4.11
3.98
3.74
3.46
3.22
3.03
2.87
2.66
2.32
1.80
1.13
0.38
-0.35
-0.97
-1.51
-2.03
-2.55
-3.12
-3.71
-4.29
-4.93
-5.69
-6.60
-7.58
-8.46
-9.02
-9.07
-8.57
-7.60
-6.36
-5.10
-3.99
-3.08
-2.34
-1.70
-1.12
-0.63
-0.33
-0.33
-0.66
-1.25
-1.91
-2.41
-2.63
-2.56
-2.29
-1.93
-1.56
-1.19
-0.78
-0.39
-0.11
-0.09
-0.38
-0.95
-1.66
-2.33
-2.83
-3.19
-3.48
-3.83
-4.30
-4.90
-5.59
-6.29
-6.97
-7.59
-8.05
-8.25
-8.02
-7.28
-6.09
-4.65
-3.23
-2.06
-1.22
-0.61
-0.07
0.56
1.29
1.98
2.48
2.69
2.63
2.43
2.24
2.13
2.11
2.07
1.97
1.78
1.52
1.22
0.91
0.60
0.25
-0.15
-0.59
-1.08
-1.67
-2.38
-3.27
-4.29
-5.38
-6.38
-7.11
-7.42
-7.25
-6.62
-5.64
-4.44
-3.19
-2.00
-0.97
-0.11
0.61
1.24
1.78
2.23
2.57
2.78
2.92
3.11
3.46
4.04
4.77
5.46
5.88
5.90
5.49
4.82
4.13
3.59
3.27
3.08
2.84
2.38
1.63
0.67
-0.32
-1.14
-1.69
-1.96
-2.15
-2.48
-3.12
-4.13
-5.32
-6.40
-7.04
-7.00
-6.25
-4.93
-3.28
-1.56
0.04
1.42
2.56
3.45
4.13
4.61
4.91
5.09
5.22
5.35
5.53
5.77
6.03
6.28
6.46
6.56
6.57
6.53
6.47
6.42
6.39
6.39
6.39
6.35
6.21
5.91
5.41
4.70
3.85
3.01
2.32
1.89
1.69
1.49
0.99
-0.06
-1.75
-3.89
-6.11
-7.95
-9.09
-9.38
-8.89
-7.81
-6.34
-4.65
-2.83
-0.96
0.82
2.37
3.59
4.45
5.05
5.55
6.07
6.63
7.16
7.54
7.73
7.74
7.67
7.60
7.58
7.59
7.60
7.57
7.49
7.31
7.04
6.67
6.28
5.97
5.86
5.99
6.28
6.55
6.57
6.22
5.48
4.45
3.26
1.99
0.66
-0.74
-2.25
-3.85
-5.51
-7.18
-8.76
-10.10
-11.05
-11.47
-11.30
-10.63
-9.63
-8.48
-7.34
-6.29
-5.36
-4.55
-3.90
-3.41
-3.07
-2.77
-2.37
-1.75
-0.88
0.15
1.18
2.01
2.53
2.73
2.69
2.57
2.45
2.39
2.33
2.19
1.89
1.42
0.84
0.25
-0.28
-0.75
-1.20
-1.67
-2.20
-2.73
-3.25
-3.76
-4.35
-5.16
-6.28
-7.69
-9.21
-10.52
-11.34
-11.47
-10.90
-9.78
-8.36
-6.86
-5.42
-4.09
-2.89
-1.81
-0.86
-0.00
0.81
1.67
2.62
3.64
4.65
5.58
6.39
7.12
7.82
8.48
9.02
9.31
9.24
8.84
8.24
7.66
7.24
7.00
6.83
6.52
5.93
5.04
3.96
2.88
1.96
1.24
0.63
-0.04
-0.89
-1.96
-3.18
-4.41
-5.56
-6.65
-7.69
-8.67
-9.50
-9.96
-9.85
-9.12
-7.87
-6.31
-4.70
-3.21
-1.91
-0.81
0.10
0.84
1.48
2.11
2.88
3.83
4.88
5.86
6.56
6.89
6.93
6.84
6.83
7.00
7.31
7.68
7.99
8.14
8.14
7.96
7.64
7.19
6.68
6.16
5.69
5.32
4.99
4.62
4.08
3.30
2.28
1.13
0.01
-0.92
-1.61
-2.16
-2.74
-3.49
-4.42
-5.42
-6.24
-6.69
-6.68
-6.28
-5.61
-4.80
-3.89
-2.90
-1.80
-0.59
0.70
1.97
3.14
4.14
4.97
5.64
6.20
6.69
7.11
7.43
7.58
7.53
7.33
7.10
7.01
7.18
7.64
8.28
8.90
9.32
9.42
9.22
8.78
8.19
7.49
6.73
5.92
5.12
4.37
3.70
3.05
2.34
1.48
0.41
-0.78
-2.01
-3.12
-4.04
-4.79
-5.48
-6.27
-7.26
-8.45
-9.70
-10.76
-11.36
-11.33
-10.58
-9.21
-7.40
-5.39
-3.42
-1.70
-0.36
0.58
1.17
1.54
1.80
2.03
2.25
2.45
2.62
2.77
2.90
2.97
2.92
2.71
2.39
2.02
1.73
1.58
1.55
1.53
1.43
1.23
0.99
0.80
0.69
0.57
0.34
-0.12
-0.79
-1.60
-2.40
-3.12
-3.77
-4.44
-5.20
-6.10
-7.07
-8.02
-8.84
-9.43
-9.77
-9.80
-9.51
-8.87
-7.89
-6.65
-5.25
-3.85
-2.57
-1.47
-0.50
0.41
1.33
2.28
3.18
3.98
4.65
5.22
5.77
6.34
6.91
7.39
7.65
7.62
7.31
6.83
6.28
5.74
5.23
4.75
4.31
3.95
3.69
3.50
3.31
2.98
2.39
1.54
0.56
-0.42
-1.21
-1.78
-2.25
-2.82
-3.66
-4.82
-6.20
-7.58
-8.77
-9.60
-10.01
-10.00
-9.55
-8.67
-7.39
-5.85
-4.22
-2.68
-1.35
-0.19
0.89
1.99
3.10
4.09
4.83
5.29
5.52
5.73
6.06
6.52
6.98
7.22
7.08
6.53
5.74
4.93
4.29
3.87
3.59
3.34
3.04
2.67
2.28
1.92
1.58
1.22
0.79
0.22
-0.45
-1.18
-1.91
-2.58
-3.23
-3.89
-4.64
-5.50
-6.41
-7.24
-7.82
-8.00
-7.70
-6.95
-5.84
-4.53
-3.15
-1.83
-0.61
0.47
1.39
2.15
2.74
3.15
3.39
3.52
3.61
3.73
3.92
4.14
4.30
4.26
3.95
3.36
2.58
1.77
1.07
0.59
0.34
0.22
0.12
-0.06
-0.36
-0.76
-1.19
-1.62
-2.02
-2.46
-2.95
-3.51
-4.12
-4.73
-5.31
-5.85
-6.34
-6.74
-6.96
-6.88
-6.45
-5.70
-4.70
-3.53
-2.20
-0.72
0.90
2.54
4.00
5.03
5.48
5.33
4.78
4.08
3.53
3.33
3.51
3.98
4.53
4.91
4.91
4.47
3.70
2.83
2.09
1.64
1.47
1.44
1.37
1.14
0.71
0.14
-0.52
-1.28
-2.23
-3.43
-4.85
-6.29
-7.38
-7.77
-7.27
-5.94
-4.13
-2.29
-0.78
0.25
0.90
1.38
1.84
2.29
2.64
2.75
2.61
2.34
2.12
2.07
2.15
2.26
2.23
2.04
1.75
1.49
1.36
1.35
1.33
1.13
0.62
-0.24
-1.37
-2.61
-3.81
-4.81
-5.50
-5.81
-5.76
-5.39
-4.83
-4.22
-3.68
-3.24
-2.83
-2.37
-1.72
-0.88
0.12
1.16
2.16
3.07
3.83
4.39
4.62
4.45
3.85
2.93
1.88
0.84
-0.09
-0.97
-1.83
-2.69
-3.45
-3.99
-4.28
-4.36
-4.45
-4.75
-5.42
-6.49
-7.86
-9.33
-10.62
-11.51
-11.84
-11.59
-10.88
-9.91
-8.89
-7.93
-7.05
-6.18
-5.29
-4.40
-3.59
-2.90
-2.31
-1.80
-1.30
-0.83
-0.43
-0.18
-0.09
-0.12
-0.18
-0.19
-0.10
0.10
0.43
0.84
1.26
1.55
1.55
1.12
0.29
-0.80
-1.93
-2.96
-3.80
-4.47
-4.99
-5.30
-5.30
-4.89
-4.06
-2.97
-1.85
-0.88
-0.11
0.55
1.27
2.19
3.30
4.48
5.58
6.47
7.09
7.44
7.56
7.48
7.24
6.87
6.44
5.96
5.45
4.89
4.28
3.64
3.04
2.53
2.11
1.69
1.19
0.57
-0.13
-0.79
-1.31
-1.69
-2.03
-2.52
-3.30
-4.37
-5.49
-6.37
-6.72
-6.39
-5.41
-3.97
-2.30
-0.56
1.15
2.84
4.45
5.89
6.96
7.52
7.56
7.23
6.84
6.67
6.84
7.26
7.70
7.89
7.69
7.13
6.37
5.61
4.98
4.54
4.28
4.13
4.03
3.93
3.82
3.72
3.63
3.58
3.50
3.36
3.04
2.53
1.84
1.06
0.27
-0.47
-1.18
-1.90
-2.70
-3.58
-4.52
-5.46
-6.29
-6.89
-7.11
-6.80
-5.89
-4.45
-2.68
-0.87
0.71
1.92
2.79
3.44
4.04
4.64
5.27
5.87
6.40
6.88
7.31
7.71
8.07
8.34
8.48
8.44
8.23
7.90
7.54
7.23
7.08
7.11
7.31
7.53
7.62
7.43
6.91
6.12
5.18
4.23
3.34
2.53
1.76
1.02
0.31
-0.37
-1.03
-1.71
-2.46
-3.27
-4.07
-4.78
-5.35
-5.84
-6.39
-7.11
-8.06
-9.10
-10.05
-10.69
-10.92
-10.73
-10.21
-9.40
-8.30
-6.87
-5.17
-3.33
-1.59
-0.18
0.73
1.11
1.07
0.77
0.43
0.24
0.32
0.71
1.36
2.10
2.76
3.17
3.25
3.05
2.68
2.26
1.87
1.57
1.36
1.23
1.09
0.87
0.51
-0.04
-0.75
-1.52
-2.23
-2.78
-3.13
-3.32
-3.42
-3.57
-3.89
-4.48
-5.36
-6.51
-7.79
-9.00
-9.88
-10.22
-9.91
-8.97
-7.58
-5.97
-4.38
-2.98
-1.81
-0.82
0.06
0.93
1.83
2.75
3.63
4.40
5.04
5.56
6.00
6.40
6.76
7.01
7.08
6.92
6.56
6.04
5.51
5.04
4.68
4.44
4.26
4.08
3.84
3.52
3.11
2.63
2.13
1.64
1.13
0.57
-0.09
-0.88
-1.74
-2.58
-3.33
-3.96
-4.53
-5.15
-5.89
-6.72
-7.50
-8.01
-8.07
-7.63
-6.77
-5.71
-4.63
-3.64
-2.78
-1.96
-1.12
-0.20
0.80
1.85
2.87
3.81
4.62
5.26
5.71
5.95
5.94
5.71
5.29
4.80
4.38
4.16
4.22
4.48
4.78
4.90
4.71
4.20
3.49
2.77
2.18
1.76
1.43
1.08
0.64
0.10
-0.50
-1.10
-1.64
-2.12
-2.52
-2.86
-3.15
-3.47
-3.86
-4.38
-5.00
-5.66
-6.22
-6.57
-6.62
-6.31
-5.64
-4.65
-3.46
-2.21
-1.06
-0.07
0.81
1.72
2.79
4.04
5.28
6.25
6.75
6.73
6.35
5.93
5.67
5.63
5.72
5.73
5.57
5.27
5.01
5.00
5.29
5.75
6.16
6.26
5.94
5.24
4.33
3.38
2.51
1.81
1.26
0.88
0.67
0.58
0.53
0.46
0.28
-0.03
-0.44
-0.92
-1.46
-2.09
-2.85
-3.77
-4.83
-5.94
-6.98
-7.84
-8.38
-8.51
-8.21
-7.52
-6.56
-5.48
-4.39
-3.35
-2.38
-1.48
-0.64
0.09
0.66
1.07
1.32
1.47
1.54
1.55
1.45
1.21
0.79
0.25
-0.36
-0.92
-1.37
-1.70
-1.93
-2.12
-2.29
-2.46
-2.64
-2.84
-3.09
-3.42
-3.85
-4.34
-4.81
-5.20
-5.43
-5.45
-5.32
-5.09
-4.86
-4.71
-4.74
-4.95
-5.33
-5.81
-6.23
-6.46
-6.37
-5.90
-5.11
-4.07
-2.90
-1.67
-0.46
0.68
1.70
2.56
3.21
3.68
4.01
4.24
4.38
4.38
4.22
3.90
3.52
3.16
2.89
2.71
2.55
2.37
2.24
2.28
2.57
3.08
3.66
4.03
3.98
3.45
2.54
1.48
0.49
-0.29
-0.86
-1.22
-1.45
-1.60
-1.71
-1.83
-2.03
-2.41
-2.99
-3.77
-4.60
-5.33
-5.73
-5.65
-5.04
-4.01
-2.76
-1.50
-0.36
0.62
1.48
2.25
2.89
3.33
3.52
3.48
3.34
3.20
3.14
3.11
3.05
2.86
2.54
2.17
1.85
1.69
1.75
2.04
2.50
3.05
3.51
3.72
3.54
2.97
2.13
1.22
0.44
-0.12
-0.53
-0.90
-1.34
-1.85
-2.35
-2.75
-3.05
-3.33
-3.75
-4.43
-5.32
-6.26
-6.99
-7.25
-6.94
-6.10
-4.89
-3.51
-2.11
-0.75
0.54
1.72
2.73
3.51
4.04
4.35
4.53
4.64
4.71
4.70
4.59
4.37
4.15
4.03
4.10
4.33
4.61
4.77
4.66
4.24
3.59
2.85
2.17
1.64
1.26
0.97
0.69
0.41
0.16
0.04
0.04
0.08
0.02
-0.28
-0.84
-1.53
-2.16
-2.61
-2.87
-3.11
-3.47
-4.01
-4.61
-5.05
-5.11
-4.74
-4.03
-3.15
-2.31
-1.59
-0.99
-0.51
-0.13
0.12
0.17
0.05
-0.15
-0.27
-0.21
0.11
0.63
1.23
1.74
2.02
2.02
1.78
1.37
0.91
0.48
0.11
-0.20
-0.49
-0.79
-1.13
-1.50
-1.89
-2.28
-2.62
-2.91
-3.13
-3.33
-3.62
-4.11
-4.90
-5.97
-7.18
-8.24
-8.88
-8.92
-8.31
-7.24
-5.94
-4.63
-3.48
-2.54
-1.80
-1.24
-0.83
-0.55
-0.33
-0.08
0.32
0.87
1.54
2.19
2.67
2.93
2.96
2.87
2.76
2.69
2.69
2.70
2.65
2.51
2.28
2.03
1.86
1.82
1.93
2.12
2.29
2.37
2.33
2.19
1.98
1.72
1.36
0.86
0.15
-0.74
-1.73
-2.74
-3.69
-4.56
-5.32
-5.93
-6.30
-6.31
-5.90
-5.08
-3.93
-2.58
-1.16
0.19
1.36
2.29
2.94
3.37
3.69
4.01
4.40
4.86
5.29
5.59
5.73
5.75
5.75
5.81
5.97
6.15
6.24
6.14
5.81
5.29
4.65
3.97
3.34
2.81
2.43
2.24
2.20
2.21
2.15
1.87
1.33
0.56
-0.29
-1.06
-1.67
-2.14
-2.57
-3.04
-3.61
-4.18
-4.62
-4.81
-4.67
-4.22
-3.56
-2.79
-2.04
-1.40
-0.93
-0.63
-0.44
-0.31
-0.15
0.04
0.27
0.52
0.81
1.18
1.70
2.39
3.22
4.06
4.71
5.00
4.84
4.25
3.43
2.59
1.96
1.64
1.58
1.62
1.61
1.46
1.15
0.69
0.09
-0.75
-1.84
-3.15
-4.49
-5.62
-6.36
-6.69
-6.77
-6.79
-6.88
-6.95
-6.86
-6.45
-5.73
-4.85
-4.05
-3.47
-3.12
-2.87
-2.58
-2.15
-1.55
-0.90
-0.32
0.09
0.30
0.38
0.43
0.58
0.86
1.21
1.46
1.45
1.11
0.48
-0.26
-0.91
-1.29
-1.33
-1.09
-0.71
-0.35
-0.16
-0.24
-0.56
-1.04
-1.55
-2.02
-2.45
-2.92
-3.55
-4.37
-5.35
-6.34
-7.15
-7.57
-7.51
-6.97
-6.02
-4.86
-3.66
-2.58
-1.69
-0.98
-0.38
0.18
0.72
1.25
1.75
2.21
2.61
2.92
3.09
3.11
2.98
2.80
2.71
2.77
2.98
3.28
3.52
3.59
3.44
3.06
2.53
1.95
1.44
1.09
0.93
0.91
0.94
0.94
0.87
0.80
0.75
0.70
0.47
-0.12
-1.15
-2.45
-3.72
-4.56
-4.74
-4.27
-3.41
-2.51
-1.89
-1.67
-1.79
-2.02
-2.10
-1.83
-1.13
-0.07
1.18
2.42
3.51
4.39
5.07
5.57
5.90
6.05
5.97
5.71
5.30
4.84
4.40
4.02
3.71
3.45
3.22
3.00
2.78
2.58
2.45
2.41
2.49
2.65
2.78
2.78
2.57
2.17
1.69
1.22
0.81
0.41
-0.09
-0.77
-1.62
-2.50
-3.24
-3.70
-3.87
-3.85
-3.83
-3.96
-4.31
-4.76
-5.13
-5.21
-4.81
-3.95
-2.76
-1.46
-0.26
0.75
1.62
2.42
3.23
4.02
4.67
5.06
5.18
5.08
4.92
4.81
4.78
4.80
4.84
4.86
4.88
4.92
5.00
5.13
5.28
5.40
5.45
5.35
5.06
4.60
4.04
3.51
3.17
3.10
3.31
3.69
4.11
4.42
4.54
4.44
4.12
3.62
2.97
2.20
1.34
0.46
-0.38
-1.13
-1.80
-2.45
-3.18
-4.02
-4.88
-5.56
-5.87
-5.69
-5.05
-4.16
-3.24
-2.46
-1.87
-1.41
-0.98
-0.47
0.18
0.95
1.74
2.39
2.77
2.79
2.55
2.23
2.04
2.08
2.29
2.49
2.50
2.22
1.71
1.07
0.45
-0.08
-0.51
-0.80
-0.94
-0.89
-0.66
-0.31
0.02
0.15
-0.09
-0.79
-1.92
-3.30
-4.65
-5.71
-6.33
-6.49
-6.31
-5.97
-5.59
-5.26
-5.04
-5.06
-5.41
-6.14
-7.19
-8.33
-9.29
-9.85
-9.94
-9.61
-8.96
-8.12
-7.20
-6.31
-5.49
-4.75
-4.00
-3.11
-2.01
-0.73
0.54
1.59
2.26
2.58
2.69
2.72
2.77
2.81
2.78
2.73
2.76
2.99
3.48
4.15
4.83
5.33
5.56
5.46
5.07
4.46
3.70
2.91
2.18
1.60
1.21
1.00
0.94
0.97
0.97
0.83
0.43
-0.27
-1.21
-2.20
-2.99
-3.39
-3.33
-2.98
-2.57
-2.34
-2.41
-2.74
-3.14
-3.38
-3.29
-2.82
-2.02
-1.05
-0.05
0.86
1.65
2.35
2.91
3.28
3.37
3.16
2.72
2.28
2.07
2.23
2.71
3.32
3.78
3.90
3.61
2.99
2.24
1.55
1.09
0.95
1.13
1.53
2.00
2.39
2.59
2.61
2.44
2.11
1.63
1.00
0.26
-0.50
-1.15
-1.56
-1.70
-1.62
-1.48
-1.39
-1.48
-1.81
-2.36
-3.03
-3.71
-4.23
-4.50
-4.45
-4.11
-3.55
-2.84
-2.00
-1.04
-0.02
1.00
1.92
2.67
3.28
3.80
4.33
4.89
5.41
5.77
5.88
5.68
5.25
4.72
4.22
3.83
3.55
3.36
3.23
3.13
3.04
2.92
2.74
2.43
1.94
1.30
0.59
-0.08
-0.56
-0.78
-0.74
-0.56
-0.39
-0.41
-0.70
-1.27
-2.00
-2.73
-3.27
-3.58
-3.69
-3.75
-3.94
-4.35
-4.95
-5.59
-6.10
-6.37
-6.41
-6.32
-6.16
-5.90
-5.43
-4.63
-3.47
-2.05
-0.58
0.76
1.86
2.73
3.48
4.17
4.83
5.43
5.93
6.33
6.64
6.87
7.00
6.96
6.69
6.15
5.35
4.36
3.28
2.25
1.35
0.63
0.10
-0.25
-0.47
-0.58
-0.63
-0.67
-0.79
-1.08
-1.60
-2.33
-3.23
-4.20
-5.15
-5.99
-6.67
-7.09
-7.17
-6.88
-6.24
-5.36
-4.39
-3.44
-2.57
-1.76
-0.99
-0.26
0.37
0.79
0.95
0.88
0.70
0.57
0.61
0.82
1.10
1.28
1.23
0.93
0.42
-0.15
-0.61
-0.88
-0.95
-0.91
-0.87
-0.90
-1.06
-1.30
-1.62
-1.97
-2.33
-2.64
-2.84
-2.92
-2.89
-2.82
-2.84
-3.02
-3.33
-3.64
-3.78
-3.63
-3.18
-2.56
-1.95
-1.49
-1.23
-1.10
-0.98
-0.76
-0.42
0.04
0.53
1.01
1.46
1.93
2.44
2.99
3.47
3.75
3.69
3.26
2.58
1.88
1.39
1.24
1.41
1.75
2.08
2.24
2.18
1.90
1.44
0.87
0.31
-0.13
-0.31
-0.21
0.10
0.39
0.40
-0.04
-1.02
-2.38
-3.88
-5.24
-6.20
-6.57
-6.33
-5.53
-4.35
-3.00
-1.70
-0.61
0.19
0.73
1.10
1.38
1.63
1.86
2.07
2.28
2.52
2.82
3.15
3.45
3.60
3.51
3.19
2.68
2.13
1.67
1.40
1.30
1.32
1.38
1.37
1.21
0.85
0.36
-0.13
-0.46
-0.52
-0.35
-0.16
-0.22
-0.73
-1.65
-2.76
-3.77
-4.46
-4.80
-4.90
-4.92
-4.92
-4.84
-4.53
-3.88
-2.89
-1.68
-0.45
0.61
1.37
1.83
2.05
2.11
2.07
1.98
1.84
1.72
1.68
1.82
2.17
2.68
3.22
3.59
3.64
3.34
2.80
2.18
1.66
1.34
1.27
1.39
1.63
1.90
2.09
2.16
2.07
1.90
1.72
1.55
1.38
1.13
0.74
0.16
-0.56
-1.33
-2.02
-2.53
-2.79
-2.73
-2.31
-1.53
-0.47
0.71
1.82
2.70
3.25
3.51
3.55
3.45
3.26
3.01
2.79
2.63
2.62
2.76
3.00
3.26
3.43
3.45
3.28
2.93
2.41
1.76
1.00
0.21
-0.54
-1.18
-1.66
-1.98
-2.18
-2.30
-2.39
-2.49
-2.62
-2.75
-2.90
-3.08
-3.35
-3.74
-4.23
-4.72
-5.07
-5.16
-4.98
-4.66
-4.35
-4.15
-3.98
-3.64
-2.96
-1.93
-0.73
0.31
0.91
0.98
0.64
0.11
-0.38
-0.72
-0.91
-0.99
-0.97
-0.86
-0.69
-0.54
-0.56
-0.82
-1.34
-2.01
-2.67
-3.20
-3.54
-3.72
-3.82
-3.93
-4.08
-4.31
-4.61
-4.94
-5.31
-5.70
-6.07
-6.41
-6.65
-6.77
-6.74
-6.51
-6.06
-5.40
-4.61
-3.80
-3.14
-2.73
-2.59
-2.62
-2.66
-2.55
-2.24
-1.82
-1.46
-1.32
-1.44
-1.74
-2.06
-2.25
-2.25
-2.12
-1.99
-1.95
-2.02
-2.16
-2.25
-2.26
-2.21
-2.21
-2.35
-2.69
-3.17
-3.63
-3.93
-3.98
-3.77
-3.33
-2.72
-1.95
-1.05
-0.14
0.69
1.32
1.72
1.97
2.22
2.59
3.11
3.66
4.14
4.46
4.65
4.79
4.97
5.16
5.29
5.27
5.07
4.74
4.35
3.94
3.51
3.02
2.48
1.93
1.41
0.96
0.59
0.26
0.01
-0.14
-0.12
0.05
0.25
0.31
0.05
-0.58
-1.51
-2.58
-3.59
-4.39
-4.87
-4.96
-4.62
-3.87
-2.79
-1.57
-0.42
0.45
0.93
1.10
1.14
1.31
1.79
2.60
3.62
4.62
5.42
5.94
6.22
6.39
6.49
6.55
6.50
6.32
6.00
5.62
5.32
5.16
5.16
5.22
5.25
5.14
4.84
4.34
3.70
3.02
2.41
1.94
1.64
1.46
1.30
1.09
0.76
0.30
-0.26
-0.89
-1.55
-2.24
-2.95
-3.64
-4.24
-4.69
-4.94
-4.97
-4.79
-4.43
-3.97
-3.44
-2.84
-2.14
-1.30
-0.29
0.85
2.03
3.13
4.07
4.79
5.34
5.74
6.02
6.15
6.13
5.93
5.62
5.28
5.05
5.00
5.15
5.44
5.75
5.98
6.02
5.85
5.46
4.89
4.25
3.66
3.20
2.96
2.91
2.99
3.04
2.92
2.53
1.86
1.00
0.12
-0.60
-1.07
-1.29
-1.42
-1.71
-2.39
-3.57
-5.19
-7.00
-8.63
-9.81
-10.32
-10.17
-9.49
-8.44
-7.20
-5.87
-4.54
-3.31
-2.26
-1.45
-0.88
-0.48
-0.13
0.28
0.81
1.39
1.94
2.33
2.54
2.59
2.59
2.62
2.74
2.90
3.04
3.08
3.01
2.78
2.46
2.06
1.65
1.30
1.02
0.86
0.81
0.83
0.89
0.97
1.05
1.08
1.04
0.90
0.62
0.21
-0.31
-0.96
-1.73
-2.63
-3.60
-4.56
-5.36
-5.86
-5.98
-5.72
-5.16
-4.41
-3.60
-2.85
-2.19
-1.65
-1.17
-0.67
-0.04
0.77
1.72
2.72
3.66
4.39
4.87
5.09
5.12
5.04
4.96
4.96
5.07
5.25
5.43
5.50
5.38
5.06
4.56
3.95
3.32
2.74
2.27
1.97
1.89
2.02
2.25
2.44
2.38
1.94
1.07
-0.11
-1.43
-2.64
-3.55
-4.03
-4.11
-3.93
-3.72
-3.73
-4.07
-4.75
-5.57
-6.29
-6.66
-6.57
-6.04
-5.21
-4.21
-3.14
-2.02
-0.87
0.32
1.45
2.44
3.21
3.75
4.08
4.28
4.41
4.51
4.62
4.78
4.99
5.22
5.43
5.56
5.62
5.62
5.65
5.76
5.91
5.99
5.85
5.40
4.67
3.76
2.85
2.04
1.38
0.84
0.37
-0.00
-0.24
-0.30
-0.16
0.08
0.29
0.30
0.01
-0.63
-1.55
-2.65
-3.76
-4.75
-5.51
-5.96
-6.08
-5.89
-5.41
-4.72
-3.90
-3.06
-2.28
-1.58
-0.93
-0.26
0.47
1.21
1.85
2.25
2.36
2.24
2.04
1.93
2.02
2.27
2.54
2.69
2.65
2.48
2.31
2.25
2.30
2.36
2.24
1.81
1.02
-0.03
-1.16
-2.12
-2.77
-3.08
-3.17
-3.19
-3.31
-3.66
-4.26
-5.06
-5.98
-6.93
-7.82
-8.60
-9.18
-9.46
-9.36
-8.84
-7.93
-6.73
-5.40
-4.05
-2.78
-1.65
-0.66
0.16
0.82
1.36
1.87
2.40
3.00
3.62
4.15
4.49
4.60
4.53
4.39
4.29
4.24
4.21
4.08
3.83
3.46
3.06
2.76
2.60
2.53
2.45
2.23
1.83
1.27
0.64
0.02
-0.53
-1.04
-1.56
-2.20
-2.97
-3.86
-4.82
-5.72
-6.48
-7.02
-7.27
-7.19
-6.77
-6.01
-4.95
-3.67
-2.29
-0.95
0.21
1.10
1.71
2.08
2.34
2.57
2.89
3.32
3.88
4.53
5.20
5.77
6.16
6.32
6.26
6.07
5.82
5.58
5.35
5.13
4.89
4.66
4.48
4.40
4.39
4.42
4.39
4.25
3.97
3.53
2.94
2.19
1.28
0.20
-0.99
-2.21
-3.34
-4.23
-4.77
-4.90
-4.61
-3.97
-3.12
-2.22
-1.38
-0.66
-0.04
0.47
0.89
1.18
1.33
1.41
1.50
1.70
2.04
2.48
2.89
3.14
3.18
3.02
2.70
2.30
1.85
1.40
1.00
0.69
0.50
0.38
0.29
0.13
-0.16
-0.54
-0.98
-1.37
-1.70
-1.99
-2.35
-2.86
-3.60
-4.55
-5.60
-6.62
-7.45
-7.96
-8.07
-7.77
-7.07
-6.03
-4.76
-3.40
-2.06
-0.88
0.05
0.70
1.06
1.21
1.23
1.22
1.29
1.49
1.82
2.23
2.62
2.93
3.08
3.04
2.81
2.38
1.80
1.12
0.41
-0.27
-0.89
-1.42
-1.91
-2.40
-2.91
-3.39
-3.81
-4.11
-4.36
-4.64
-5.04
-5.57
-6.11
-6.47
-6.44
-5.89
-4.83
-3.38
-1.73
-0.13
1.25
2.29
2.99
3.42
3.68
3.82
3.92
4.02
4.19
4.52
5.03
5.69
6.30
6.71
6.80
6.59
6.23
5.85
5.52
5.17
4.64
3.77
2.56
1.15
-0.24
-1.37
-2.19
-2.75
-3.24
-3.88
-4.75
-5.85
-7.02
-8.08
-8.88
-9.40
-9.70
-9.91
-10.10
-10.18
-10.02
-9.45
-8.42
-7.02
-5.50
-4.04
-2.75
-1.51
-0.14
1.50
3.41
5.42
7.26
8.63
9.43
9.71
9.66
9.50
9.37
9.26
9.07
8.67
8.09
7.49
7.07
7.01
7.28
7.67
7.87
7.64
6.86
5.60
3.99
2.18
0.31
-1.45
-2.92
-3.98
-4.61
-4.96
-5.24
-5.58
-6.00
-6.32
-6.36
-6.05
-5.48
-4.84
-4.26
-3.74
-3.13
-2.27
-1.09
0.31
1.74
3.00
3.98
4.66
5.06
5.23
5.18
4.91
4.51
4.12
3.88
3.90
4.18
4.60
4.99
5.17
5.03
4.54
3.75
2.78
1.79
0.94
0.35
0.05
-0.01
0.01
-0.05
-0.29
-0.76
-1.42
-2.18
-2.92
-3.54
-3.92
-4.01
-3.77
-3.22
-2.45
-1.63
-0.89
-0.31
0.12
0.52
1.04
1.79
2.80
3.97
5.10
6.00
6.55
6.71
6.56
6.20
5.72
5.18
4.60
4.03
3.49
3.01
2.56
2.09
1.54
0.93
0.33
-0.13
-0.36
-0.41
-0.42
-0.56
-0.99
-1.70
-2.62
-3.63
-4.66
-5.67
-6.62
-7.41
-7.86
-7.83
-7.22
-6.08
-4.62
-3.09
-1.72
-0.65
0.09
0.53
0.79
0.96
1.11
1.27
1.40
1.46
1.42
1.27
1.04
0.75
0.42
0.03
-0.46
-1.03
-1.65
-2.28
-2.85
-3.35
-3.73
-3.98
-4.08
-4.02
-3.87
-3.69
-3.66
-3.94
-4.68
-5.88
-7.41
-8.98
-10.26
-10.98
-10.98
-10.29
-9.10
-7.62
-6.08
-4.62
-3.34
-2.31
-1.59
-1.19
-1.07
-1.08
-1.09
-0.98
-0.74
-0.47
-0.27
-0.26
-0.43
-0.70
-0.93
-0.96
-0.71
-0.16
0.65
1.58
2.44
3.00
3.09
2.65
1.81
0.84
-0.03
-0.60
-0.94
-1.22
-1.65
-2.31
-3.12
-3.82
-4.21
-4.16
-3.71
-3.04
-2.31
-1.64
-0.96
-0.18
0.82
2.01
3.24
4.29
5.00
5.36
5.51
5.66
5.97
6.43
6.92
7.28
7.37
7.17
6.75
6.22
5.66
5.16
4.74
4.41
4.19
4.06
3.98
3.86
3.58
3.06
2.25
1.19
0.06
-0.94
-1.66
-2.10
-2.42
-2.88
-3.66
-4.76
-5.94
-6.87
-7.30
-7.18
-6.64
-5.87
-5.00
-4.04
-2.93
-1.68
-0.44
0.60
1.28
1.57
1.64
1.73
2.01
2.55
3.27
4.03
4.69
5.18
5.50
5.67
5.69
5.55
5.23
4.76
4.25
3.86
3.76
4.00
4.52
5.15
5.65
5.87
5.71
5.21
4.49
3.63
2.75
1.89
1.14
0.58
0.25
0.17
0.24
0.29
0.12
-0.42
-1.34
-2.49
-3.60
-4.39
-4.69
-4.53
-4.07
-3.52
-3.01
-2.53
-2.00
-1.32
-0.53
0.29
0.97
1.41
1.64
1.74
1.82
1.94
2.10
2.23
2.28
2.26
2.22
2.25
2.38
2.56
2.71
2.76
2.69
2.54
2.38
2.19
1.90
1.42
0.68
-0.26
-1.24
-2.11
-2.77
-3.28
-3.77
-4.39
-5.14
-5.96
-6.67
-7.21
-7.53
-7.75
-7.90
-7.95
-7.80
-7.32
-6.47
-5.33
-4.09
-2.93
-1.92
-1.06
-0.21
0.69
1.64
2.55
3.26
3.69
3.79
3.63
3.31
2.94
2.63
2.45
2.40
2.48
2.67
2.94
3.29
3.67
3.98
4.06
3.77
3.03
1.91
0.60
-0.64
-1.62
-2.23
-2.50
-2.52
-2.40
-2.23
-2.08
-2.05
-2.26
-2.84
-3.79
-4.97
-6.14
-7.03
-7.43
-7.27
-6.60
-5.56
-4.32
-3.00
-1.72
-0.53
0.53
1.47
2.31
3.08
3.77
4.30
4.59
4.57
4.24
3.72
3.21
2.91
2.95
3.33
3.91
4.48
4.83
4.83
4.48
3.86
3.10
2.26
1.41
0.58
-0.20
-0.83
-1.25
-1.45
-1.50
-1.59
-1.93
-2.64
-3.67
-4.82
-5.84
-6.54
-6.84
-6.81
-6.57
-6.21
-5.75
-5.16
-4.38
-3.38
-2.22
-0.99
0.21
1.32
2.25
2.97
3.44
3.66
3.69
3.58
3.42
3.33
3.35
3.56
3.92
4.36
4.75
4.99
4.99
4.81
4.51
4.18
3.85
3.47
2.96
2.26
1.40
0.48
-0.34
-0.96
-1.33
-1.52
-1.67
-1.90
-2.31
-2.90
-3.61
-4.33
-5.01
-5.62
-6.15
-6.55
-6.73
-6.57
-6.04
-5.19
-4.17
-3.11
-2.09
-1.06
0.06
1.28
2.53
3.66
4.51
4.96
5.01
4.74
4.25
3.63
3.00
2.51
2.26
2.32
2.64
3.08
3.49
3.71
3.64
3.28
2.66
1.84
0.96
0.19
-0.34
-0.57
-0.55
-0.42
-0.31
-0.30
-0.38
-0.49
-0.66
-0.99
-1.60
-2.52
-3.63
-4.66
-5.36
-5.56
-5.28
-4.65
-3.80
-2.81
-1.70
-0.54
0.53
1.36
1.85
2.02
1.98
1.91
1.92
1.99
2.04
1.97
1.73
1.38
1.00
0.71
0.58
0.62
0.81
1.08
1.32
1.46
1.40
1.14
0.70
0.15
-0.42
-0.96
-1.41
-1.78
-2.07
-2.29
-2.44
-2.52
-2.57
-2.69
-3.03
-3.71
-4.79
-6.17
-7.66
-8.94
-9.72
-9.81
-9.15
-7.90
-6.29
-4.61
-3.10
-1.88
-0.91
-0.10
0.67
1.46
2.21
2.82
3.18
3.28
3.21
3.10
3.09
3.18
3.33
3.46
3.52
3.56
3.67
3.86
4.08
4.15
3.87
3.14
2.02
0.76
-0.39
-1.20
-1.63
-1.82
-1.99
-2.31
-2.83
-3.53
-4.34
-5.27
-6.32
-7.45
-8.50
-9.19
-9.23
-8.47
-7.01
-5.11
-3.13
-1.38
-0.03
0.88
1.39
1.58
1.58
1.54
1.62
1.92
2.44
3.12
3.82
4.43
4.83
4.94
4.77
4.36
3.84
3.40
3.23
3.40
3.85
4.35
4.64
4.50
3.87
2.88
1.74
0.70
-0.06
-0.51
-0.71
-0.82
-1.00
-1.38
-2.04
-3.00
-4.22
-5.61
-7.00
-8.18
-8.86
-8.82
-8.02
-6.58
-4.84
-3.15
-1.80
-0.86
-0.25
0.21
0.67
1.17
1.67
2.09
2.43
2.74
3.09
3.48
3.86
4.08
4.06
3.81
3.43
3.09
2.92
2.96
3.13
3.25
3.18
2.85
2.34
1.77
1.28
0.95
0.75
0.59
0.36
0.00
-0.46
-0.98
-1.52
-2.10
-2.76
-3.56
-4.49
-5.46
-6.30
-6.83
-6.93
-6.63
-6.00
-5.21
-4.35
-3.45
-2.49
-1.47
-0.39
0.63
1.49
2.11
2.55
2.94
3.45
4.17
5.03
5.89
6.54
6.88
6.90
6.73
6.49
6.32
6.22
6.11
5.89
5.47
4.85
4.13
3.44
2.94
2.66
2.52
2.34
1.99
1.42
0.76
0.21
-0.07
-0.07
0.06
0.02
-0.43
-1.44
-2.96
-4.79
-6.64
-8.25
-9.40
-9.97
-9.91
-9.25
-8.11
-6.68
-5.17
-3.83
-2.80
-2.13
-1.75
-1.49
-1.18
-0.70
-0.03
0.82
1.75
2.70
3.56
4.24
4.64
4.68
4.40
3.90
3.38
2.98
2.79
2.78
2.87
2.92
2.85
2.65
2.30
1.85
1.31
0.75
0.23
-0.21
-0.56
-0.84
-1.11
-1.36
-1.61
-1.81
-1.96
-2.09
-2.29
-2.67
-3.32
-4.25
-5.37
-6.56
-7.63
-8.42
-8.76
-8.59
-7.90
-6.80
-5.44
-3.99
-2.58
-1.25
0.01
1.28
2.56
3.83
5.00
5.94
6.53
6.76
6.66
6.37
6.04
5.78
5.63
5.62
5.71
5.90
6.13
6.32
6.36
6.18
5.75
5.13
4.50
4.01
3.72
3.59
3.51
3.36
3.09
2.71
2.28
1.79
1.26
0.65
-0.01
-0.67
-1.32
-1.95
-2.62
-3.42
-4.40
-5.51
-6.62
-7.55
-8.15
-8.36
-8.22
-7.79
-7.18
-6.46
-5.67
-4.82
-3.92
-3.00
-2.08
-1.20
-0.38
0.37
1.09
1.84
2.65
3.57
4.56
5.50
6.23
6.56
6.43
5.90
5.22
4.67
4.46
4.70
5.24
5.84
6.25
6.36
6.21
5.93
5.66
5.44
5.19
4.83
4.31
3.67
3.01
2.43
1.96
1.57
1.20
0.74
0.16
-0.52
-1.21
-1.82
-2.28
-2.59
-2.87
-3.25
-3.85
-4.67
-5.59
-6.44
-7.04
-7.25
-7.06
-6.51
-5.65
-4.56
-3.34
-2.08
-0.93
0.03
0.77
1.32
1.75
2.12
2.48
2.84
3.25
3.75
4.36
5.07
5.77
6.39
6.83
7.12
7.29
7.40
7.45
7.37
7.06
6.54
5.92
5.37
5.02
4.89
4.85
4.74
4.43
3.96
3.46
3.04
2.73
2.45
2.04
1.38
0.49
-0.48
-1.31
-1.83
-2.01
-1.97
-1.91
-1.99
-2.23
-2.54
-2.79
-2.94
-3.10
-3.40
-3.96
-4.72
-5.45
-5.86
-5.72
-5.03
-3.98
-2.88
-2.01
-1.49
-1.32
-1.35
-1.43
-1.47
-1.44
-1.31
-1.06
-0.66
-0.05
0.74
1.60
2.34
2.81
2.91
2.68
2.25
1.71
1.15
0.63
0.19
-0.12
-0.21
-0.11
0.13
0.34
0.43
0.33
0.06
-0.34
-0.87
-1.58
-2.51
-3.63
-4.79
-5.82
-6.57
-6.99
-7.14
-7.16
-7.19
-7.37
-7.72
-8.24
-8.84
-9.38
-9.70
-9.69
-9.29
-8.55
-7.59
-6.51
-5.37
-4.16
-2.83
-1.39
0.09
1.43
2.45
3.06
3.32
3.42
3.56
3.89
4.33
4.73
4.88
4.74
4.41
4.10
4.03
4.24
4.59
4.86
4.88
4.61
4.13
3.56
3.00
2.47
1.97
1.53
1.21
1.08
1.14
1.31
1.45
1.44
1.19
0.74
0.15
-0.52
-1.22
-1.88
-2.46
-2.93
-3.32
-3.71
-4.20
-4.83
-5.53
-6.19
-6.63
-6.72
-6.39
-5.67
-4.64
-3.44
-2.23
-1.13
-0.24
0.46
1.04
1.57
2.10
2.61
3.05
3.38
3.59
3.73
3.80
3.81
3.67
3.35
2.91
2.51
2.37
2.59
3.13
3.77
4.21
4.29
3.95
3.39
2.82
2.43
2.26
2.18
2.04
1.73
1.22
0.57
-0.09
-0.72
-1.29
-1.82
-2.37
-2.97
-3.63
-4.35
-5.14
-5.98
-6.84
-7.66
-8.30
-8.59
-8.41
-7.71
-6.59
-5.24
-3.85
-2.53
-1.33
-0.26
0.65
1.37
1.83
2.04
2.13
2.24
2.50
2.93
3.43
3.88
4.21
4.45
4.71
5.09
5.58
6.08
6.45
6.58
6.48
6.22
5.91
5.62
5.34
5.02
4.58
4.01
3.32
2.55
1.77
0.99
0.23
-0.55
-1.34
-2.16
-3.00
-3.86
-4.74
-5.66
-6.61
-7.54
-8.38
-9.02
-9.37
-9.36
-8.96
-8.17
-7.07
-5.80
-4.50
-3.30
-2.22
-1.23
-0.23
0.80
1.80
2.66
3.22
3.44
3.43
3.40
3.56
4.05
4.81
5.64
6.27
6.52
6.35
5.89
5.38
5.02
4.92
5.03
5.18
5.19
4.95
4.43
3.69
2.80
1.85
0.86
-0.10
-1.01
-1.82
-2.56
-3.31
-4.13
-5.05
-6.03
-6.96
-7.74
-8.28
-8.60
-8.69
-8.52
-8.02
-7.13
-5.82
-4.20
-2.49
-0.93
0.25
0.97
1.26
1.29
1.22
1.18
1.19
1.15
0.96
0.54
-0.03
-0.61
-0.99
-1.09
-0.93
-0.65
-0.44
-0.44
-0.66
-1.05
-1.48
-1.87
-2.14
-2.32
-2.44
-2.56
-2.66
-2.79
-2.93
-3.15
-3.54
-4.12
-4.90
-5.75
-6.52
-7.03
-7.16
-6.88
-6.24
-5.34
-4.30
-3.21
-2.11
-1.05
-0.06
0.84
1.61
2.26
2.80
3.34
3.93
4.60
5.27
5.81
6.06
5.97
5.64
5.24
5.03
5.12
5.53
6.12
6.72
7.19
7.44
7.42
7.11
6.51
5.61
4.51
3.34
2.26
1.40
0.81
0.46
0.25
0.04
-0.28
-0.83
-1.69
-2.86
-4.30
-5.85
-7.30
-8.39
-8.94
-8.86
-8.22
-7.16
-5.90
-4.60
-3.39
-2.33
-1.44
-0.69
-0.06
0.54
1.19
1.96
2.89
3.90
4.86
5.61
6.08
6.29
6.38
6.48
6.66
6.87
7.00
6.98
6.76
6.42
6.04
5.66
5.29
4.91
4.48
4.06
3.66
3.30
2.95
2.57
2.12
1.64
1.16
0.73
0.37
0.07
-0.19
-0.42
-0.68
-1.06
-1.65
-2.52
-3.63
-4.85
-5.97
-6.82
-7.29
-7.39
-7.15
-6.58
-5.67
-4.39
-2.82
-1.12
0.46
1.72
2.56
3.03
3.30
3.57
3.98
4.58
5.26
5.83
6.11
6.01
5.61
5.07
4.55
4.14
3.82
3.53
3.20
2.93
2.85
3.14
3.81
4.68
5.42
5.72
5.39
4.49
3.29
2.10
1.18
0.61
0.32
0.15
-0.08
-0.42
-0.85
-1.24
-1.52
-1.67
-1.71
-1.76
-1.93
-2.29
-2.90
-3.75
-4.79
-5.95
-7.09
-8.09
-8.83
-9.23
-9.28
-9.00
-8.40
-7.50
-6.35
-5.01
-3.64
-2.42
-1.51
-0.94
-0.61
-0.33
0.06
0.64
1.34
2.04
2.64
3.12
3.51
3.84
4.08
4.14
3.96
3.62
3.31
3.26
3.61
4.31
5.12
5.73
5.93
5.70
5.18
4.55
3.98
3.50
3.08
2.65
2.14
1.55
0.86
0.11
-0.66
-1.36
-1.91
-2.26
-2.42
-2.51
-2.63
-2.91
-3.39
-4.03
-4.75
-5.44
-6.04
-6.48
-6.69
-6.60
-6.19
-5.45
-4.44
-3.26
-2.03
-0.85
0.24
1.19
2.01
2.67
3.13
3.40
3.50
3.50
3.49
3.59
3.84
4.28
4.83
5.38
5.83
6.08
6.08
5.85
5.44
4.91
4.36
3.89
3.64
3.70
4.08
4.71
5.42
5.98
6.21
6.02
5.40
4.46
3.34
2.17
1.04
0.02
-0.87
-1.62
-2.21
-2.61
-2.82
-2.88
-2.89
-2.99
-3.35
-4.02
-4.92
-5.82
-6.46
-6.65
-6.35
-5.74
-5.09
-4.57
-4.21
-3.93
-3.52
-2.84
-1.83
-0.56
0.82
2.11
3.18
3.93
4.35
4.50
4.47
4.32
4.15
4.02
3.97
4.07
4.32
4.70
5.16
5.59
5.90
6.02
5.90
5.52
4.87
3.97
2.87
1.69
0.60
-0.27
-0.84
-1.17
-1.41
-1.72
-2.21
-2.91
-3.71
-4.50
-5.10
-5.44
-5.53
-5.48
-5.47
-5.66
-6.12
-6.82
-7.65
-8.41
-8.95
-9.15
-8.95
-8.34
-7.39
-6.20
-4.88
-3.62
-2.54
-1.72
-1.20
-0.97
-0.97
-1.14
-1.35
-1.51
-1.53
-1.39
-1.13
-0.84
-0.62
-0.54
-0.60
-0.77
-1.00
-1.21
-1.32
-1.23
-0.88
-0.30
0.36
0.84
0.93
0.51
-0.36
-1.41
-2.31
-2.79
-2.76
-2.35
-1.88
-1.66
-1.91
-2.64
-3.67
-4.75
-5.68
-6.35
-6.78
-7.00
-7.00
-6.74
-6.18
-5.33
-4.29
-3.24
-2.30
-1.48
-0.69
0.22
1.29
2.48
3.61
4.44
4.82
4.72
4.28
3.73
3.34
3.22
3.40
3.74
4.02
4.08
3.85
3.39
2.86
2.42
2.18
2.11
2.12
2.09
1.91
1.57
1.10
0.59
0.18
-0.03
0.05
0.35
0.73
0.93
0.71
-0.09
-1.44
-3.14
-4.88
-6.37
-7.36
-7.77
-7.59
-6.92
-5.87
-4.59
-3.25
-2.04
-1.07
-0.37
0.08
0.38
0.69
1.12
1.74
2.51
3.36
4.13
4.71
5.05
5.13
5.02
4.79
4.50
4.20
3.95
3.82
3.83
3.98
4.17
4.26
4.16
3.83
3.37
2.91
2.55
2.34
2.22
2.10
1.93
1.70
1.41
1.06
0.58
-0.09
-0.96
-1.94
-2.86
-3.59
-4.05
-4.32
-4.52
-4.78
-5.10
-5.42
-5.61
-5.57
-5.27
-4.72
-3.96
-3.02
-1.92
-0.72
0.49
1.61
2.55
3.29
3.84
4.23
4.46
4.51
4.40
4.21
4.07
4.12
4.39
4.80
5.24
5.56
5.70
5.63
5.38
4.97
4.43
3.88
3.44
3.19
3.14
3.20
3.20
3.02
2.65
2.15
1.62
1.08
0.51
-0.18
-0.97
-1.82
-2.61
-3.28
-3.83
-4.39
-5.05
-5.83
-6.64
-7.32
-7.70
-7.66
-7.21
-6.41
-5.41
-4.35
-3.35
-2.50
-1.83
-1.36
-1.06
-0.88
-0.80
-0.70
-0.50
-0.12
0.41
1.01
1.48
1.67
1.53
1.13
0.64
0.24
0.03
0.00
0.12
0.31
0.61
1.03
1.56
2.09
2.44
2.46
2.05
1.31
0.43
-0.35
-0.86
-1.02
-0.97
-0.87
-0.92
-1.27
-1.93
-2.81
-3.79
-4.73
-5.54
-6.13
-6.45
-6.44
-6.08
-5.42
-4.55
-3.64
-2.81
-2.13
-1.57
-1.00
-0.34
0.48
1.42
2.35
3.14
3.67
3.89
3.84
3.61
3.34
3.17
3.24
3.61
4.26
5.04
5.74
6.12
6.05
5.53
4.71
3.82
3.04
2.47
2.06
1.76
1.49
1.25
1.02
0.82
0.59
0.28
-0.18
-0.81
-1.59
-2.53
-3.59
-4.71
-5.77
-6.59
-6.98
-6.83
-6.19
-5.21
-4.17
-3.28
-2.67
-2.30
-2.05
-1.78
-1.40
-0.84
-0.12
0.73
1.62
2.45
3.13
3.58
3.76
3.77
3.72
3.72
3.85
4.10
4.36
4.54
4.58
4.47
4.27
4.01
3.71
3.36
2.98
2.62
2.39
2.37
2.52
2.68
2.58
2.00
0.89
-0.57
-2.02
-3.15
-3.80
-4.08
-4.23
-4.46
-4.83
-5.22
-5.42
-5.33
-4.98
-4.58
-4.36
-4.43
-4.77
-5.21
-5.50
-5.45
-4.96
-4.07
-2.90
-1.65
-0.48
0.49
1.19
1.60
1.79
1.83
1.84
1.91
2.12
2.50
3.01
3.55
4.04
4.41
4.62
4.70
4.71
4.68
4.62
4.55
4.44
4.26
4.02
3.69
3.31
2.91
2.52
2.19
1.94
1.76
1.63
1.55
1.49
1.43
1.32
1.09
0.70
0.15
-0.52
-1.23
-1.94
-2.65
-3.40
-4.20
-4.98
-5.58
-5.77
-5.42
-4.50
-3.17
-1.68
-0.26
0.92
1.85
2.63
3.38
4.21
5.13
6.06
6.92
7.65
8.22
8.69
9.09
9.40
9.53
9.32
8.73
7.83
6.85
6.04
5.56
5.33
5.17
4.86
4.31
3.63
3.04
2.71
2.65
2.71
2.63
2.24
1.55
0.72
-0.06
-0.66
-1.07
-1.39
-1.71
-2.10
-2.55
-3.06
-3.65
-4.39
-5.35
-6.51
-7.73
-8.85
-9.64
-10.04
-10.01
-9.65
-9.04
-8.26
-7.42
-6.61
-5.98
-5.59
-5.46
-5.52
-5.60
-5.57
-5.36
-5.01
-4.60
-4.19
-3.84
-3.52
-3.17
-2.72
-2.20
-1.68
-1.26
-1.07
-1.15
-1.44
-1.82
-2.12
-2.25
-2.22
-2.12
-2.04
-2.02
-2.08
-2.20
-2.41
-2.82
-3.46
-4.31
-5.16
-5.77
-5.97
-5.79
-5.44
-5.22
-5.37
-5.86
-6.49
-6.97
-7.08
-6.77
-6.14
-5.41
-4.71
-4.08
-3.49
-2.88
-2.23
-1.55
-0.91
-0.31
0.27
0.94
1.74
2.63
3.45
4.05
4.31
4.25
3.99
3.70
3.51
3.44
3.41
3.29
3.01
2.62
2.25
2.01
1.99
2.15
2.34
2.39
2.20
1.77
1.26
0.82
0.60
0.58
0.67
0.70
0.56
0.25
-0.19
-0.71
-1.33
-2.01
-2.74
-3.39
-3.77
-3.78
-3.40
-2.79
-2.13
-1.58
-1.15
-0.72
-0.15
0.62
1.52
2.38
3.01
3.27
3.15
2.76
2.28
1.89
1.71
1.78
2.01
2.29
2.55
2.78
3.04
3.39
3.82
4.22
4.44
4.37
4.00
3.43
2.86
2.46
2.31
2.41
2.68
3.00
3.26
3.35
3.20
2.80
2.18
1.43
0.63
-0.14
-0.84
-1.47
-2.06
-2.60
-3.11
-3.56
-3.96
-4.32
-4.66
-4.95
-5.13
-5.09
-4.73
-3.98
-2.88
-1.58
-0.32
0.72
1.41
1.72
1.72
1.51
1.24
1.01
0.97
1.21
1.71
2.34
2.86
3.07
2.89
2.44
1.97
1.75
1.89
2.32
2.83
3.23
3.41
3.41
3.32
3.23
3.17
3.07
2.89
2.57
2.15
1.67
1.22
0.85
0.62
0.53
0.56
0.64
0.68
0.61
0.37
-0.07
-0.71
-1.49
-2.30
-3.01
-3.48
-3.59
-3.33
-2.74
-1.89
-0.88
0.21
1.29
2.26
3.00
3.44
3.59
3.54
3.45
3.41
3.48
3.58
3.65
3.59
3.38
3.07
2.70
2.35
2.08
1.89
1.75
1.61
1.37
0.99
0.44
-0.20
-0.85
-1.43
-1.89
-2.24
-2.49
-2.73
-2.97
-3.24
-3.50
-3.67
-3.69
-3.54
-3.25
-2.96
-2.83
-3.01
-3.56
-4.41
-5.38
-6.17
-6.55
-6.33
-5.56
-4.47
-3.41
-2.68
-2.42
-2.49
-2.59
-2.42
-1.82
-0.89
0.14
1.01
1.59
1.88
2.00
2.05
2.10
2.18
2.29
2.50
2.80
3.11
3.28
3.17
2.71
2.01
1.28
0.73
0.49
0.58
0.89
1.27
1.55
1.61
1.40
0.92
0.23
-0.52
-1.15
-1.54
-1.67
-1.63
-1.56
-1.59
-1.77
-2.08
-2.46
-2.84
-3.16
-3.43
-3.60
-3.66
-3.62
-3.51
-3.35
-3.14
-2.83
-2.32
-1.57
-0.57
0.53
1.58
2.44
3.06
3.52
3.92
4.31
4.65
4.81
4.70
4.33
3.85
3.45
3.30
3.41
3.67
3.94
4.09
4.09
3.91
3.56
3.01
2.25
1.32
0.32
-0.53
-1.07
-1.19
-0.95
-0.55
-0.19
